 FDMNES
  energy    <xanes>
    -25.00    5.370747e-04
    -24.00    5.568884e-04
    -23.00    5.780848e-04
    -22.00    6.008099e-04
    -21.00    6.252309e-04
    -20.00    6.515399e-04
    -19.00    6.799590e-04
    -18.00    7.107457e-04
    -17.00    7.442011e-04
    -16.00    7.806789e-04
    -15.00    8.205974e-04
    -14.00    8.644552e-04
    -13.00    9.128511e-04
    -12.00    9.665108e-04
    -11.00    1.026322e-03
    -10.00    1.093382e-03
     -9.00    1.169065e-03
     -8.00    1.255114e-03
     -7.00    1.353774e-03
     -6.00    1.467988e-03
     -5.00    1.601695e-03
     -4.00    1.760293e-03
     -3.00    1.951398e-03
     -2.00    2.186143e-03
     -1.00    2.481532e-03
      0.00    2.865102e-03
      1.00    3.385117e-03
      2.00    4.136585e-03
      3.00    5.344642e-03
      4.00    7.748604e-03
      5.00    1.463081e-02
      5.20    1.679873e-02
      5.40    1.895549e-02
      5.60    2.102931e-02
      5.80    2.303634e-02
      6.00    2.502005e-02
      6.20    2.702732e-02
      6.40    2.910944e-02
      6.60    3.132609e-02
      6.80    3.374268e-02
      7.00    3.642290e-02
      7.20    3.942271e-02
      7.40    4.278881e-02
      7.60    4.655909e-02
      7.80    5.076084e-02
      8.00    5.540365e-02
      8.20    6.046878e-02
      8.40    6.590092e-02
      8.60    7.160918e-02
      8.80    7.747732e-02
      9.00    8.337491e-02
      9.20    8.916061e-02
      9.40    9.467834e-02
      9.60    9.975560e-02
      9.80    1.042121e-01
     10.00    1.078800e-01
     10.25    1.111689e-01
     10.50    1.129393e-01
     10.75    1.132975e-01
     11.00    1.125109e-01
     11.25    1.109231e-01
     11.50    1.088681e-01
     11.75    1.066182e-01
     12.00    1.043668e-01
     12.25    1.022343e-01
     12.50    1.002884e-01
     12.75    9.856786e-02
     13.00    9.709766e-02
     13.25    9.589462e-02
     13.50    9.496916e-02
     13.75    9.432598e-02
     14.00    9.396400e-02
     14.25    9.387602e-02
     14.50    9.404818e-02
     14.75    9.445946e-02
     15.00    9.508140e-02
     15.25    9.587804e-02
     15.50    9.680630e-02
     15.75    9.781676e-02
     16.00    9.885523e-02
     16.25    9.986508e-02
     16.50    1.007904e-01
     16.75    1.015797e-01
     17.00    1.021901e-01
     17.25    1.025909e-01
     17.50    1.027660e-01
     17.75    1.027148e-01
     18.00    1.024519e-01
     18.25    1.020043e-01
     18.50    1.014078e-01
     18.75    1.007038e-01
     19.00    9.993451e-02
     19.25    9.914026e-02
     19.50    9.835668e-02
     19.75    9.761317e-02
     20.00    9.693256e-02
     21.00    9.512259e-02
     22.00    9.499204e-02
     23.00    9.618426e-02
     24.00    9.789028e-02
     25.00    9.915899e-02
     26.00    9.926288e-02
     27.00    9.802735e-02
     28.00    9.583094e-02
     29.00    9.327342e-02
     30.00    9.082519e-02
     31.00    8.866935e-02
     32.00    8.679221e-02
     33.00    8.510118e-02
     34.00    8.348771e-02
     35.00    8.185977e-02
     36.00    8.016026e-02
     37.00    7.837992e-02
     38.00    7.657004e-02
     39.00    7.485703e-02
     40.00    7.343648e-02
