 FDMNES
  energy    <xanes>
    -25.00    5.430016e-04
    -24.00    5.634839e-04
    -23.00    5.854320e-04
    -22.00    6.090047e-04
    -21.00    6.343840e-04
    -20.00    6.617800e-04
    -19.00    6.914360e-04
    -18.00    7.236356e-04
    -17.00    7.587110e-04
    -16.00    7.970541e-04
    -15.00    8.391303e-04
    -14.00    8.854964e-04
    -13.00    9.368237e-04
    -12.00    9.939296e-04
    -11.00    1.057819e-03
    -10.00    1.129739e-03
     -9.00    1.211260e-03
     -8.00    1.304386e-03
     -7.00    1.411710e-03
     -6.00    1.536654e-03
     -5.00    1.683824e-03
     -4.00    1.859576e-03
     -3.00    2.072938e-03
     -2.00    2.337197e-03
     -1.00    2.672800e-03
      0.00    3.113088e-03
      1.00    3.716879e-03
      2.00    4.600462e-03
      3.00    6.039059e-03
      4.00    8.923576e-03
      5.00    1.723875e-02
      5.20    2.000679e-02
      5.40    2.289404e-02
      5.60    2.577043e-02
      5.80    2.857829e-02
      6.00    3.131861e-02
      6.20    3.404626e-02
      6.40    3.685063e-02
      6.60    3.983010e-02
      6.80    4.307479e-02
      7.00    4.665020e-02
      7.20    5.057138e-02
      7.40    5.477647e-02
      7.60    5.912781e-02
      7.80    6.346794e-02
      8.00    6.771555e-02
      8.20    7.192925e-02
      8.40    7.628027e-02
      8.60    8.096186e-02
      8.80    8.611110e-02
      9.00    9.177978e-02
      9.20    9.794018e-02
      9.40    1.044979e-01
      9.60    1.112952e-01
      9.80    1.181104e-01
     10.00    1.246645e-01
     10.25    1.320043e-01
     10.50    1.378120e-01
     10.75    1.415808e-01
     11.00    1.430617e-01
     11.25    1.423330e-01
     11.50    1.397546e-01
     11.75    1.358384e-01
     12.00    1.311097e-01
     12.25    1.260166e-01
     12.50    1.208978e-01
     12.75    1.159859e-01
     13.00    1.114247e-01
     13.25    1.072902e-01
     13.50    1.036123e-01
     13.75    1.003902e-01
     14.00    9.760421e-02
     14.25    9.522404e-02
     14.50    9.321349e-02
     14.75    9.153403e-02
     15.00    9.014673e-02
     15.25    8.901357e-02
     15.50    8.809814e-02
     15.75    8.736624e-02
     16.00    8.678626e-02
     16.25    8.632965e-02
     16.50    8.597123e-02
     16.75    8.568969e-02
     17.00    8.546779e-02
     17.25    8.529258e-02
     17.50    8.515534e-02
     17.75    8.505128e-02
     18.00    8.497905e-02
     18.25    8.494003e-02
     18.50    8.493752e-02
     18.75    8.497590e-02
     19.00    8.505984e-02
     19.25    8.519361e-02
     19.50    8.538050e-02
     19.75    8.562240e-02
     20.00    8.591922e-02
     21.00    8.757201e-02
     22.00    8.959334e-02
     23.00    9.137496e-02
     24.00    9.244870e-02
     25.00    9.264004e-02
     26.00    9.200753e-02
     27.00    9.069347e-02
     28.00    8.891123e-02
     29.00    8.693151e-02
     30.00    8.499081e-02
     31.00    8.322320e-02
     32.00    8.165724e-02
     33.00    8.024953e-02
     34.00    7.892906e-02
     35.00    7.763597e-02
     36.00    7.634545e-02
     37.00    7.507317e-02
     38.00    7.386695e-02
     39.00    7.279701e-02
     40.00    7.194655e-02
