    Energy   (100,001)      (010,001)      (001,110)   
  -25.0000  1.7386873E-04  1.7974951E-04  1.8509874E-04
  -24.0000  1.8027469E-04  1.8661319E-04  1.9204488E-04
  -23.0000  1.8712509E-04  1.9397318E-04  1.9948932E-04
  -22.0000  1.9446640E-04  2.0188380E-04  2.0748640E-04
  -21.0000  2.0235168E-04  2.1040744E-04  2.1609858E-04
  -20.0000  2.1084183E-04  2.1961614E-04  2.2539799E-04
  -19.0000  2.2000703E-04  2.2959351E-04  2.3546837E-04
  -18.0000  2.2992858E-04  2.4043709E-04  2.4640744E-04
  -17.0000  2.4070118E-04  2.5226140E-04  2.5833002E-04
  -16.0000  2.5243579E-04  2.6520167E-04  2.7137183E-04
  -15.0000  2.6526323E-04  2.7941879E-04  2.8569449E-04
  -14.0000  2.7933886E-04  2.9510555E-04  3.0149197E-04
  -13.0000  2.9484851E-04  3.1249485E-04  3.1899906E-04
  -12.0000  3.1201634E-04  3.3187066E-04  3.3850266E-04
  -11.0000  3.3111525E-04  3.5358252E-04  3.6035702E-04
  -10.0000  3.5248081E-04  3.7806545E-04  3.8500466E-04
  -9.00000  3.7653038E-04  4.0586744E-04  4.1300563E-04
  -8.00000  4.0378963E-04  4.3768810E-04  4.4507913E-04
  -7.00000  4.3493031E-04  4.7443442E-04  4.8216434E-04
  -6.00000  4.7082508E-04  5.1730271E-04  5.2551135E-04
  -5.00000  5.1262950E-04  5.6790271E-04  5.7682138E-04
  -4.00000  5.6190865E-04  6.2845137E-04  6.3847077E-04
  -3.00000  6.2084024E-04  7.0208708E-04  7.1388337E-04
  -2.00000  6.9255650E-04  7.9340304E-04  8.0818171E-04
  -1.00000  7.8175504E-04  9.0940553E-04  9.2939629E-04
   0.00000  8.9587877E-04  1.0613671E-03  1.0908902E-03
   1.00000  1.0476487E-03  1.2687843E-03  1.3167323E-03
   2.00000  1.2613871E-03  1.5691218E-03  1.6553582E-03
   3.00000  1.5928743E-03  2.0476777E-03  2.2221192E-03
   4.00000  2.2192757E-03  2.9684086E-03  3.3823957E-03
   5.00000  3.9084999E-03  5.4492901E-03  6.7058755E-03
   5.20000  4.4329112E-03  6.2330348E-03  7.8362805E-03
   5.40000  4.9577592E-03  7.0367178E-03  9.0819149E-03
   5.60000  5.4704110E-03  7.8442477E-03  1.0453629E-02
   5.80000  5.9804613E-03  8.6670613E-03  1.1996669E-02
   6.00000  6.5040132E-03  9.5241199E-03  1.3763481E-02
   6.20000  7.0554488E-03  1.0433118E-02  1.5793832E-02
   6.40000  7.6446813E-03  1.1409712E-02  1.8097271E-02
   6.60000  8.2761332E-03  1.2469231E-02  2.0630765E-02
   6.80000  8.9481460E-03  1.3628500E-02  2.3271728E-02
   7.00000  9.6532558E-03  1.4906842E-02  2.5800825E-02
   7.20000  1.0381431E-02  1.6326114E-02  2.7927186E-02
   7.40000  1.1128232E-02  1.7910354E-02  2.9381299E-02
   7.60000  1.1905102E-02  1.9685426E-02  3.0038684E-02
   7.80000  1.2743811E-02  2.1678644E-02  2.9978953E-02
   8.00000  1.3690213E-02  2.3918913E-02  2.9431582E-02
   8.20000  1.4791453E-02  2.6437408E-02  2.8665478E-02
   8.40000  1.6084281E-02  2.9267167E-02  2.7906050E-02
   8.60000  1.7588539E-02  3.2439204E-02  2.7307157E-02
   8.80000  1.9305857E-02  3.5972845E-02  2.6957265E-02
   9.00000  2.1221518E-02  3.9859031E-02  2.6894389E-02
   9.20000  2.3306696E-02  4.4037758E-02  2.7118592E-02
   9.40000  2.5519152E-02  4.8374784E-02  2.7601307E-02
   9.60000  2.7802436E-02  5.2647715E-02  2.8293675E-02
   9.80000  3.0085247E-02  5.6555104E-02  2.9135487E-02
   10.0000  3.2282743E-02  5.9758188E-02  3.0064453E-02
   10.2500  3.4766725E-02  6.2313357E-02  3.1262218E-02
   10.5000  3.6793740E-02  6.2946245E-02  3.2415986E-02
   10.7500  3.8233565E-02  6.1689051E-02  3.3454793E-02
   11.0000  3.9042817E-02  5.8909008E-02  3.4324013E-02
   11.2500  3.9278352E-02  5.5139470E-02  3.4985485E-02
   11.5000  3.9074221E-02  5.0906797E-02  3.5422021E-02
   11.7500  3.8595531E-02  4.6626843E-02  3.5637688E-02
   12.0000  3.7997168E-02  4.2575271E-02  3.5652603E-02
   12.2500  3.7401587E-02  3.8902817E-02  3.5497125E-02
   12.5000  3.6890760E-02  3.5668882E-02  3.5208173E-02
   12.7500  3.6507793E-02  3.2876151E-02  3.4825809E-02
   13.0000  3.6265374E-02  3.0496851E-02  3.4388359E-02
   13.2500  3.6156449E-02  2.8489131E-02  3.3929885E-02
   13.5000  3.6163536E-02  2.6806127E-02  3.3481503E-02
   13.7500  3.6264753E-02  2.5401271E-02  3.3071498E-02
   14.0000  3.6436593E-02  2.4231885E-02  3.2722873E-02
   14.2500  3.6654959E-02  2.3261161E-02  3.2451328E-02
   14.5000  3.6895925E-02  2.2458404E-02  3.2265381E-02
   14.7500  3.7136542E-02  2.1798290E-02  3.2167647E-02
   15.0000  3.7355587E-02  2.1260002E-02  3.2155992E-02
   15.2500  3.7534281E-02  2.0826489E-02  3.2224272E-02
   15.5000  3.7657054E-02  2.0483855E-02  3.2362838E-02
   15.7500  3.7712304E-02  2.0220839E-02  3.2559027E-02
   16.0000  3.7693003E-02  2.0028356E-02  3.2797748E-02
   16.2500  3.7596955E-02  1.9899106E-02  3.3062231E-02
   16.5000  3.7426594E-02  1.9827230E-02  3.3334970E-02
   16.7500  3.7188297E-02  1.9808017E-02  3.3598804E-02
   17.0000  3.6891319E-02  1.9837655E-02  3.3838058E-02
   17.2500  3.6546568E-02  1.9913007E-02  3.4039606E-02
   17.5000  3.6165455E-02  2.0031428E-02  3.4193714E-02
   17.7500  3.5758994E-02  2.0190619E-02  3.4294522E-02
   18.0000  3.5337241E-02  2.0388505E-02  3.4340115E-02
   18.2500  3.4909049E-02  2.0623161E-02  3.4332175E-02
   18.5000  3.4482048E-02  2.0892758E-02  3.4275313E-02
   18.7500  3.4062731E-02  2.1195542E-02  3.4176182E-02
   19.0000  3.3656563E-02  2.1529838E-02  3.4042545E-02
   19.2500  3.3268028E-02  2.1894082E-02  3.3882385E-02
   19.5000  3.2900631E-02  2.2286857E-02  3.3703167E-02
   19.7500  3.2556882E-02  2.2706865E-02  3.3511311E-02
   20.0000  3.2238398E-02  2.3152715E-02  3.3311976E-02
   21.0000  3.1233463E-02  2.5145893E-02  3.2506992E-02
   22.0000  3.0649186E-02  2.7329982E-02  3.1745808E-02
   23.0000  3.0395154E-02  2.9506558E-02  3.0984081E-02
   24.0000  3.0362212E-02  3.1470057E-02  3.0160762E-02
   25.0000  3.0439394E-02  3.3030147E-02  2.9270318E-02
   26.0000  3.0447093E-02  3.4047122E-02  2.8362159E-02
   27.0000  3.0160272E-02  3.4473504E-02  2.7511164E-02
   28.0000  2.9510396E-02  3.4375570E-02  2.6794422E-02
   29.0000  2.8661772E-02  3.3901837E-02  2.6269754E-02
   30.0000  2.7823421E-02  3.3204296E-02  2.5945088E-02
   31.0000  2.7108199E-02  3.2392632E-02  2.5782098E-02
   32.0000  2.6530230E-02  3.1527119E-02  2.5719725E-02
   33.0000  2.6053270E-02  3.0629792E-02  2.5698152E-02
   34.0000  2.5631372E-02  2.9702095E-02  2.5673617E-02
   35.0000  2.5229011E-02  2.8740476E-02  2.5620846E-02
   36.0000  2.4827233E-02  2.7747600E-02  2.5528453E-02
   37.0000  2.4422980E-02  2.6739909E-02  2.5394019E-02
   38.0000  2.4026648E-02  2.5753784E-02  2.5223254E-02
   39.0000  2.3661505E-02  2.4852344E-02  2.5034895E-02
   40.0000  2.3362372E-02  2.4122889E-02  2.4864506E-02
