    Energy   (100,001)      (010,001)      (001,110)   
  -25.0000  1.6774275E-04  1.8284077E-04  1.7190873E-04
  -24.0000  1.7384719E-04  1.8971397E-04  1.7820360E-04
  -23.0000  1.8036563E-04  1.9707919E-04  1.8492938E-04
  -22.0000  1.8734017E-04  2.0498989E-04  1.9213036E-04
  -21.0000  1.9481880E-04  2.1350744E-04  1.9985704E-04
  -20.0000  2.0285633E-04  2.2270267E-04  2.0816717E-04
  -19.0000  2.1151571E-04  2.3265771E-04  2.1712719E-04
  -18.0000  2.2086959E-04  2.4346833E-04  2.2681384E-04
  -17.0000  2.3100223E-04  2.5524683E-04  2.3731627E-04
  -16.0000  2.4201191E-04  2.6812582E-04  2.4873863E-04
  -15.0000  2.5401400E-04  2.8226287E-04  2.6120333E-04
  -14.0000  2.6714479E-04  2.9784668E-04  2.7485524E-04
  -13.0000  2.8156653E-04  3.1510510E-04  2.8986711E-04
  -12.0000  2.9747386E-04  3.3431568E-04  3.0644653E-04
  -11.0000  3.1510239E-04  3.5581989E-04  3.2484530E-04
  -10.0000  3.3474018E-04  3.8004249E-04  3.4537186E-04
  -9.00000  3.5674326E-04  4.0751828E-04  3.6840829E-04
  -8.00000  3.8155726E-04  4.3892985E-04  3.9443390E-04
  -7.00000  4.0974789E-04  4.7516211E-04  4.2405866E-04
  -6.00000  4.4204515E-04  5.1738253E-04  4.5807185E-04
  -5.00000  4.7940920E-04  5.6716323E-04  4.9751459E-04
  -4.00000  5.2313179E-04  6.2667237E-04  5.4379205E-04
  -3.00000  5.7499879E-04  6.9898648E-04  5.9885369E-04
  -2.00000  6.3756373E-04  7.8862517E-04  6.6549759E-04
  -1.00000  7.1463713E-04  9.0252286E-04  7.4791630E-04
   0.00000  8.1223486E-04  1.0519372E-03  8.5275627E-04
   1.00000  9.4062342E-04  1.2566102E-03  9.9140069E-04
   2.00000  1.1194554E-03  1.5552945E-03  1.1856671E-03
   3.00000  1.3939775E-03  2.0391215E-03  1.4855080E-03
   4.00000  1.9085004E-03  3.0032063E-03  2.0467721E-03
   5.00000  3.2938931E-03  5.7466580E-03  3.5484959E-03
   5.20000  3.7301790E-03  6.6204115E-03  4.0465605E-03
   5.40000  4.1729832E-03  7.5046228E-03  4.5806887E-03
   5.60000  4.6112350E-03  8.3741462E-03  5.1387380E-03
   5.80000  5.0498416E-03  9.2349934E-03  5.7171603E-03
   6.00000  5.4970433E-03  1.0099996E-02  6.3114809E-03
   6.20000  5.9579824E-03  1.0979000E-02  6.9133155E-03
   6.40000  6.4342260E-03  1.1880384E-02  7.5139978E-03
   6.60000  6.9264720E-03  1.2815773E-02  8.1112280E-03
   6.80000  7.4376698E-03  1.3802628E-02  8.7136725E-03
   7.00000  7.9744816E-03  1.4863175E-02  9.3398389E-03
   7.20000  8.5468425E-03  1.6021450E-02  1.0011733E-02
   7.40000  9.1666143E-03  1.7300952E-02  1.0746354E-02
   7.60000  9.8461857E-03  1.8723886E-02  1.1547839E-02
   7.80000  1.0597157E-02  2.0311433E-02  1.2402655E-02
   8.00000  1.1428698E-02  2.2083759E-02  1.3280962E-02
   8.20000  1.2345157E-02  2.4058646E-02  1.4146298E-02
   8.40000  1.3343144E-02  2.6248986E-02  1.4970468E-02
   8.60000  1.4409254E-02  2.8660393E-02  1.5744383E-02
   8.80000  1.5519968E-02  3.1289753E-02  1.6477668E-02
   9.00000  1.6644673E-02  3.4124180E-02  1.7189635E-02
   9.20000  1.7751312E-02  3.7139073E-02  1.7900105E-02
   9.40000  1.8812947E-02  4.0294337E-02  1.8625157E-02
   9.60000  1.9812921E-02  4.3528594E-02  1.9376986E-02
   9.80000  2.0746914E-02  4.6752317E-02  2.0164993E-02
   10.0000  2.1621510E-02  4.9842181E-02  2.0996394E-02
   10.2500  2.2652285E-02  5.3274160E-02  2.2103930E-02
   10.5000  2.3642767E-02  5.5899413E-02  2.3290701E-02
   10.7500  2.4618403E-02  5.7396410E-02  2.4554299E-02
   11.0000  2.5590297E-02  5.7575214E-02  2.5886902E-02
   11.2500  2.6551970E-02  5.6451093E-02  2.7275072E-02
   11.5000  2.7483355E-02  5.4240276E-02  2.8697579E-02
   11.7500  2.8360871E-02  5.1281401E-02  3.0125459E-02
   12.0000  2.9168624E-02  4.7933285E-02  3.1524842E-02
   12.2500  2.9904387E-02  4.4498570E-02  3.2860204E-02
   12.5000  3.0578530E-02  4.1191105E-02  3.4098477E-02
   12.7500  3.1208404E-02  3.8138283E-02  3.5215414E-02
   13.0000  3.1812506E-02  3.5400002E-02  3.6200436E-02
   13.2500  3.2407164E-02  3.2990321E-02  3.7056169E-02
   13.5000  3.3005537E-02  3.0895968E-02  3.7795543E-02
   13.7500  3.3617591E-02  2.9089968E-02  3.8438871E-02
   14.0000  3.4250153E-02  2.7540449E-02  3.9010725E-02
   14.2500  3.4906795E-02  2.6215695E-02  3.9536665E-02
   14.5000  3.5587593E-02  2.5086672E-02  4.0040210E-02
   14.7500  3.6288867E-02  2.4128025E-02  4.0540441E-02
   15.0000  3.7003011E-02  2.3318217E-02  4.1050287E-02
   15.2500  3.7718550E-02  2.2639231E-02  4.1575472E-02
   15.5000  3.8420507E-02  2.2076092E-02  4.2113993E-02
   15.7500  3.9091140E-02  2.1616345E-02  4.2656115E-02
   16.0000  3.9711088E-02  2.1249578E-02  4.3184947E-02
   16.2500  4.0260876E-02  2.0966993E-02  4.3677717E-02
   16.5000  4.0722638E-02  2.0761069E-02  4.4107843E-02
   16.7500  4.1081820E-02  2.0625280E-02  4.4447753E-02
   17.0000  4.1328595E-02  2.0553883E-02  4.4672178E-02
   17.2500  4.1458761E-02  2.0541746E-02  4.4761442E-02
   17.5000  4.1473989E-02  2.0584218E-02  4.4704109E-02
   17.7500  4.1381426E-02  2.0677032E-02  4.4498447E-02
   18.0000  4.1192798E-02  2.0816231E-02  4.4152405E-02
   18.2500  4.0923196E-02  2.0998125E-02  4.3682202E-02
   18.5000  4.0589758E-02  2.1219265E-02  4.3109904E-02
   18.7500  4.0210400E-02  2.1476441E-02  4.2460595E-02
   19.0000  3.9802706E-02  2.1766707E-02  4.1759649E-02
   19.2500  3.9382994E-02  2.2087430E-02  4.1030500E-02
   19.5000  3.8965599E-02  2.2436357E-02  4.0293069E-02
   19.7500  3.8562421E-02  2.2811617E-02  3.9562972E-02
   20.0000  3.8182886E-02  2.3211551E-02  3.8851612E-02
   21.0000  3.7028384E-02  2.5016307E-02  3.6328009E-02
   22.0000  3.6565366E-02  2.7046099E-02  3.4419905E-02
   23.0000  3.6605174E-02  2.9160552E-02  3.3005164E-02
   24.0000  3.6695390E-02  3.1161140E-02  3.1876289E-02
   25.0000  3.6337567E-02  3.2804067E-02  3.0857414E-02
   26.0000  3.5250488E-02  3.3877952E-02  2.9850330E-02
   27.0000  3.3517993E-02  3.4299414E-02  2.8847846E-02
   28.0000  3.1471228E-02  3.4158239E-02  2.7894540E-02
   29.0000  2.9471642E-02  3.3634041E-02  2.7055108E-02
   30.0000  2.7758738E-02  3.2904061E-02  2.6380617E-02
   31.0000  2.6419592E-02  3.2098510E-02  2.5883797E-02
   32.0000  2.5434320E-02  3.1291504E-02  2.5538523E-02
   33.0000  2.4731339E-02  3.0511013E-02  2.5294954E-02
   34.0000  2.4224765E-02  2.9753628E-02  2.5095878E-02
   35.0000  2.3834451E-02  2.8999242E-02  2.4887564E-02
   36.0000  2.3496381E-02  2.8225457E-02  2.4627043E-02
   37.0000  2.3168599E-02  2.7421929E-02  2.4289504E-02
   38.0000  2.2834998E-02  2.6604122E-02  2.3878049E-02
   39.0000  2.2508028E-02  2.5825648E-02  2.3434476E-02
   40.0000  2.2225642E-02  2.5177774E-02  2.3038521E-02
