    Energy   (100,001)      (010,001)      (001,110)   
  -25.0000  1.6808867E-04  1.8636214E-04  1.7077655E-04
  -24.0000  1.7428915E-04  1.9319605E-04  1.7710175E-04
  -23.0000  1.8091564E-04  2.0051049E-04  1.8386421E-04
  -22.0000  1.8801203E-04  2.0835695E-04  1.9110922E-04
  -21.0000  1.9562833E-04  2.1679448E-04  1.9888842E-04
  -20.0000  2.0382181E-04  2.2589110E-04  2.0726094E-04
  -19.0000  2.1265830E-04  2.3572556E-04  2.1629479E-04
  -18.0000  2.2221388E-04  2.4638950E-04  2.2606859E-04
  -17.0000  2.3257693E-04  2.5799023E-04  2.3667367E-04
  -16.0000  2.4385070E-04  2.7065415E-04  2.4821678E-04
  -15.0000  2.5615654E-04  2.8453118E-04  2.6082338E-04
  -14.0000  2.6963808E-04  2.9980043E-04  2.7464192E-04
  -13.0000  2.8446651E-04  3.1667760E-04  2.8984936E-04
  -12.0000  3.0084754E-04  3.3542475E-04  3.0665824E-04
  -11.0000  3.1903053E-04  3.5636331E-04  3.2532605E-04
  -10.0000  3.3932076E-04  3.7989179E-04  3.4616773E-04
  -9.00000  3.6209599E-04  4.0651009E-04  3.6957257E-04
  -8.00000  3.8782950E-04  4.3685364E-04  3.9602746E-04
  -7.00000  4.1712248E-04  4.7174230E-04  4.2614951E-04
  -6.00000  4.5075081E-04  5.1225204E-04  4.6073281E-04
  -5.00000  4.8973445E-04  5.5982273E-04  5.0081718E-04
  -4.00000  5.3544345E-04  6.1642590E-04  5.4779215E-04
  -3.00000  5.8976625E-04  6.8483516E-04  6.0355999E-04
  -2.00000  6.5538937E-04  7.6908326E-04  6.7080222E-04
  -1.00000  7.3628915E-04  8.7528007E-04  7.5343927E-04
   0.00000  8.3866334E-04  1.0131901E-03  8.5747972E-04
   1.00000  9.7288034E-04  1.1996002E-03  9.9274295E-04
   2.00000  1.1581814E-03  1.4666402E-03  1.1768562E-03
   3.00000  1.4367675E-03  1.8875236E-03  1.4466770E-03
   4.00000  1.9337304E-03  2.6911995E-03  1.9044091E-03
   5.00000  3.1716466E-03  4.8530341E-03  2.9509220E-03
   5.20000  3.5707171E-03  5.5226342E-03  3.2807101E-03
   5.40000  3.9951104E-03  6.1946001E-03  3.6370578E-03
   5.60000  4.4346948E-03  6.8549230E-03  4.0172129E-03
   5.80000  4.8890062E-03  7.5174618E-03  4.4255448E-03
   6.00000  5.3617093E-03  8.2040053E-03  4.8683841E-03
   6.20000  5.8579147E-03  8.9347712E-03  5.3516300E-03
   6.40000  6.3836066E-03  9.7264001E-03  5.8802799E-03
   6.60000  6.9456224E-03  1.0592461E-02  6.4583109E-03
   6.80000  7.5516206E-03  1.1544611E-02  7.0882769E-03
   7.00000  8.2099688E-03  1.2593835E-02  7.7706709E-03
   7.20000  8.9296812E-03  1.3751495E-02  8.5036813E-03
   7.40000  9.7204768E-03  1.5030034E-02  9.2843858E-03
   7.60000  1.0592716E-02  1.6443318E-02  1.0111994E-02
   7.80000  1.1556548E-02  1.8006695E-02  1.0992054E-02
   8.00000  1.2619481E-02  1.9736756E-02  1.1938934E-02
   8.20000  1.3782333E-02  2.1650595E-02  1.2974521E-02
   8.40000  1.5034730E-02  2.3764499E-02  1.4123651E-02
   8.60000  1.6352429E-02  2.6092043E-02  1.5408608E-02
   8.80000  1.7699322E-02  2.8641669E-02  1.6844669E-02
   9.00000  1.9035682E-02  3.1413923E-02  1.8437280E-02
   9.20000  2.0330404E-02  3.4398181E-02  2.0180607E-02
   9.40000  2.1570988E-02  3.7567990E-02  2.2057244E-02
   9.60000  2.2764907E-02  4.0873955E-02  2.4039176E-02
   9.80000  2.3931335E-02  4.4234766E-02  2.6090250E-02
   10.0000  2.5089113E-02  4.7530226E-02  2.8169684E-02
   10.2500  2.6538636E-02  5.1314732E-02  3.0744884E-02
   10.5000  2.7988126E-02  5.4399669E-02  3.3220352E-02
   10.7500  2.9421219E-02  5.6473439E-02  3.5526927E-02
   11.0000  3.0810789E-02  5.7352744E-02  3.7606489E-02
   11.2500  3.2116707E-02  5.7027507E-02  3.9410238E-02
   11.5000  3.3293948E-02  5.5644349E-02  4.0895936E-02
   11.7500  3.4306549E-02  5.3447475E-02  4.2027675E-02
   12.0000  3.5136631E-02  5.0710248E-02  4.2780169E-02
   12.2500  3.5786500E-02  4.7683413E-02  4.3145595E-02
   12.5000  3.6275377E-02  4.4568572E-02  4.3140003E-02
   12.7500  3.6632328E-02  4.1512241E-02  4.2806322E-02
   13.0000  3.6887811E-02  3.8611522E-02  4.2209879E-02
   13.2500  3.7068111E-02  3.5924101E-02  4.1427341E-02
   13.5000  3.7194490E-02  3.3478570E-02  4.0535872E-02
   13.7500  3.7284760E-02  3.1283424E-02  3.9605839E-02
   14.0000  3.7354740E-02  2.9334200E-02  3.8696626E-02
   14.2500  3.7418732E-02  2.7618718E-02  3.7854884E-02
   14.5000  3.7489124E-02  2.6120703E-02  3.7114589E-02
   14.7500  3.7575489E-02  2.4822167E-02  3.6498203E-02
   15.0000  3.7683589E-02  2.3704902E-02  3.6018320E-02
   15.2500  3.7814606E-02  2.2751370E-02  3.5679336E-02
   15.5000  3.7964779E-02  2.1945206E-02  3.5478902E-02
   15.7500  3.8125519E-02  2.1271457E-02  3.5409085E-02
   16.0000  3.8284002E-02  2.0716653E-02  3.5457255E-02
   16.2500  3.8424235E-02  2.0268782E-02  3.5606822E-02
   16.5000  3.8528520E-02  1.9917202E-02  3.5837955E-02
   16.7500  3.8579229E-02  1.9652521E-02  3.6128419E-02
   17.0000  3.8560733E-02  1.9466451E-02  3.6454618E-02
   17.2500  3.8461254E-02  1.9351673E-02  3.6792844E-02
   17.5000  3.8274409E-02  1.9301697E-02  3.7120651E-02
   17.7500  3.8000178E-02  1.9310741E-02  3.7418185E-02
   18.0000  3.7645123E-02  1.9373635E-02  3.7669296E-02
   18.2500  3.7221801E-02  1.9485731E-02  3.7862244E-02
   18.5000  3.6747480E-02  1.9642850E-02  3.7989940E-02
   18.7500  3.6242374E-02  1.9841250E-02  3.8049710E-02
   19.0000  3.5727699E-02  2.0077614E-02  3.8042681E-02
   19.2500  3.5223810E-02  2.0349078E-02  3.7972916E-02
   19.5000  3.4748644E-02  2.0653257E-02  3.7846448E-02
   19.7500  3.4316645E-02  2.0988221E-02  3.7670396E-02
   20.0000  3.3938335E-02  2.1352315E-02  3.7452364E-02
   21.0000  3.3061720E-02  2.3061220E-02  3.6315473E-02
   22.0000  3.3165264E-02  2.5085135E-02  3.5032870E-02
   23.0000  3.3860108E-02  2.7315464E-02  3.3756879E-02
   24.0000  3.4607245E-02  2.9608504E-02  3.2475304E-02
   25.0000  3.4907060E-02  3.1775327E-02  3.1141016E-02
   26.0000  3.4453492E-02  3.3595392E-02  2.9767877E-02
   27.0000  3.3264924E-02  3.4877026E-02  2.8447095E-02
   28.0000  3.1631801E-02  3.5563918E-02  2.7272445E-02
   29.0000  2.9923820E-02  3.5707956E-02  2.6303129E-02
   30.0000  2.8402854E-02  3.5416735E-02  2.5559314E-02
   31.0000  2.7168091E-02  3.4818545E-02  2.5024398E-02
   32.0000  2.6205722E-02  3.4031749E-02  2.4652288E-02
   33.0000  2.5453272E-02  3.3145598E-02  2.4381780E-02
   34.0000  2.4839915E-02  3.2215988E-02  2.4153525E-02
   35.0000  2.4304645E-02  3.1271533E-02  2.3920862E-02
   36.0000  2.3803422E-02  3.0324190E-02  2.3653863E-02
   37.0000  2.3313110E-02  2.9381934E-02  2.3341199E-02
   38.0000  2.2834373E-02  2.8463546E-02  2.2992923E-02
   39.0000  2.2392076E-02  2.7616010E-02  2.2643113E-02
   40.0000  2.2028402E-02  2.6922122E-02  2.2344049E-02
