    Energy   (100,001)      (010,001)      (001,110)   
  -25.0000  1.6936413E-04  1.8187344E-04  1.6936970E-04
  -24.0000  1.7561777E-04  1.8879145E-04  1.7579477E-04
  -23.0000  1.8230084E-04  1.9620954E-04  1.8267274E-04
  -22.0000  1.8945747E-04  2.0418248E-04  1.9005137E-04
  -21.0000  1.9713789E-04  2.1277328E-04  1.9798526E-04
  -20.0000  2.0539960E-04  2.2205466E-04  2.0653707E-04
  -19.0000  2.1430863E-04  2.3211108E-04  2.1577908E-04
  -18.0000  2.2394123E-04  2.4304110E-04  2.2579506E-04
  -17.0000  2.3438587E-04  2.5496051E-04  2.3668264E-04
  -16.0000  2.4574578E-04  2.6800609E-04  2.4855629E-04
  -15.0000  2.5814215E-04  2.8234069E-04  2.6155105E-04
  -14.0000  2.7171818E-04  2.9815954E-04  2.7582733E-04
  -13.0000  2.8664423E-04  3.1569871E-04  2.9157714E-04
  -12.0000  3.0312463E-04  3.3524623E-04  3.0903219E-04
  -11.0000  3.2140646E-04  3.5715699E-04  3.2847465E-04
  -10.0000  3.4179140E-04  3.8187313E-04  3.5025165E-04
  -9.00000  3.6465161E-04  4.0995229E-04  3.7479499E-04
  -8.00000  3.9045164E-04  4.4210741E-04  4.0264864E-04
  -7.00000  4.1977909E-04  4.7926425E-04  4.3450768E-04
  -6.00000  4.5338855E-04  5.2264627E-04  4.7127484E-04
  -5.00000  4.9226614E-04  5.7390349E-04  5.1414490E-04
  -4.00000  5.3772718E-04  6.3531455E-04  5.6473442E-04
  -3.00000  5.9156952E-04  7.1011592E-04  6.2528919E-04
  -2.00000  6.5632490E-04  8.0306361E-04  6.9903116E-04
  -1.00000  7.3569441E-04  9.2144886E-04  7.9077342E-04
   0.00000  8.3535955E-04  1.0770760E-03  9.0809417E-04
   1.00000  9.6464811E-04  1.2905186E-03  1.0638161E-03
   2.00000  1.1404754E-03  1.6016692E-03  1.2820499E-03
   3.00000  1.3989456E-03  2.1021830E-03  1.6165199E-03
   4.00000  1.8441845E-03  3.0769086E-03  2.2295088E-03
   5.00000  2.8988411E-03  5.7406149E-03  3.8167013E-03
   5.20000  3.2278470E-03  6.6039127E-03  4.3421650E-03
   5.40000  3.5738450E-03  7.5118589E-03  4.9060492E-03
   5.60000  3.9313051E-03  8.4514920E-03  5.4874746E-03
   5.80000  4.3038760E-03  9.4336650E-03  6.0694761E-03
   6.00000  4.6981807E-03  1.0470506E-02  6.6355031E-03
   6.20000  5.1208624E-03  1.1565723E-02  7.1752641E-03
   6.40000  5.5780387E-03  1.2716309E-02  7.6945101E-03
   6.60000  6.0755105E-03  1.3919251E-02  8.2192564E-03
   6.80000  6.6190260E-03  1.5177907E-02  8.7906018E-03
   7.00000  7.2143659E-03  1.6505186E-02  9.4543176E-03
   7.20000  7.8671990E-03  1.7923670E-02  1.0251505E-02
   7.40000  8.5827460E-03  1.9464034E-02  1.1212948E-02
   7.60000  9.3653034E-03  2.1162342E-02  1.2356266E-02
   7.80000  1.0217704E-02  2.3055702E-02  1.3684439E-02
   8.00000  1.1140908E-02  2.5175655E-02  1.5185502E-02
   8.20000  1.2134049E-02  2.7539516E-02  1.6834365E-02
   8.40000  1.3195313E-02  3.0141741E-02  1.8597749E-02
   8.60000  1.4323895E-02  3.2950164E-02  2.0441658E-02
   8.80000  1.5522420E-02  3.5911826E-02  2.2338242E-02
   9.00000  1.6798219E-02  3.8966927E-02  2.4267429E-02
   9.20000  1.8162045E-02  4.2060860E-02  2.6211299E-02
   9.40000  1.9624357E-02  4.5143822E-02  2.8145507E-02
   9.60000  2.1190693E-02  4.8158543E-02  3.0034790E-02
   9.80000  2.2857831E-02  5.1026547E-02  3.1835319E-02
   10.0000  2.4611476E-02  5.3641419E-02  3.3502030E-02
   10.2500  2.6884055E-02  5.6351190E-02  3.5342381E-02
   10.5000  2.9174045E-02  5.8177314E-02  3.6878751E-02
   10.7500  3.1384687E-02  5.8880376E-02  3.8108817E-02
   11.0000  3.3409859E-02  5.8339431E-02  3.9049371E-02
   11.2500  3.5151192E-02  5.6600469E-02  3.9719006E-02
   11.5000  3.6537746E-02  5.3873166E-02  4.0131389E-02
   11.7500  3.7540326E-02  5.0475489E-02  4.0299952E-02
   12.0000  3.8175501E-02  4.6752134E-02  4.0246665E-02
   12.2500  3.8499773E-02  4.3003814E-02  4.0006061E-02
   12.5000  3.8595851E-02  3.9448274E-02  3.9622576E-02
   12.7500  3.8555707E-02  3.6213933E-02  3.9144491E-02
   13.0000  3.8466144E-02  3.3355282E-02  3.8618288E-02
   13.2500  3.8399474E-02  3.0876229E-02  3.8085196E-02
   13.5000  3.8408633E-02  2.8751577E-02  3.7579623E-02
   13.7500  3.8525974E-02  2.6942798E-02  3.7128601E-02
   14.0000  3.8765144E-02  2.5408261E-02  3.6751583E-02
   14.2500  3.9124401E-02  2.4108957E-02  3.6460556E-02
   14.5000  3.9589866E-02  2.3010928E-02  3.6260609E-02
   14.7500  4.0138295E-02  2.2085757E-02  3.6150773E-02
   15.0000  4.0739414E-02  2.1310162E-02  3.6124966E-02
   15.2500  4.1358061E-02  2.0665287E-02  3.6172913E-02
   15.5000  4.1956279E-02  2.0135948E-02  3.6281025E-02
   15.7500  4.2495515E-02  1.9709930E-02  3.6433237E-02
   16.0000  4.2938965E-02  1.9377363E-02  3.6611849E-02
   16.2500  4.3254008E-02  1.9130172E-02  3.6798427E-02
   16.5000  4.3414572E-02  1.8961610E-02  3.6974782E-02
   16.7500  4.3403181E-02  1.8865875E-02  3.7124030E-02
   17.0000  4.3212396E-02  1.8837811E-02  3.7231670E-02
   17.2500  4.2845404E-02  1.8872678E-02  3.7286563E-02
   17.5000  4.2315590E-02  1.8966018E-02  3.7281662E-02
   17.7500  4.1645118E-02  1.9113560E-02  3.7214364E-02
   18.0000  4.0862722E-02  1.9311198E-02  3.7086409E-02
   18.2500  4.0001032E-02  1.9554993E-02  3.6903323E-02
   18.5000  3.9093827E-02  1.9841212E-02  3.6673517E-02
   18.7500  3.8173553E-02  2.0166372E-02  3.6407190E-02
   19.0000  3.7269362E-02  2.0527310E-02  3.6115190E-02
   19.2500  3.6405742E-02  2.0921249E-02  3.5807987E-02
   19.5000  3.5601746E-02  2.1345867E-02  3.5494843E-02
   19.7500  3.4870799E-02  2.1799268E-02  3.5183261E-02
   20.0000  3.4221143E-02  2.2279745E-02  3.4878824E-02
   21.0000  3.2482962E-02  2.4424221E-02  3.3793271E-02
   22.0000  3.1986641E-02  2.6792735E-02  3.2931788E-02
   23.0000  3.2246240E-02  2.9198593E-02  3.2165601E-02
   24.0000  3.2634204E-02  3.1393588E-02  3.1359150E-02
   25.0000  3.2629331E-02  3.3105566E-02  3.0465909E-02
   26.0000  3.2027351E-02  3.4187032E-02  2.9514070E-02
   27.0000  3.0967709E-02  3.4634613E-02  2.8572042E-02
   28.0000  2.9734870E-02  3.4548279E-02  2.7716874E-02
   29.0000  2.8557111E-02  3.4077428E-02  2.7004981E-02
   30.0000  2.7542451E-02  3.3368761E-02  2.6453071E-02
   31.0000  2.6706237E-02  3.2535816E-02  2.6037771E-02
   32.0000  2.6015683E-02  3.1649606E-02  2.5709694E-02
   33.0000  2.5422134E-02  3.0742894E-02  2.5410738E-02
   34.0000  2.4880203E-02  2.9823233E-02  2.5086702E-02
   35.0000  2.4357493E-02  2.8888409E-02  2.4693931E-02
   36.0000  2.3838981E-02  2.7939925E-02  2.4204279E-02
   37.0000  2.3328242E-02  2.6992425E-02  2.3612310E-02
   38.0000  2.2845304E-02  2.6078973E-02  2.2945057E-02
   39.0000  2.2420947E-02  2.5254569E-02  2.2271291E-02
   40.0000  2.2086876E-02  2.4592741E-02  2.1695163E-02
