    Energy   (100,001)      (010,001)      (001,110)   
  -25.0000  1.7620936E-04  1.8274625E-04  1.8022786E-04
  -24.0000  1.8262800E-04  1.8969340E-04  1.8697004E-04
  -23.0000  1.8948735E-04  1.9714262E-04  1.9418992E-04
  -22.0000  1.9683306E-04  2.0514891E-04  2.0193869E-04
  -21.0000  2.0471721E-04  2.1377553E-04  2.1027502E-04
  -20.0000  2.1319950E-04  2.2309550E-04  2.1926646E-04
  -19.0000  2.2234866E-04  2.3319362E-04  2.2899118E-04
  -18.0000  2.3224420E-04  2.4416886E-04  2.3954013E-04
  -17.0000  2.4297864E-04  2.5613747E-04  2.5101973E-04
  -16.0000  2.5466025E-04  2.6923681E-04  2.6355529E-04
  -15.0000  2.6741649E-04  2.8363040E-04  2.7729537E-04
  -14.0000  2.8139854E-04  2.9951429E-04  2.9241742E-04
  -13.0000  2.9678695E-04  3.1712556E-04  3.0913506E-04
  -12.0000  3.1379921E-04  3.3675345E-04  3.2770785E-04
  -11.0000  3.3269966E-04  3.5875440E-04  3.4845420E-04
  -10.0000  3.5381282E-04  3.8357249E-04  3.7176905E-04
  -9.00000  3.7754164E-04  4.1176781E-04  3.9814829E-04
  -8.00000  4.0439275E-04  4.4405656E-04  4.2822320E-04
  -7.00000  4.3501238E-04  4.8136880E-04  4.6281011E-04
  -6.00000  4.7023854E-04  5.2493387E-04  5.0298380E-04
  -5.00000  5.1117882E-04  5.7641013E-04  5.5018919E-04
  -4.00000  5.5933051E-04  6.3808853E-04  6.0641729E-04
  -3.00000  6.1677311E-04  7.1322476E-04  6.7449359E-04
  -2.00000  6.8649209E-04  8.0660726E-04  7.5857518E-04
  -1.00000  7.7295666E-04  9.2558751E-04  8.6506183E-04
   0.00000  8.8323408E-04  1.0820970E-03  1.0044036E-03
   1.00000  1.0293749E-03  1.2970235E-03  1.1950874E-03
   2.00000  1.2343350E-03  1.6112100E-03  1.4738352E-03
   3.00000  1.5503800E-03  2.1200507E-03  1.9282069E-03
   4.00000  2.1409792E-03  3.1296005E-03  2.8449180E-03
   5.00000  3.7094107E-03  5.9709742E-03  5.5079092E-03
   5.20000  4.2061968E-03  6.8655903E-03  6.3778658E-03
   5.40000  4.7181248E-03  7.7648372E-03  7.2660801E-03
   5.60000  5.2347936E-03  8.6458445E-03  8.1349157E-03
   5.80000  5.7608690E-03  9.5218353E-03  8.9799041E-03
   6.00000  6.3033609E-03  1.0416500E-02  9.8169216E-03
   6.20000  6.8674183E-03  1.1352094E-02  1.0674567E-02
   6.40000  7.4579142E-03  1.2347226E-02  1.1588501E-02
   6.60000  8.0817950E-03  1.3417635E-02  1.2594203E-02
   6.80000  8.7486855E-03  1.4577634E-02  1.3719109E-02
   7.00000  9.4694403E-03  1.5841685E-02  1.4976171E-02
   7.20000  1.0253429E-02  1.7225748E-02  1.6359928E-02
   7.40000  1.1105585E-02  1.8748497E-02  1.7845144E-02
   7.60000  1.2024133E-02  2.0432591E-02  1.9387831E-02
   7.80000  1.2999756E-02  2.2305383E-02  2.0928752E-02
   8.00000  1.4017044E-02  2.4397835E-02  2.2400568E-02
   8.20000  1.5059160E-02  2.6741263E-02  2.3741274E-02
   8.40000  1.6115474E-02  2.9362408E-02  2.4914275E-02
   8.60000  1.7188932E-02  3.2277451E-02  2.5927008E-02
   8.80000  1.8297946E-02  3.5485368E-02  2.6833961E-02
   9.00000  1.9470494E-02  3.8960700E-02  2.7717896E-02
   9.20000  2.0733770E-02  4.2645660E-02  2.8659664E-02
   9.40000  2.2104976E-02  4.6442077E-02  2.9713270E-02
   9.60000  2.3586444E-02  5.0205882E-02  3.0894830E-02
   9.80000  2.5165079E-02  5.3749244E-02  3.2184299E-02
   10.0000  2.6813799E-02  5.6854738E-02  3.3533909E-02
   10.2500  2.8911798E-02  5.9788610E-02  3.5203743E-02
   10.5000  3.0960677E-02  6.1354597E-02  3.6724720E-02
   10.7500  3.2863255E-02  6.1397551E-02  3.7991588E-02
   11.0000  3.4531704E-02  5.9986200E-02  3.8954674E-02
   11.2500  3.5888373E-02  5.7375013E-02  3.9602301E-02
   11.5000  3.6879606E-02  5.3926275E-02  3.9935774E-02
   11.7500  3.7494626E-02  5.0025324E-02  3.9960186E-02
   12.0000  3.7771060E-02  4.6012084E-02  3.9691660E-02
   12.2500  3.7783666E-02  4.2141676E-02  3.9169878E-02
   12.5000  3.7623909E-02  3.8574912E-02  3.8462132E-02
   12.7500  3.7379997E-02  3.5390511E-02  3.7651236E-02
   13.0000  3.7123863E-02  3.2607739E-02  3.6815313E-02
   13.2500  3.6907467E-02  3.0209674E-02  3.6014924E-02
   13.5000  3.6764919E-02  2.8161234E-02  3.5291217E-02
   13.7500  3.6715953E-02  2.6420894E-02  3.4669109E-02
   14.0000  3.6768795E-02  2.4947414E-02  3.4160979E-02
   14.2500  3.6922135E-02  2.3703196E-02  3.3769706E-02
   14.5000  3.7166487E-02  2.2655582E-02  3.3491008E-02
   14.7500  3.7485315E-02  2.1777001E-02  3.3315257E-02
   15.0000  3.7856225E-02  2.1044564E-02  3.3228913E-02
   15.2500  3.8252384E-02  2.0439424E-02  3.3215783E-02
   15.5000  3.8644222E-02  1.9946108E-02  3.3258223E-02
   15.7500  3.9001406E-02  1.9551887E-02  3.3338348E-02
   16.0000  3.9294974E-02  1.9246242E-02  3.3439234E-02
   16.2500  3.9499458E-02  1.9020429E-02  3.3545993E-02
   16.5000  3.9594784E-02  1.8867123E-02  3.3646598E-02
   16.7500  3.9567738E-02  1.8780145E-02  3.3732322E-02
   17.0000  3.9412828E-02  1.8754241E-02  3.3797750E-02
   17.2500  3.9132441E-02  1.8784914E-02  3.3840409E-02
   17.5000  3.8736309E-02  1.8868288E-02  3.3860133E-02
   17.7500  3.8240356E-02  1.9000999E-02  3.3858329E-02
   18.0000  3.7665110E-02  1.9180112E-02  3.3837281E-02
   18.2500  3.7033882E-02  1.9403039E-02  3.3799589E-02
   18.5000  3.6370915E-02  1.9667485E-02  3.3747784E-02
   18.7500  3.5699710E-02  1.9971402E-02  3.3684104E-02
   19.0000  3.5041638E-02  2.0312962E-02  3.3610402E-02
   19.2500  3.4414888E-02  2.0690568E-02  3.3528127E-02
   19.5000  3.3833779E-02  2.1102855E-02  3.3438350E-02
   19.7500  3.3308438E-02  2.1548647E-02  3.3341815E-02
   20.0000  3.2844949E-02  2.2026697E-02  3.3239021E-02
   21.0000  3.1631030E-02  2.4214700E-02  3.2772124E-02
   22.0000  3.1276930E-02  2.6695528E-02  3.2223102E-02
   23.0000  3.1351255E-02  2.9237588E-02  3.1591713E-02
   24.0000  3.1444240E-02  3.1565022E-02  3.0880712E-02
   25.0000  3.1361423E-02  3.3398487E-02  3.0103375E-02
   26.0000  3.1107191E-02  3.4538346E-02  2.9292692E-02
   27.0000  3.0707391E-02  3.4969271E-02  2.8495100E-02
   28.0000  3.0163628E-02  3.4818860E-02  2.7774571E-02
   29.0000  2.9514267E-02  3.4272262E-02  2.7191913E-02
   30.0000  2.8841060E-02  3.3506700E-02  2.6773712E-02
   31.0000  2.8216119E-02  3.2652769E-02  2.6502729E-02
   32.0000  2.7668665E-02  3.1783730E-02  2.6331499E-02
   33.0000  2.7190791E-02  3.0924577E-02  2.6203338E-02
   34.0000  2.6756031E-02  3.0069218E-02  2.6066796E-02
   35.0000  2.6334513E-02  2.9198639E-02  2.5882312E-02
   36.0000  2.5902911E-02  2.8297127E-02  2.5625650E-02
   37.0000  2.5451409E-02  2.7365554E-02  2.5291546E-02
   38.0000  2.4989104E-02  2.6431970E-02  2.4898067E-02
   39.0000  2.4547959E-02  2.5559960E-02  2.4490547E-02
   40.0000  2.4179936E-02  2.4844723E-02  2.4137567E-02
