    Energy   (100,001)      (010,001)      (001,110)   
  -25.0000  1.6256238E-04  1.8161415E-04  1.6452544E-04
  -24.0000  1.6871706E-04  1.8862783E-04  1.7080956E-04
  -23.0000  1.7529987E-04  1.9615541E-04  1.7753569E-04
  -22.0000  1.8235510E-04  2.0425390E-04  1.8475013E-04
  -21.0000  1.8993326E-04  2.1298890E-04  1.9250575E-04
  -20.0000  1.9809215E-04  2.2243632E-04  2.0086318E-04
  -19.0000  2.0689820E-04  2.3268440E-04  2.0989225E-04
  -18.0000  2.1642819E-04  2.4383635E-04  2.1967378E-04
  -17.0000  2.2677126E-04  2.5601356E-04  2.3030187E-04
  -16.0000  2.3803151E-04  2.6935982E-04  2.4188665E-04
  -15.0000  2.5033126E-04  2.8404657E-04  2.5455786E-04
  -14.0000  2.6381514E-04  3.0027987E-04  2.6846939E-04
  -13.0000  2.7865543E-04  3.1830946E-04  2.8380508E-04
  -12.0000  2.9505894E-04  3.3844079E-04  3.0078646E-04
  -11.0000  3.1327609E-04  3.6105130E-04  3.1968278E-04
  -10.0000  3.3361299E-04  3.8661261E-04  3.4082468E-04
  -9.00000  3.5644786E-04  4.1572145E-04  3.6462272E-04
  -8.00000  3.8225362E-04  4.4914341E-04  3.9159317E-04
  -7.00000  4.1162965E-04  4.8787644E-04  4.2239468E-04
  -6.00000  4.4534742E-04  5.3324493E-04  4.5788150E-04
  -5.00000  4.8441798E-04  5.8704326E-04  4.9918312E-04
  -4.00000  5.3019451E-04  6.5176207E-04  5.4782731E-04
  -3.00000  5.8453457E-04  7.3095897E-04  6.0593804E-04
  -2.00000  6.5006856E-04  8.2989491E-04  6.7656945E-04
  -1.00000  7.3067060E-04  9.5669257E-04  7.6430522E-04
   0.00000  8.3234987E-04  1.1246088E-03  8.7642247E-04
   1.00000  9.6512339E-04  1.3569660E-03  1.0254052E-03
   2.00000  1.1475878E-03  1.6995032E-03  1.2352482E-03
   3.00000  1.4209703E-03  2.2588922E-03  1.5612450E-03
   4.00000  1.9115900E-03  3.3740181E-03  2.1785525E-03
   5.00000  3.1568601E-03  6.5090494E-03  3.8551071E-03
   5.20000  3.5421481E-03  7.5093753E-03  4.3994451E-03
   5.40000  3.9328097E-03  8.5295783E-03  4.9676631E-03
   5.60000  4.3185567E-03  9.5431817E-03  5.5442266E-03
   5.80000  4.7024340E-03  1.0560364E-02  6.1278337E-03
   6.00000  5.0911942E-03  1.1603906E-02  6.7206344E-03
   6.20000  5.4912336E-03  1.2699208E-02  7.3244334E-03
   6.40000  5.9085522E-03  1.3873863E-02  7.9412447E-03
   6.60000  6.3498386E-03  1.5159289E-02  8.5740064E-03
   6.80000  6.8233159E-03  1.6591533E-02  9.2260043E-03
   7.00000  7.3388635E-03  1.8210579E-02  9.8997257E-03
   7.20000  7.9074440E-03  2.0058019E-02  1.0596595E-02
   7.40000  8.5402116E-03  2.2172787E-02  1.1318112E-02
   7.60000  9.2477406E-03  2.4584447E-02  1.2067324E-02
   7.80000  1.0039632E-02  2.7303977E-02  1.2848988E-02
   8.00000  1.0924495E-02  3.0313829E-02  1.3667867E-02
   8.20000  1.1910024E-02  3.3561817E-02  1.4526514E-02
   8.40000  1.3002849E-02  3.6965408E-02  1.5424984E-02
   8.60000  1.4208174E-02  4.0429763E-02  1.6363541E-02
   8.80000  1.5529319E-02  4.3871151E-02  1.7346549E-02
   9.00000  1.6967060E-02  4.7226955E-02  1.8384071E-02
   9.20000  1.8518579E-02  5.0440840E-02  1.9489535E-02
   9.40000  2.0176117E-02  5.3433201E-02  2.0675281E-02
   9.60000  2.1925886E-02  5.6080026E-02  2.1949003E-02
   9.80000  2.3747784E-02  5.8216943E-02  2.3312513E-02
   10.0000  2.5615737E-02  5.9668403E-02  2.4761973E-02
   10.2500  2.7966410E-02  6.0302525E-02  2.6679926E-02
   10.5000  3.0265054E-02  5.9514959E-02  2.8687258E-02
   10.7500  3.2429034E-02  5.7407219E-02  3.0742601E-02
   11.0000  3.4375298E-02  5.4282857E-02  3.2792886E-02
   11.2500  3.6033252E-02  5.0544897E-02  3.4771097E-02
   11.5000  3.7357734E-02  4.6583061E-02  3.6598136E-02
   11.7500  3.8337150E-02  4.2702227E-02  3.8192731E-02
   12.0000  3.8994612E-02  3.9100347E-02  3.9486445E-02
   12.2500  3.9380201E-02  3.5879074E-02  4.0438591E-02
   12.5000  3.9557709E-02  3.3068890E-02  4.1045469E-02
   12.7500  3.9592136E-02  3.0656001E-02  4.1340121E-02
   13.0000  3.9541284E-02  2.8603715E-02  4.1382562E-02
   13.2500  3.9451592E-02  2.6867045E-02  4.1245135E-02
   13.5000  3.9357368E-02  2.5401505E-02  4.0999557E-02
   13.7500  3.9282070E-02  2.4167180E-02  4.0708860E-02
   14.0000  3.9240020E-02  2.3129923E-02  4.0423653E-02
   14.2500  3.9237646E-02  2.2261289E-02  4.0181142E-02
   14.5000  3.9274204E-02  2.1537962E-02  4.0005716E-02
   14.7500  3.9342301E-02  2.0941016E-02  3.9910239E-02
   15.0000  3.9428607E-02  2.0455138E-02  3.9897499E-02
   15.2500  3.9515043E-02  2.0067918E-02  3.9961552E-02
   15.5000  3.9580612E-02  1.9769232E-02  4.0088992E-02
   15.7500  3.9603803E-02  1.9550727E-02  4.0260347E-02
   16.0000  3.9565345E-02  1.9405415E-02  4.0451815E-02
   16.2500  3.9450899E-02  1.9327352E-02  4.0637483E-02
   16.5000  3.9253192E-02  1.9311398E-02  4.0791931E-02
   16.7500  3.8973149E-02  1.9353024E-02  4.0892927E-02
   17.0000  3.8619783E-02  1.9448183E-02  4.0923754E-02
   17.2500  3.8208892E-02  1.9593205E-02  4.0874705E-02
   17.5000  3.7760911E-02  1.9784733E-02  4.0743462E-02
   17.7500  3.7298380E-02  2.0019673E-02  4.0534391E-02
   18.0000  3.6843544E-02  2.0295158E-02  4.0256999E-02
   18.2500  3.6416422E-02  2.0608526E-02  3.9924003E-02
   18.5000  3.6033534E-02  2.0957302E-02  3.9549429E-02
   18.7500  3.5707280E-02  2.1339183E-02  3.9147022E-02
   19.0000  3.5445864E-02  2.1752053E-02  3.8729116E-02
   19.2500  3.5253586E-02  2.2194008E-02  3.8305949E-02
   19.5000  3.5131340E-02  2.2663393E-02  3.7885342E-02
   19.7500  3.5077133E-02  2.3158756E-02  3.7472693E-02
   20.0000  3.5086493E-02  2.3678588E-02  3.7071282E-02
   21.0000  3.5603352E-02  2.5948771E-02  3.5601575E-02
   22.0000  3.6421812E-02  2.8355315E-02  3.4321093E-02
   23.0000  3.6906400E-02  3.0642419E-02  3.3115404E-02
   24.0000  3.6576315E-02  3.2524371E-02  3.1883785E-02
   25.0000  3.5314334E-02  3.3755571E-02  3.0594250E-02
   26.0000  3.3412997E-02  3.4227039E-02  2.9297191E-02
   27.0000  3.1325505E-02  3.4026859E-02  2.8085241E-02
   28.0000  2.9406104E-02  3.3361441E-02  2.7053952E-02
   29.0000  2.7812511E-02  3.2448574E-02  2.6254799E-02
   30.0000  2.6550177E-02  3.1453082E-02  2.5672639E-02
   31.0000  2.5554633E-02  3.0470119E-02  2.5243868E-02
   32.0000  2.4745991E-02  2.9539005E-02  2.4888210E-02
   33.0000  2.4052189E-02  2.8666127E-02  2.4531552E-02
   34.0000  2.3416458E-02  2.7844561E-02  2.4116724E-02
   35.0000  2.2799791E-02  2.7065416E-02  2.3608324E-02
   36.0000  2.2182488E-02  2.6321074E-02  2.2996634E-02
   37.0000  2.1565031E-02  2.5605662E-02  2.2301562E-02
   38.0000  2.0967841E-02  2.4920890E-02  2.1574376E-02
   39.0000  2.0429072E-02  2.4291034E-02  2.0892714E-02
   40.0000  1.9995667E-02  2.3772293E-02  2.0340696E-02
