    Energy   (100,001)      (010,001)      (001,110)   
  -25.0000  1.7083409E-04  1.8696548E-04  1.8117967E-04
  -24.0000  1.7679563E-04  1.9396850E-04  1.8735657E-04
  -23.0000  1.8314820E-04  2.0147270E-04  1.9393523E-04
  -22.0000  1.8993056E-04  2.0953262E-04  2.0095536E-04
  -21.0000  1.9718671E-04  2.1821094E-04  2.0846204E-04
  -20.0000  2.0496683E-04  2.2757997E-04  2.1650663E-04
  -19.0000  2.1332837E-04  2.3772364E-04  2.2514791E-04
  -18.0000  2.2233747E-04  2.4873985E-04  2.3445351E-04
  -17.0000  2.3207061E-04  2.6074351E-04  2.4450160E-04
  -16.0000  2.4261676E-04  2.7387036E-04  2.5538302E-04
  -15.0000  2.5408005E-04  2.8828186E-04  2.6720399E-04
  -14.0000  2.6658316E-04  3.0417155E-04  2.8008951E-04
  -13.0000  2.8027170E-04  3.2177336E-04  2.9418770E-04
  -12.0000  2.9531984E-04  3.4137262E-04  3.0967549E-04
  -11.0000  3.1193783E-04  3.6332090E-04  3.2676600E-04
  -10.0000  3.3038197E-04  3.8805626E-04  3.4571841E-04
  -9.00000  3.5096824E-04  4.1613136E-04  3.6685135E-04
  -8.00000  3.7409110E-04  4.4825332E-04  3.9056128E-04
  -7.00000  4.0025026E-04  4.8534141E-04  4.1734839E-04
  -6.00000  4.3008933E-04  5.2861274E-04  4.4785402E-04
  -5.00000  4.6445390E-04  5.7971318E-04  4.8291604E-04
  -4.00000  5.0448114E-04  6.4092457E-04  5.2365421E-04
  -3.00000  5.5174476E-04  7.1550612E-04  5.7160669E-04
  -2.00000  6.0850123E-04  8.0828601E-04  6.2896080E-04
  -1.00000  6.7813690E-04  9.2675289E-04  6.9896909E-04
   0.00000  7.6605190E-04  1.0832395E-03  7.8676828E-04
   1.00000  8.8162043E-04  1.2997944E-03  9.0119093E-04
   2.00000  1.0433077E-03  1.6208627E-03  1.0594929E-03
   3.00000  1.2957112E-03  2.1548999E-03  1.3031079E-03
   4.00000  1.7923641E-03  3.2710385E-03  1.7740606E-03
   5.00000  3.2269596E-03  6.6400901E-03  3.1193302E-03
   5.20000  3.6492394E-03  7.6911841E-03  3.5251832E-03
   5.40000  4.0373111E-03  8.7092798E-03  3.9101091E-03
   5.60000  4.3790541E-03  9.6575302E-03  4.2609474E-03
   5.80000  4.6872486E-03  1.0550702E-02  4.5830251E-03
   6.00000  4.9801588E-03  1.1420348E-02  4.8843712E-03
   6.20000  5.2733095E-03  1.2298427E-02  5.1702845E-03
   6.40000  5.5785788E-03  1.3213163E-02  5.4441669E-03
   6.60000  5.9053018E-03  1.4187814E-02  5.7096172E-03
   6.80000  6.2614186E-03  1.5239702E-02  5.9718315E-03
   7.00000  6.6542267E-03  1.6379816E-02  6.2379111E-03
   7.20000  7.0907808E-03  1.7613803E-02  6.5164004E-03
   7.40000  7.5780612E-03  1.8944089E-02  6.8165987E-03
   7.60000  8.1229643E-03  2.0371922E-02  7.1480185E-03
   7.80000  8.7321705E-03  2.1898919E-02  7.5200927E-03
   8.00000  9.4119101E-03  2.3528253E-02  7.9420492E-03
   8.20000  1.0167557E-02  2.5265471E-02  8.4228119E-03
   8.40000  1.1002942E-02  2.7118707E-02  8.9708101E-03
   8.60000  1.1919268E-02  2.9097952E-02  9.5936294E-03
   8.80000  1.2913603E-02  3.1213047E-02  1.0297485E-02
   9.00000  1.3977045E-02  3.3470076E-02  1.1086540E-02
   9.20000  1.5092913E-02  3.5866145E-02  1.1962131E-02
   9.40000  1.6235625E-02  3.8382947E-02  1.2922054E-02
   9.60000  1.7371113E-02  4.0980216E-02  1.3960130E-02
   9.80000  1.8459646E-02  4.3590815E-02  1.5066271E-02
   10.0000  1.9461150E-02  4.6119444E-02  1.6227119E-02
   10.2500  2.0540504E-02  4.8981932E-02  1.7731362E-02
   10.5000  2.1395790E-02  5.1275378E-02  1.9265725E-02
   10.7500  2.2030996E-02  5.2777614E-02  2.0803153E-02
   11.0000  2.2483742E-02  5.3357703E-02  2.2322812E-02
   11.2500  2.2807989E-02  5.3010162E-02  2.3809611E-02
   11.5000  2.3057381E-02  5.1848023E-02  2.5253397E-02
   11.7500  2.3274647E-02  5.0059515E-02  2.6646684E-02
   12.0000  2.3489011E-02  4.7855385E-02  2.7981746E-02
   12.2500  2.3719247E-02  4.5429681E-02  2.9250205E-02
   12.5000  2.3977601E-02  4.2938838E-02  3.0444400E-02
   12.7500  2.4272640E-02  4.0495639E-02  3.1558901E-02
   13.0000  2.4611619E-02  3.8172819E-02  3.2591674E-02
   13.2500  2.5002262E-02  3.6011310E-02  3.3544372E-02
   13.5000  2.5453467E-02  3.4029643E-02  3.4421843E-02
   13.7500  2.5974716E-02  3.2232173E-02  3.5231486E-02
   14.0000  2.6573672E-02  3.0614975E-02  3.5982491E-02
   14.2500  2.7253765E-02  2.9169626E-02  3.6684821E-02
   14.5000  2.8014032E-02  2.7885598E-02  3.7348107E-02
   14.7500  2.8850187E-02  2.6751721E-02  3.7980705E-02
   15.0000  2.9755212E-02  2.5756972E-02  3.8589005E-02
   15.2500  3.0719250E-02  2.4890862E-02  3.9176998E-02
   15.5000  3.1729276E-02  2.4143576E-02  3.9746032E-02
   15.7500  3.2768895E-02  2.3506013E-02  4.0294723E-02
   16.0000  3.3818479E-02  2.2969774E-02  4.0818978E-02
   16.2500  3.4855747E-02  2.2527128E-02  4.1312177E-02
   16.5000  3.5856834E-02  2.2170962E-02  4.1765516E-02
   16.7500  3.6797821E-02  2.1894720E-02  4.2168579E-02
   17.0000  3.7656561E-02  2.1692335E-02  4.2510145E-02
   17.2500  3.8414599E-02  2.1558149E-02  4.2779180E-02
   17.5000  3.9058861E-02  2.1486857E-02  4.2965940E-02
   17.7500  3.9582828E-02  2.1473458E-02  4.3063025E-02
   18.0000  3.9986969E-02  2.1513236E-02  4.3066229E-02
   18.2500  4.0278370E-02  2.1601755E-02  4.2975054E-02
   18.5000  4.0469631E-02  2.1734872E-02  4.2792799E-02
   18.7500  4.0577269E-02  2.1908770E-02  4.2526232E-02
   19.0000  4.0619902E-02  2.2119986E-02  4.2184886E-02
   19.2500  4.0616484E-02  2.2365459E-02  4.1780089E-02
   19.5000  4.0584785E-02  2.2642565E-02  4.1323891E-02
   19.7500  4.0540287E-02  2.2949096E-02  4.0828107E-02
   20.0000  4.0495593E-02  2.3283072E-02  4.0303825E-02
   21.0000  4.0473043E-02  2.4846840E-02  3.8122911E-02
   22.0000  4.0808174E-02  2.6664084E-02  3.6129285E-02
   23.0000  4.1277795E-02  2.8596629E-02  3.4444369E-02
   24.0000  4.1437217E-02  3.0477861E-02  3.3010188E-02
   25.0000  4.0863371E-02  3.2107023E-02  3.1746720E-02
   26.0000  3.9385282E-02  3.3296341E-02  3.0613261E-02
   27.0000  3.7194283E-02  3.3945201E-02  2.9612193E-02
   28.0000  3.4715820E-02  3.4076966E-02  2.8767362E-02
   29.0000  3.2356419E-02  3.3807871E-02  2.8097770E-02
   30.0000  3.0350024E-02  3.3282924E-02  2.7602269E-02
   31.0000  2.8761785E-02  3.2624518E-02  2.7261234E-02
   32.0000  2.7558610E-02  3.1911200E-02  2.7046572E-02
   33.0000  2.6664879E-02  3.1186547E-02  2.6930137E-02
   34.0000  2.5994948E-02  3.0471550E-02  2.6887098E-02
   35.0000  2.5482142E-02  2.9756198E-02  2.6894995E-02
   36.0000  2.5080908E-02  2.9017532E-02  2.6932883E-02
   37.0000  2.4759635E-02  2.8242539E-02  2.6980696E-02
   38.0000  2.4497081E-02  2.7443497E-02  2.7020187E-02
   39.0000  2.4281113E-02  2.6672943E-02  2.7039880E-02
   40.0000  2.4109410E-02  2.6026042E-02  2.7041983E-02
