    Energy   (100,001)      (010,001)      (001,110)   
  -25.0000  1.6932804E-04  1.8742352E-04  1.7175771E-04
  -24.0000  1.7574068E-04  1.9442699E-04  1.7842675E-04
  -23.0000  1.8260379E-04  2.0193225E-04  1.8557699E-04
  -22.0000  1.8996462E-04  2.0999405E-04  1.9326037E-04
  -21.0000  1.9787714E-04  2.1867534E-04  2.0153645E-04
  -20.0000  2.0640321E-04  2.2804878E-04  2.1047377E-04
  -19.0000  2.1561411E-04  2.3819873E-04  2.2015167E-04
  -18.0000  2.2559237E-04  2.4922364E-04  2.3066247E-04
  -17.0000  2.3643402E-04  2.6123910E-04  2.4211412E-04
  -16.0000  2.4825152E-04  2.7438171E-04  2.5463375E-04
  -15.0000  2.6117729E-04  2.8881404E-04  2.6837197E-04
  -14.0000  2.7536838E-04  3.0473098E-04  2.8350859E-04
  -13.0000  2.9101238E-04  3.2236820E-04  3.0025992E-04
  -12.0000  3.0833518E-04  3.4201318E-04  3.1888852E-04
  -11.0000  3.2761121E-04  3.6402019E-04  3.3971612E-04
  -10.0000  3.4917708E-04  3.8883059E-04  3.6314119E-04
  -9.00000  3.7345028E-04  4.1700107E-04  3.8966320E-04
  -8.00000  4.0095484E-04  4.4924344E-04  4.1991663E-04
  -7.00000  4.3235772E-04  4.8648216E-04  4.5471985E-04
  -6.00000  4.6852119E-04  5.2993920E-04  4.9514704E-04
  -5.00000  5.1058050E-04  5.8126303E-04  5.4263699E-04
  -4.00000  5.6006237E-04  6.4273098E-04  5.9916338E-04
  -3.00000  6.1907280E-04  7.1757911E-04  6.6751200E-04
  -2.00000  6.9060827E-04  8.1056578E-04  7.5175481E-04
  -1.00000  7.7910123E-04  9.2899209E-04  8.5811098E-04
   0.00000  8.9144982E-04  1.0846939E-03  9.9663948E-04
   1.00000  1.0391668E-03  1.2983450E-03  1.1849383E-03
   2.00000  1.2435648E-03  1.6101952E-03  1.4575462E-03
   3.00000  1.5514164E-03  2.1134933E-03  1.8960061E-03
   4.00000  2.1031397E-03  3.1031275E-03  2.7675594E-03
   5.00000  3.4811474E-03  5.8503513E-03  5.2452989E-03
   5.20000  3.9037590E-03  6.7234392E-03  6.0023613E-03
   5.40000  4.3337688E-03  7.6137023E-03  6.7308519E-03
   5.60000  4.7639538E-03  8.4992745E-03  7.4090313E-03
   5.80000  5.2027547E-03  9.3906844E-03  8.0623116E-03
   6.00000  5.6630738E-03  1.0309229E-02  8.7353828E-03
   6.20000  6.1571871E-03  1.1276676E-02  9.4725898E-03
   6.40000  6.6958137E-03  1.2312803E-02  1.0309177E-02
   6.60000  7.2883170E-03  1.3435523E-02  1.1269655E-02
   6.80000  7.9429500E-03  1.4661806E-02  1.2369440E-02
   7.00000  8.6669710E-03  1.6008734E-02  1.3616617E-02
   7.20000  9.4667135E-03  1.7494375E-02  1.5012081E-02
   7.40000  1.0347761E-02  1.9138287E-02  1.6547831E-02
   7.60000  1.1315362E-02  2.0961410E-02  1.8204535E-02
   7.80000  1.2375116E-02  2.2985138E-02  1.9950581E-02
   8.00000  1.3533770E-02  2.5229529E-02  2.1745172E-02
   8.20000  1.4799722E-02  2.7710803E-02  2.3546549E-02
   8.40000  1.6182807E-02  3.0438325E-02  2.5322813E-02
   8.60000  1.7693130E-02  3.3411193E-02  2.7059235E-02
   8.80000  1.9339008E-02  3.6614412E-02  2.8756312E-02
   9.00000  2.1124076E-02  4.0014204E-02  3.0418411E-02
   9.20000  2.3044181E-02  4.3550933E-02  3.2040159E-02
   9.40000  2.5085026E-02  4.7129392E-02  3.3599690E-02
   9.60000  2.7220630E-02  5.0610292E-02  3.5062032E-02
   9.80000  2.9412336E-02  5.3809700E-02  3.6388892E-02
   10.0000  3.1608650E-02  5.6512954E-02  3.7548326E-02
   10.2500  3.4263801E-02  5.8869638E-02  3.8732286E-02
   10.5000  3.6691074E-02  5.9800473E-02  3.9610216E-02
   10.7500  3.8762261E-02  5.9207953E-02  4.0190336E-02
   11.0000  4.0382046E-02  5.7251912E-02  4.0489893E-02
   11.2500  4.1505021E-02  5.4281397E-02  4.0531003E-02
   11.5000  4.2140637E-02  5.0711938E-02  4.0345254E-02
   11.7500  4.2347313E-02  4.6919157E-02  3.9973706E-02
   12.0000  4.2217011E-02  4.3183610E-02  3.9462786E-02
   12.2500  4.1854359E-02  3.9683010E-02  3.8860732E-02
   12.5000  4.1358001E-02  3.6510881E-02  3.8215086E-02
   12.7500  4.0809486E-02  3.3701781E-02  3.7570774E-02
   13.0000  4.0269393E-02  3.1253273E-02  3.6967158E-02
   13.2500  3.9778044E-02  2.9142286E-02  3.6434943E-02
   13.5000  3.9358724E-02  2.7336283E-02  3.5995394E-02
   13.7500  3.9021719E-02  2.5800203E-02  3.5661286E-02
   14.0000  3.8767937E-02  2.4500308E-02  3.5438148E-02
   14.2500  3.8591412E-02  2.3405964E-02  3.5325612E-02
   14.5000  3.8481071E-02  2.2490254E-02  3.5318573E-02
   14.7500  3.8422454E-02  2.1729985E-02  3.5407791E-02
   15.0000  3.8399392E-02  2.1105419E-02  3.5580169E-02
   15.2500  3.8395432E-02  2.0599871E-02  3.5819133E-02
   15.5000  3.8394938E-02  2.0199279E-02  3.6105283E-02
   15.7500  3.8383975E-02  1.9891782E-02  3.6417323E-02
   16.0000  3.8351013E-02  1.9667349E-02  3.6733224E-02
   16.2500  3.8287493E-02  1.9517446E-02  3.7031544E-02
   16.5000  3.8188253E-02  1.9434756E-02  3.7292796E-02
   16.7500  3.8051783E-02  1.9412937E-02  3.7500689E-02
   17.0000  3.7880263E-02  1.9446420E-02  3.7643092E-02
   17.2500  3.7679305E-02  1.9530248E-02  3.7712585E-02
   17.5000  3.7457404E-02  1.9659942E-02  3.7706545E-02
   17.7500  3.7225110E-02  1.9831413E-02  3.7626779E-02
   18.0000  3.6994021E-02  2.0040894E-02  3.7478821E-02
   18.2500  3.6775716E-02  2.0284911E-02  3.7270987E-02
   18.5000  3.6580746E-02  2.0560272E-02  3.7013357E-02
   18.7500  3.6417796E-02  2.0864090E-02  3.6716789E-02
   19.0000  3.6293077E-02  2.1193824E-02  3.6392028E-02
   19.2500  3.6209980E-02  2.1547341E-02  3.6048986E-02
   19.5000  3.6168962E-02  2.1922997E-02  3.5696188E-02
   19.7500  3.6167584E-02  2.2319639E-02  3.5340442E-02
   20.0000  3.6200571E-02  2.2736444E-02  3.4986840E-02
   21.0000  3.6483726E-02  2.4583904E-02  3.3655009E-02
   22.0000  3.6445741E-02  2.6665251E-02  3.2488655E-02
   23.0000  3.5512474E-02  2.8863528E-02  3.1402170E-02
   24.0000  3.3663687E-02  3.0949133E-02  3.0300701E-02
   25.0000  3.1365930E-02  3.2686013E-02  2.9152218E-02
   26.0000  2.9157918E-02  3.3892700E-02  2.7999900E-02
   27.0000  2.7347193E-02  3.4499547E-02  2.6934525E-02
   28.0000  2.5997417E-02  3.4567135E-02  2.6042107E-02
   29.0000  2.5045930E-02  3.4237116E-02  2.5362264E-02
   30.0000  2.4396946E-02  3.3662545E-02  2.4881092E-02
   31.0000  2.3960263E-02  3.2961398E-02  2.4549814E-02
   32.0000  2.3657823E-02  3.2203214E-02  2.4307052E-02
   33.0000  2.3421149E-02  3.1418147E-02  2.4093052E-02
   34.0000  2.3191651E-02  3.0614999E-02  2.3855861E-02
   35.0000  2.2926116E-02  2.9798080E-02  2.3554196E-02
   36.0000  2.2604012E-02  2.8977445E-02  2.3162233E-02
   37.0000  2.2231388E-02  2.8172062E-02  2.2677661E-02
   38.0000  2.1837865E-02  2.7409358E-02  2.2130244E-02
   39.0000  2.1467534E-02  2.6728341E-02  2.1584590E-02
   40.0000  2.1165843E-02  2.6183337E-02  2.1125420E-02
