    Energy   (100,001)      (010,001)      (001,110)   
  -25.0000  1.6520452E-04  1.7926639E-04  1.7197712E-04
  -24.0000  1.7129363E-04  1.8627863E-04  1.7839102E-04
  -23.0000  1.7779722E-04  1.9380710E-04  1.8525185E-04
  -22.0000  1.8475736E-04  2.0190911E-04  1.9260641E-04
  -21.0000  1.9222190E-04  2.1065060E-04  2.0050819E-04
  -20.0000  2.0024548E-04  2.2010782E-04  2.0901857E-04
  -19.0000  2.0889075E-04  2.3036941E-04  2.1820830E-04
  -18.0000  2.1822992E-04  2.4153900E-04  2.2815943E-04
  -17.0000  2.2834663E-04  2.5373843E-04  2.3896756E-04
  -16.0000  2.3933824E-04  2.6711195E-04  2.5074479E-04
  -15.0000  2.5131880E-04  2.8183147E-04  2.6362346E-04
  -14.0000  2.6442276E-04  2.9810349E-04  2.7776086E-04
  -13.0000  2.7880969E-04  3.1617811E-04  2.9334547E-04
  -12.0000  2.9467046E-04  3.3636099E-04  3.1060507E-04
  -11.0000  3.1223528E-04  3.5902947E-04  3.2981762E-04
  -10.0000  3.3178438E-04  3.8465459E-04  3.5132595E-04
  -9.00000  3.5366251E-04  4.1383161E-04  3.7555801E-04
  -8.00000  3.7829862E-04  4.4732327E-04  4.0305542E-04
  -7.00000  4.0623368E-04  4.8612229E-04  4.3451442E-04
  -6.00000  4.3816022E-04  5.3154383E-04  4.7084648E-04
  -5.00000  4.7498056E-04  5.8536627E-04  5.1327048E-04
  -4.00000  5.1789500E-04  6.5005262E-04  5.6345841E-04
  -3.00000  5.6854057E-04  7.2911215E-04  6.2377578E-04
  -2.00000  6.2921958E-04  8.2771993E-04  6.9770029E-04
  -1.00000  7.0329895E-04  9.5384156E-04  7.9060161E-04
   0.00000  7.9596359E-04  1.1204356E-03  9.1132500E-04
   1.00000  9.1579549E-04  1.3502279E-03  1.0757977E-03
   2.00000  1.0786245E-03  1.6876755E-03  1.3166524E-03
   3.00000  1.3193745E-03  2.2363836E-03  1.7156044E-03
   4.00000  1.7449434E-03  3.3264168E-03  2.5587328E-03
   5.00000  2.8047415E-03  6.3909040E-03  5.2157228E-03
   5.20000  3.1239045E-03  7.3682401E-03  6.1140841E-03
   5.40000  3.4428547E-03  8.3625303E-03  7.0287854E-03
   5.60000  3.7572022E-03  9.3445670E-03  7.8948112E-03
   5.80000  4.0758492E-03  1.0319520E-02  8.6653923E-03
   6.00000  4.4102901E-03  1.1305121E-02  9.3057644E-03
   6.20000  4.7693917E-03  1.2324040E-02  9.7995070E-03
   6.40000  5.1584277E-03  1.3404074E-02  1.0160219E-02
   6.60000  5.5801620E-03  1.4577682E-02  1.0434997E-02
   6.80000  6.0366483E-03  1.5878744E-02  1.0692188E-02
   7.00000  6.5304575E-03  1.7338105E-02  1.0998574E-02
   7.20000  7.0646392E-03  1.8979955E-02  1.1398337E-02
   7.40000  7.6417949E-03  2.0820333E-02  1.1902137E-02
   7.60000  8.2632536E-03  2.2868747E-02  1.2488635E-02
   7.80000  8.9291801E-03  2.5132975E-02  1.3117885E-02
   8.00000  9.6397162E-03  2.7625116E-02  1.3752278E-02
   8.20000  1.0396454E-02  3.0365636E-02  1.4375353E-02
   8.40000  1.1203241E-02  3.3382000E-02  1.4998540E-02
   8.60000  1.2065898E-02  3.6700216E-02  1.5654158E-02
   8.80000  1.2991260E-02  4.0330041E-02  1.6381849E-02
   9.00000  1.3986090E-02  4.4245977E-02  1.7216844E-02
   9.20000  1.5055946E-02  4.8367327E-02  1.8183760E-02
   9.40000  1.6203926E-02  5.2543060E-02  1.9295017E-02
   9.60000  1.7429596E-02  5.6549624E-02  2.0551360E-02
   9.80000  1.8728403E-02  6.0109174E-02  2.1942806E-02
   10.0000  2.0091581E-02  6.2928673E-02  2.3449641E-02
   10.2500  2.1867365E-02  6.5028007E-02  2.5451260E-02
   10.5000  2.3698005E-02  6.5276160E-02  2.7515960E-02
   10.7500  2.5556149E-02  6.3691537E-02  2.9560612E-02
   11.0000  2.7409172E-02  6.0603170E-02  3.1503364E-02
   11.2500  2.9213565E-02  5.6524783E-02  3.3274780E-02
   11.5000  3.0916291E-02  5.1989536E-02  3.4823834E-02
   11.7500  3.2463171E-02  4.7431752E-02  3.6119100E-02
   12.0000  3.3809328E-02  4.3141173E-02  3.7147395E-02
   12.2500  3.4928542E-02  3.9271914E-02  3.7911908E-02
   12.5000  3.5818375E-02  3.5878553E-02  3.8429606E-02
   12.7500  3.6499662E-02  3.2954710E-02  3.8728560E-02
   13.0000  3.7010625E-02  3.0462653E-02  3.8845578E-02
   13.2500  3.7398012E-02  2.8352806E-02  3.8823493E-02
   13.5000  3.7709211E-02  2.6574550E-02  3.8707880E-02
   13.7500  3.7987000E-02  2.5080921E-02  3.8543647E-02
   14.0000  3.8266452E-02  2.3830257E-02  3.8371998E-02
   14.2500  3.8573368E-02  2.2786596E-02  3.8228030E-02
   14.5000  3.8923862E-02  2.1919525E-02  3.8139064E-02
   14.7500  3.9324722E-02  2.1203690E-02  3.8123620E-02
   15.0000  3.9774221E-02  2.0618185E-02  3.8190958E-02
   15.2500  4.0263149E-02  2.0145880E-02  3.8341083E-02
   15.5000  4.0775993E-02  1.9772797E-02  3.8565209E-02
   15.7500  4.1292245E-02  1.9487535E-02  3.8846719E-02
   16.0000  4.1787899E-02  1.9280766E-02  3.9162688E-02
   16.2500  4.2237202E-02  1.9144816E-02  3.9486015E-02
   16.5000  4.2614646E-02  1.9073318E-02  3.9788052E-02
   16.7500  4.2897128E-02  1.9060937E-02  4.0041513E-02
   17.0000  4.3066123E-02  1.9103169E-02  4.0223255E-02
   17.2500  4.3109595E-02  1.9196189E-02  4.0316489E-02
   17.5000  4.3023379E-02  1.9336735E-02  4.0312055E-02
   17.7500  4.2811759E-02  1.9522016E-02  4.0208592E-02
   18.0000  4.2487092E-02  1.9749631E-02  4.0011688E-02
   18.2500  4.2068521E-02  2.0017476E-02  3.9732299E-02
   18.5000  4.1579963E-02  2.0323674E-02  3.9384826E-02
   18.7500  4.1047723E-02  2.0666495E-02  3.8985211E-02
   19.0000  4.0498101E-02  2.1044320E-02  3.8549307E-02
   19.2500  3.9955285E-02  2.1455626E-02  3.8091634E-02
   19.5000  3.9439736E-02  2.1899000E-02  3.7624547E-02
   19.7500  3.8967196E-02  2.2373097E-02  3.7157833E-02
   20.0000  3.8548427E-02  2.2876382E-02  3.6698813E-02
   21.0000  3.7489136E-02  2.5124789E-02  3.5032237E-02
   22.0000  3.7273264E-02  2.7574598E-02  3.3719298E-02
   23.0000  3.7324805E-02  2.9969530E-02  3.2689860E-02
   24.0000  3.6947197E-02  3.2030019E-02  3.1796719E-02
   25.0000  3.5727146E-02  3.3512122E-02  3.0914598E-02
   26.0000  3.3778034E-02  3.4295295E-02  2.9993129E-02
   27.0000  3.1543718E-02  3.4438666E-02  2.9055509E-02
   28.0000  2.9445411E-02  3.4096268E-02  2.8180034E-02
   29.0000  2.7708196E-02  3.3429171E-02  2.7455024E-02
   30.0000  2.6383843E-02  3.2568869E-02  2.6928587E-02
   31.0000  2.5426468E-02  3.1609557E-02  2.6588626E-02
   32.0000  2.4747735E-02  3.0610945E-02  2.6377031E-02
   33.0000  2.4250424E-02  2.9603756E-02  2.6217011E-02
   34.0000  2.3847600E-02  2.8597360E-02  2.6034114E-02
   35.0000  2.3471303E-02  2.7589680E-02  2.5766918E-02
   36.0000  2.3075744E-02  2.6578303E-02  2.5372889E-02
   37.0000  2.2639438E-02  2.5571142E-02  2.4835351E-02
   38.0000  2.2168736E-02  2.4596174E-02  2.4175585E-02
   39.0000  2.1701884E-02  2.3710068E-02  2.3468907E-02
   40.0000  2.1303089E-02  2.2994726E-02  2.2843931E-02
