    Energy   (100,001)      (010,001)      (001,110)   
  -25.0000  1.7329915E-04  1.7448743E-04  1.7747232E-04
  -24.0000  1.7945081E-04  1.8144571E-04  1.8385410E-04
  -23.0000  1.8601305E-04  1.8892312E-04  1.9066984E-04
  -22.0000  1.9302721E-04  1.9697788E-04  1.9796416E-04
  -21.0000  2.0054028E-04  2.0567706E-04  2.0578798E-04
  -20.0000  2.0860591E-04  2.1509831E-04  2.1419958E-04
  -19.0000  2.1728567E-04  2.2533201E-04  2.2326606E-04
  -18.0000  2.2665050E-04  2.3648398E-04  2.3306498E-04
  -17.0000  2.3678258E-04  2.4867883E-04  2.4368658E-04
  -16.0000  2.4777768E-04  2.6206429E-04  2.5523639E-04
  -15.0000  2.5974806E-04  2.7681674E-04  2.6783863E-04
  -14.0000  2.7282615E-04  2.9314845E-04  2.8164057E-04
  -13.0000  2.8716939E-04  3.1131697E-04  2.9681816E-04
  -12.0000  3.0296641E-04  3.3163778E-04  3.1358330E-04
  -11.0000  3.2044520E-04  3.5450125E-04  3.3219370E-04
  -10.0000  3.3988407E-04  3.8039594E-04  3.5296595E-04
  -9.00000  3.6162651E-04  4.0994101E-04  3.7629362E-04
  -8.00000  3.8610182E-04  4.4393235E-04  4.0267243E-04
  -7.00000  4.1385420E-04  4.8340944E-04  4.3273629E-04
  -6.00000  4.4558506E-04  5.2975486E-04  4.6731014E-04
  -5.00000  4.8221604E-04  5.8484655E-04  5.0748975E-04
  -4.00000  5.2498648E-04  6.5129861E-04  5.5476663E-04
  -3.00000  5.7561040E-04  7.3285729E-04  6.1123209E-04
  -2.00000  6.3654285E-04  8.3508417E-04  6.7992885E-04
  -1.00000  7.1146215E-04  9.6660615E-04  7.6549840E-04
   0.00000  8.0622097E-04  1.1415840E-03  8.7548097E-04
   1.00000  9.3094954E-04  1.3851107E-03  1.0232497E-03
   2.00000  1.1055215E-03  1.7468584E-03  1.2358180E-03
   3.00000  1.3776068E-03  2.3440954E-03  1.5803906E-03
   4.00000  1.9090133E-03  3.5551311E-03  2.2961580E-03
   5.00000  3.4374577E-03  7.0332186E-03  4.4834879E-03
   5.20000  3.9103133E-03  8.1456468E-03  5.1203719E-03
   5.40000  4.3680964E-03  9.2755333E-03  5.6823213E-03
   5.60000  4.7923077E-03  1.0392057E-02  6.1453313E-03
   5.80000  5.1851161E-03  1.1505440E-02  6.5317405E-03
   6.00000  5.5542131E-03  1.2638597E-02  6.8782249E-03
   6.20000  5.9068801E-03  1.3815646E-02  7.2201969E-03
   6.40000  6.2500154E-03  1.5062210E-02  7.5879872E-03
   6.60000  6.5911778E-03  1.6408334E-02  8.0069173E-03
   6.80000  6.9388134E-03  1.7889389E-02  8.4981221E-03
   7.00000  7.3016849E-03  1.9543793E-02  9.0789931E-03
   7.20000  7.6881172E-03  2.1409017E-02  9.7628193E-03
   7.40000  8.1054972E-03  2.3518091E-02  1.0557587E-02
   7.60000  8.5601167E-03  2.5897486E-02  1.1464089E-02
   7.80000  9.0572454E-03  2.8565646E-02  1.2473656E-02
   8.00000  9.6012950E-03  3.1530974E-02  1.3566085E-02
   8.20000  1.0196013E-02  3.4788557E-02  1.4708820E-02
   8.40000  1.0844746E-02  3.8315491E-02  1.5858863E-02
   8.60000  1.1550837E-02  4.2064772E-02  1.6968724E-02
   8.80000  1.2318154E-02  4.5957520E-02  1.7996276E-02
   9.00000  1.3151543E-02  4.9873770E-02  1.8915739E-02
   9.20000  1.4056811E-02  5.3644376E-02  1.9725139E-02
   9.40000  1.5039941E-02  5.7050560E-02  2.0446516E-02
   9.60000  1.6105593E-02  5.9840054E-02  2.1118751E-02
   9.80000  1.7255364E-02  6.1765226E-02  2.1786316E-02
   10.0000  1.8486090E-02  6.2637244E-02  2.2488227E-02
   10.2500  2.0123537E-02  6.2137953E-02  2.3451529E-02
   10.5000  2.1840014E-02  6.0013476E-02  2.4521359E-02
   10.7500  2.3589962E-02  5.6662259E-02  2.5675912E-02
   11.0000  2.5320731E-02  5.2598447E-02  2.6872543E-02
   11.2500  2.6981052E-02  4.8300338E-02  2.8067099E-02
   11.5000  2.8528614E-02  4.4121606E-02  2.9227650E-02
   11.7500  2.9933339E-02  4.0273501E-02  3.0336556E-02
   12.0000  3.1177243E-02  3.6852505E-02  3.1386014E-02
   12.2500  3.2253869E-02  3.3879765E-02  3.2372182E-02
   12.5000  3.3167348E-02  3.1333808E-02  3.3291382E-02
   12.7500  3.3930107E-02  2.9173330E-02  3.4139936E-02
   13.0000  3.4560081E-02  2.7351252E-02  3.4916233E-02
   13.2500  3.5079035E-02  2.5822085E-02  3.5622761E-02
   13.5000  3.5511217E-02  2.4545072E-02  3.6266735E-02
   13.7500  3.5880817E-02  2.3485006E-02  3.6859015E-02
   14.0000  3.6209048E-02  2.2611971E-02  3.7411877E-02
   14.2500  3.6512230E-02  2.1900745E-02  3.7936482E-02
   14.5000  3.6801131E-02  2.1330174E-02  3.8440766E-02
   14.7500  3.7081273E-02  2.0882552E-02  3.8928093E-02
   15.0000  3.7353812E-02  2.0543053E-02  3.9396772E-02
   15.2500  3.7616701E-02  2.0299224E-02  3.9840349E-02
   15.5000  3.7865876E-02  2.0140543E-02  4.0248543E-02
   15.7500  3.8096330E-02  2.0058042E-02  4.0608645E-02
   16.0000  3.8302979E-02  2.0043993E-02  4.0907218E-02
   16.2500  3.8481331E-02  2.0091648E-02  4.1131870E-02
   16.5000  3.8627967E-02  2.0195046E-02  4.1272870E-02
   16.7500  3.8740865E-02  2.0348855E-02  4.1324384E-02
   17.0000  3.8819575E-02  2.0548264E-02  4.1285127E-02
   17.2500  3.8865280E-02  2.0788905E-02  4.1158394E-02
   17.5000  3.8880722E-02  2.1066798E-02  4.0951501E-02
   17.7500  3.8870027E-02  2.1378320E-02  4.0674808E-02
   18.0000  3.8838409E-02  2.1720178E-02  4.0340542E-02
   18.2500  3.8791800E-02  2.2089396E-02  3.9961634E-02
   18.5000  3.8736426E-02  2.2483291E-02  3.9550711E-02
   18.7500  3.8678367E-02  2.2899461E-02  3.9119342E-02
   19.0000  3.8623138E-02  2.3335769E-02  3.8677542E-02
   19.2500  3.8575337E-02  2.3790353E-02  3.8233481E-02
   19.5000  3.8538357E-02  2.4261625E-02  3.7793381E-02
   19.7500  3.8514182E-02  2.4748207E-02  3.7361576E-02
   20.0000  3.8503255E-02  2.5248640E-02  3.6940819E-02
   21.0000  3.8550093E-02  2.7334283E-02  3.5397414E-02
   22.0000  3.8534033E-02  2.9375229E-02  3.4088456E-02
   23.0000  3.8120909E-02  3.1109027E-02  3.2953926E-02
   24.0000  3.7102373E-02  3.2301447E-02  3.1917221E-02
   25.0000  3.5526533E-02  3.2851356E-02  3.0925198E-02
   26.0000  3.3652957E-02  3.2820868E-02  2.9968161E-02
   27.0000  3.1793329E-02  3.2369127E-02  2.9082336E-02
   28.0000  3.0176683E-02  3.1673453E-02  2.8331626E-02
   29.0000  2.8901719E-02  3.0879339E-02  2.7770297E-02
   30.0000  2.7947738E-02  3.0063919E-02  2.7403168E-02
   31.0000  2.7248636E-02  2.9250684E-02  2.7193772E-02
   32.0000  2.6741398E-02  2.8434818E-02  2.7087412E-02
   33.0000  2.6373521E-02  2.7599130E-02  2.7026332E-02
   34.0000  2.6097956E-02  2.6725937E-02  2.6957250E-02
   35.0000  2.5868441E-02  2.5806694E-02  2.6834264E-02
   36.0000  2.5639114E-02  2.4848947E-02  2.6621973E-02
   37.0000  2.5370392E-02  2.3879287E-02  2.6302068E-02
   38.0000  2.5043341E-02  2.2943191E-02  2.5884279E-02
   39.0000  2.4678707E-02  2.2104237E-02  2.5419398E-02
   40.0000  2.4342734E-02  2.1436137E-02  2.4999889E-02
