    Energy   (100,001)      (010,001)      (001,110)   
  -25.0000  1.7447485E-04  1.8182840E-04  1.7860112E-04
  -24.0000  1.8029523E-04  1.8898496E-04  1.8455914E-04
  -23.0000  1.8648311E-04  1.9667197E-04  1.9089549E-04
  -22.0000  1.9307369E-04  2.0494871E-04  1.9764668E-04
  -21.0000  2.0010676E-04  2.1388343E-04  2.0485401E-04
  -20.0000  2.0762749E-04  2.2355514E-04  2.1256443E-04
  -19.0000  2.1568740E-04  2.3405578E-04  2.2083153E-04
  -18.0000  2.2434549E-04  2.4549292E-04  2.2971671E-04
  -17.0000  2.3366966E-04  2.5799322E-04  2.3929074E-04
  -16.0000  2.4373849E-04  2.7170677E-04  2.4963555E-04
  -15.0000  2.5464339E-04  2.8681270E-04  2.6084657E-04
  -14.0000  2.6649143E-04  3.0352650E-04  2.7303564E-04
  -13.0000  2.7940882E-04  3.2210951E-04  2.8633472E-04
  -12.0000  2.9354547E-04  3.4288175E-04  3.0090069E-04
  -11.0000  3.0908097E-04  3.6623902E-04  3.1692157E-04
  -10.0000  3.2623244E-04  3.9267646E-04  3.3462482E-04
  -9.00000  3.4526514E-04  4.2282135E-04  3.5428846E-04
  -8.00000  3.6650704E-04  4.5747970E-04  3.7625627E-04
  -7.00000  3.9036924E-04  4.9770391E-04  4.0095914E-04
  -6.00000  4.1737529E-04  5.4489348E-04  4.2894556E-04
  -5.00000  4.4820455E-04  6.0094927E-04  4.6092661E-04
  -4.00000  4.8375879E-04  6.6851794E-04  4.9784463E-04
  -3.00000  5.2526857E-04  7.5139508E-04  5.4098259E-04
  -2.00000  5.7447293E-04  8.5522317E-04  5.9214736E-04
  -1.00000  6.3394385E-04  9.8877650E-04  6.5399847E-04
   0.00000  7.0772673E-04  1.1665196E-03  7.3069111E-04
   1.00000  8.0276513E-04  1.4142700E-03  8.2928983E-04
   2.00000  9.3265005E-04  1.7837597E-03  9.6342862E-04
   3.00000  1.1302652E-03  2.3995971E-03  1.1653471E-03
   4.00000  1.5100686E-03  3.6763534E-03  1.5428831E-03
   5.00000  2.5991373E-03  7.4696163E-03  2.5941391E-03
   5.20000  2.9224179E-03  8.6782618E-03  2.9347918E-03
   5.40000  3.2190378E-03  9.8849024E-03  3.2836330E-03
   5.60000  3.4751452E-03  1.1048566E-02  3.6250346E-03
   5.80000  3.6958615E-03  1.2173577E-02  3.9473376E-03
   6.00000  3.8920700E-03  1.3275855E-02  4.2351175E-03
   6.20000  4.0744474E-03  1.4372775E-02  4.4722946E-03
   6.40000  4.2525186E-03  1.5487656E-02  4.6524713E-03
   6.60000  4.4348466E-03  1.6652694E-02  4.7855583E-03
   6.80000  4.6289955E-03  1.7904686E-02  4.8938446E-03
   7.00000  4.8414116E-03  1.9278580E-02  5.0020376E-03
   7.20000  5.0775657E-03  2.0804788E-02  5.1299586E-03
   7.40000  5.3423547E-03  2.2510392E-02  5.2908719E-03
   7.60000  5.6405984E-03  2.4421517E-02  5.4931422E-03
   7.80000  5.9774812E-03  2.6564898E-02  5.7424787E-03
   8.00000  6.3587930E-03  2.8967823E-02  6.0435575E-03
   8.20000  6.7908292E-03  3.1656179E-02  6.4008700E-03
   8.40000  7.2798742E-03  3.4650239E-02  6.8189478E-03
   8.60000  7.8312797E-03  3.7957674E-02  7.3021286E-03
   8.80000  8.4481985E-03  4.1563419E-02  7.8540048E-03
   9.00000  9.1300695E-03  4.5416788E-02  8.4766829E-03
   9.20000  9.8710701E-03  4.9417778E-02  9.1699580E-03
   9.40000  1.0658973E-02  5.3406741E-02  9.9305278E-03
   9.60000  1.1475063E-02  5.7163796E-02  1.0751500E-02
   9.80000  1.2295731E-02  6.0424668E-02  1.1622610E-02
   10.0000  1.3095873E-02  6.2916491E-02  1.2531375E-02
   10.2500  1.4034182E-02  6.4607296E-02  1.3701136E-02
   10.5000  1.4880466E-02  6.4512987E-02  1.4891788E-02
   10.7500  1.5634109E-02  6.2720291E-02  1.6099324E-02
   11.0000  1.6317031E-02  5.9592210E-02  1.7335332E-02
   11.2500  1.6962903E-02  5.5625629E-02  1.8619744E-02
   11.5000  1.7605714E-02  5.1300535E-02  1.9969482E-02
   11.7500  1.8272797E-02  4.6989596E-02  2.1389377E-02
   12.0000  1.8982800E-02  4.2935513E-02  2.2868929E-02
   12.2500  1.9746866E-02  3.9268288E-02  2.4384342E-02
   12.5000  2.0570806E-02  3.6035660E-02  2.5902836E-02
   12.7500  2.1456431E-02  3.3233512E-02  2.7386198E-02
   13.0000  2.2402081E-02  3.0830423E-02  2.8794605E-02
   13.2500  2.3403489E-02  2.8784040E-02  3.0093666E-02
   13.5000  2.4454996E-02  2.7050558E-02  3.1262059E-02
   13.7500  2.5550574E-02  2.5589051E-02  3.2295077E-02
   14.0000  2.6684371E-02  2.4362851E-02  3.3203589E-02
   14.2500  2.7850721E-02  2.3339880E-02  3.4010249E-02
   14.5000  2.9043713E-02  2.2492568E-02  3.4744480E-02
   14.7500  3.0256462E-02  2.1797541E-02  3.5437374E-02
   15.0000  3.1480409E-02  2.1235144E-02  3.6117270E-02
   15.2500  3.2704931E-02  2.0788913E-02  3.6806426E-02
   15.5000  3.3917182E-02  2.0445068E-02  3.7518898E-02
   15.7500  3.5101963E-02  2.0192062E-02  3.8259519E-02
   16.0000  3.6241758E-02  2.0020205E-02  3.9023721E-02
   16.2500  3.7317219E-02  1.9921328E-02  3.9798046E-02
   16.5000  3.8308218E-02  1.9888511E-02  4.0561341E-02
   16.7500  3.9195369E-02  1.9915853E-02  4.1286722E-02
   17.0000  3.9961792E-02  1.9998276E-02  4.1944293E-02
   17.2500  4.0594834E-02  2.0131378E-02  4.2504452E-02
   17.5000  4.1087461E-02  2.0311294E-02  4.2941380E-02
   17.7500  4.1439076E-02  2.0534594E-02  4.3236163E-02
   18.0000  4.1655665E-02  2.0798200E-02  4.3378960E-02
   18.2500  4.1749250E-02  2.1099318E-02  4.3369822E-02
   18.5000  4.1736762E-02  2.1435401E-02  4.3218066E-02
   18.7500  4.1638526E-02  2.1804119E-02  4.2940450E-02
   19.0000  4.1476550E-02  2.2203373E-02  4.2558595E-02
   19.2500  4.1272816E-02  2.2631321E-02  4.2096202E-02
   19.5000  4.1047759E-02  2.3086426E-02  4.1576511E-02
   19.7500  4.0819094E-02  2.3567416E-02  4.1020413E-02
   20.0000  4.0601224E-02  2.4073023E-02  4.0445592E-02
   21.0000  4.0023141E-02  2.6294914E-02  3.8220796E-02
   22.0000  4.0052220E-02  2.8681443E-02  3.6444980E-02
   23.0000  4.0451429E-02  3.0972351E-02  3.5157081E-02
   24.0000  4.0750184E-02  3.2844382E-02  3.4208369E-02
   25.0000  4.0492170E-02  3.4019487E-02  3.3439541E-02
   26.0000  3.9431838E-02  3.4390640E-02  3.2736371E-02
   27.0000  3.7645052E-02  3.4054799E-02  3.2046224E-02
   28.0000  3.5463855E-02  3.3233716E-02  3.1376968E-02
   29.0000  3.3276256E-02  3.2161057E-02  3.0770854E-02
   30.0000  3.1355055E-02  3.1013174E-02  3.0264265E-02
   31.0000  2.9814519E-02  2.9895655E-02  2.9864229E-02
   32.0000  2.8656430E-02  2.8857415E-02  2.9551772E-02
   33.0000  2.7829534E-02  2.7909206E-02  2.9297021E-02
   34.0000  2.7267022E-02  2.7039410E-02  2.9070671E-02
   35.0000  2.6902900E-02  2.6226825E-02  2.8848466E-02
   36.0000  2.6678112E-02  2.5453154E-02  2.8615219E-02
   37.0000  2.6543666E-02  2.4710945E-02  2.8367459E-02
   38.0000  2.6460814E-02  2.4004500E-02  2.8109148E-02
   39.0000  2.6399457E-02  2.3361479E-02  2.7856051E-02
   40.0000  2.6344091E-02  2.2837142E-02  2.7640120E-02
