    Energy   (100,001)      (010,001)      (001,110)   
  -25.0000  1.6348046E-04  1.8304927E-04  1.8154459E-04
  -24.0000  1.6941911E-04  1.8999706E-04  1.8810582E-04
  -23.0000  1.7575501E-04  1.9744544E-04  1.9511742E-04
  -22.0000  1.8252771E-04  2.0544904E-04  2.0262625E-04
  -21.0000  1.8978211E-04  2.1407062E-04  2.1068583E-04
  -20.0000  1.9756934E-04  2.2338261E-04  2.1935759E-04
  -19.0000  2.0594791E-04  2.3346903E-04  2.2871231E-04
  -18.0000  2.1498502E-04  2.4442790E-04  2.3883204E-04
  -17.0000  2.2475829E-04  2.5637419E-04  2.4981238E-04
  -16.0000  2.3535785E-04  2.6944369E-04  2.6176541E-04
  -15.0000  2.4688887E-04  2.8379783E-04  2.7482339E-04
  -14.0000  2.5947493E-04  2.9962998E-04  2.8914355E-04
  -13.0000  2.7326217E-04  3.1717365E-04  3.0491422E-04
  -12.0000  2.8842473E-04  3.3671333E-04  3.2236300E-04
  -11.0000  3.0517175E-04  3.5859909E-04  3.4176757E-04
  -10.0000  3.2375679E-04  3.8326635E-04  3.6347041E-04
  -9.00000  3.4449032E-04  4.1126322E-04  3.8789898E-04
  -8.00000  3.6775693E-04  4.4328913E-04  4.1559421E-04
  -7.00000  3.9403926E-04  4.8025022E-04  4.4725138E-04
  -6.00000  4.2395223E-04  5.2334103E-04  4.8378052E-04
  -5.00000  4.5829325E-04  5.7416812E-04  5.2639836E-04
  -4.00000  4.9811839E-04  6.3494324E-04  5.7677346E-04
  -3.00000  5.4486258E-04  7.0879707E-04  6.3726578E-04
  -2.00000  6.0053909E-04  8.0031300E-04  7.1134391E-04
  -1.00000  6.6809209E-04  9.1648967E-04  8.0436326E-04
   0.00000  7.5207449E-04  1.0686133E-03  9.2515170E-04
   1.00000  8.6010889E-04  1.2762917E-03  1.0896472E-03
   2.00000  1.0065932E-03  1.5775167E-03  1.3307508E-03
   3.00000  1.2247007E-03  2.0600958E-03  1.7324327E-03
   4.00000  1.6231253E-03  3.0028131E-03  2.6015230E-03
   5.00000  2.6850182E-03  5.6047981E-03  5.3822049E-03
   5.20000  3.0037735E-03  6.4137561E-03  6.2033744E-03
   5.40000  3.3094529E-03  7.2225965E-03  6.9221487E-03
   5.60000  3.5917292E-03  8.0140112E-03  7.4996198E-03
   5.80000  3.8563410E-03  8.8055394E-03  7.9612432E-03
   6.00000  4.1137361E-03  9.6245625E-03  8.3521127E-03
   6.20000  4.3731561E-03  1.0496381E-02  8.7112494E-03
   6.40000  4.6408936E-03  1.1441672E-02  9.0663765E-03
   6.60000  4.9203314E-03  1.2476883E-02  9.4387038E-03
   6.80000  5.2129220E-03  1.3615075E-02  9.8491369E-03
   7.00000  5.5196705E-03  1.4866660E-02  1.0320973E-02
   7.20000  5.8425456E-03  1.6240156E-02  1.0878090E-02
   7.40000  6.1852605E-03  1.7743347E-02  1.1540620E-02
   7.60000  6.5532311E-03  1.9385094E-02  1.2320934E-02
   7.80000  6.9529721E-03  2.1177731E-02  1.3221612E-02
   8.00000  7.3913187E-03  2.3139028E-02  1.4235325E-02
   8.20000  7.8747161E-03  2.5292324E-02  1.5345633E-02
   8.40000  8.4087364E-03  2.7664349E-02  1.6528023E-02
   8.60000  8.9979355E-03  3.0281209E-02  1.7751628E-02
   8.80000  9.6460993E-03  3.3163042E-02  1.8982842E-02
   9.00000  1.0356869E-02  3.6317404E-02  2.0191483E-02
   9.20000  1.1134594E-02  3.9730966E-02  2.1357929E-02
   9.40000  1.1985056E-02  4.3359422E-02  2.2477637E-02
   9.60000  1.2915653E-02  4.7117201E-02  2.3559927E-02
   9.80000  1.3934774E-02  5.0870722E-02  2.4621220E-02
   10.0000  1.5050421E-02  5.4439130E-02  2.5676304E-02
   10.2500  1.6589004E-02  5.8307131E-02  2.6995600E-02
   10.5000  1.8287955E-02  6.1107008E-02  2.8306397E-02
   10.7500  2.0131406E-02  6.2485975E-02  2.9584092E-02
   11.0000  2.2080151E-02  6.2282813E-02  3.0800536E-02
   11.2500  2.4067409E-02  6.0579683E-02  3.1934862E-02
   11.5000  2.6003283E-02  5.7674825E-02  3.2979192E-02
   11.7500  2.7791900E-02  5.3986790E-02  3.3936229E-02
   12.0000  2.9355056E-02  4.9939036E-02  3.4811773E-02
   12.2500  3.0651300E-02  4.5876319E-02  3.5608488E-02
   12.5000  3.1682628E-02  4.2032166E-02  3.6324109E-02
   12.7500  3.2487162E-02  3.8535637E-02  3.6953124E-02
   13.0000  3.3123406E-02  3.5436804E-02  3.7489631E-02
   13.2500  3.3654432E-02  3.2735553E-02  3.7929676E-02
   13.5000  3.4137381E-02  3.0405124E-02  3.8272691E-02
   13.7500  3.4618414E-02  2.8407592E-02  3.8522747E-02
   14.0000  3.5130395E-02  2.6702755E-02  3.8689576E-02
   14.2500  3.5692483E-02  2.5252737E-02  3.8787983E-02
   14.5000  3.6312184E-02  2.4023838E-02  3.8835500E-02
   14.7500  3.6988541E-02  2.2986903E-02  3.8849588E-02
   15.0000  3.7714870E-02  2.2117061E-02  3.8845392E-02
   15.2500  3.8480666E-02  2.1393264E-02  3.8834320E-02
   15.5000  3.9272896E-02  2.0797774E-02  3.8823351E-02
   15.7500  4.0076905E-02  2.0315662E-02  3.8814977E-02
   16.0000  4.0877066E-02  1.9934349E-02  3.8807641E-02
   16.2500  4.1657283E-02  1.9643205E-02  3.8796556E-02
   16.5000  4.2401443E-02  1.9433194E-02  3.8774762E-02
   16.7500  4.3093959E-02  1.9296580E-02  3.8734312E-02
   17.0000  4.3720459E-02  1.9226685E-02  3.8667434E-02
   17.2500  4.4268637E-02  1.9217699E-02  3.8567559E-02
   17.5000  4.4729166E-02  1.9264524E-02  3.8430100E-02
   17.7500  4.5096520E-02  1.9362671E-02  3.8252886E-02
   18.0000  4.5369512E-02  1.9508177E-02  3.8036258E-02
   18.2500  4.5551393E-02  1.9697553E-02  3.7782824E-02
   18.5000  4.5649468E-02  1.9927747E-02  3.7496981E-02
   18.7500  4.5674258E-02  2.0196118E-02  3.7184308E-02
   19.0000  4.5638337E-02  2.0500430E-02  3.6850936E-02
   19.2500  4.5555021E-02  2.0838851E-02  3.6502969E-02
   19.5000  4.5437072E-02  2.1209955E-02  3.6146024E-02
   19.7500  4.5295602E-02  2.1612660E-02  3.5784950E-02
   20.0000  4.5139348E-02  2.2045983E-02  3.5423838E-02
   21.0000  4.4453197E-02  2.4050730E-02  3.4049623E-02
   22.0000  4.3604074E-02  2.6382039E-02  3.2899065E-02
   23.0000  4.2207494E-02  2.8858616E-02  3.1998470E-02
   24.0000  3.9957320E-02  3.1215974E-02  3.1283284E-02
   25.0000  3.6983492E-02  3.3148595E-02  3.0657558E-02
   26.0000  3.3786133E-02  3.4423363E-02  3.0041862E-02
   27.0000  3.0896364E-02  3.4977357E-02  2.9410799E-02
   28.0000  2.8618507E-02  3.4918503E-02  2.8797949E-02
   29.0000  2.6967931E-02  3.4436818E-02  2.8251558E-02
   30.0000  2.5817838E-02  3.3710853E-02  2.7807079E-02
   31.0000  2.5020591E-02  3.2866101E-02  2.7475720E-02
   32.0000  2.4449675E-02  3.1973288E-02  2.7243622E-02
   33.0000  2.4008705E-02  3.1062453E-02  2.7080298E-02
   34.0000  2.3628460E-02  3.0140253E-02  2.6948476E-02
   35.0000  2.3261604E-02  2.9204661E-02  2.6811213E-02
   36.0000  2.2878857E-02  2.8255502E-02  2.6636534E-02
   37.0000  2.2468009E-02  2.7302389E-02  2.6402274E-02
   38.0000  2.2036000E-02  2.6372416E-02  2.6103857E-02
   39.0000  2.1613290E-02  2.5519637E-02  2.5766958E-02
   40.0000  2.1252531E-02  2.4826171E-02  2.5455900E-02
