    Energy   (100,001)      (010,001)      (001,110)   
  -25.0000  1.7545503E-04  1.8307965E-04  1.7835775E-04
  -24.0000  1.8212918E-04  1.8992513E-04  1.8523664E-04
  -23.0000  1.8928012E-04  1.9725881E-04  1.9261564E-04
  -22.0000  1.9695902E-04  2.0513361E-04  2.0054952E-04
  -21.0000  2.0522450E-04  2.1361026E-04  2.0910116E-04
  -20.0000  2.1414400E-04  2.2275883E-04  2.1834312E-04
  -19.0000  2.2379551E-04  2.3266055E-04  2.2835958E-04
  -18.0000  2.3426969E-04  2.4341009E-04  2.3924872E-04
  -17.0000  2.4567248E-04  2.5511848E-04  2.5112571E-04
  -16.0000  2.5812849E-04  2.6791671E-04  2.6412652E-04
  -15.0000  2.7178520E-04  2.8196039E-04  2.7841277E-04
  -14.0000  2.8681843E-04  2.9743581E-04  2.9417803E-04
  -13.0000  3.0343938E-04  3.1456771E-04  3.1165604E-04
  -12.0000  3.2190397E-04  3.3362974E-04  3.3113156E-04
  -11.0000  3.4252516E-04  3.5495825E-04  3.5295495E-04
  -10.0000  3.6568972E-04  3.7897124E-04  3.7756208E-04
  -9.00000  3.9188105E-04  4.0619436E-04  4.0550182E-04
  -8.00000  4.2171132E-04  4.3729759E-04  4.3747490E-04
  -7.00000  4.5596705E-04  4.7314781E-04  4.7438998E-04
  -6.00000  4.9567583E-04  5.1488617E-04  5.1744644E-04
  -5.00000  5.4220621E-04  5.6404471E-04  5.6826032E-04
  -4.00000  5.9742237E-04  6.2272830E-04  6.2906205E-04
  -3.00000  6.6393235E-04  6.9390873E-04  7.0301953E-04
  -2.00000  7.4550545E-04  7.8192267E-04  7.9479130E-04
  -1.00000  8.4781441E-04  8.9336419E-04  9.1153113E-04
   0.00000  9.7985535E-04  1.0388066E-03  1.0648542E-03
   1.00000  1.1569443E-03  1.2364742E-03  1.2750914E-03
   2.00000  1.4079879E-03  1.5212801E-03  1.5818889E-03
   3.00000  1.7973264E-03  1.9725967E-03  2.0769397E-03
   4.00000  2.5176999E-03  2.8367015E-03  3.0471116E-03
   5.00000  4.3725348E-03  5.1566179E-03  5.7001995E-03
   5.20000  4.9702300E-03  5.8805435E-03  6.5406746E-03
   5.40000  5.6031223E-03  6.6142462E-03  7.4170438E-03
   5.60000  6.2595808E-03  7.3433703E-03  8.3318827E-03
   5.80000  6.9440200E-03  8.0815315E-03  9.3140480E-03
   6.00000  7.6660254E-03  8.8498358E-03  1.0391271E-02
   6.20000  8.4357488E-03  9.6676312E-03  1.1581599E-02
   6.40000  9.2639331E-03  1.0551355E-02  1.2896296E-02
   6.60000  1.0162893E-02  1.1515906E-02  1.4343781E-02
   6.80000  1.1146557E-02  1.2576176E-02  1.5928495E-02
   7.00000  1.2229139E-02  1.3748031E-02  1.7643334E-02
   7.20000  1.3423160E-02  1.5048688E-02  1.9460423E-02
   7.40000  1.4738198E-02  1.6496729E-02  2.1330169E-02
   7.60000  1.6181560E-02  1.8112169E-02  2.3197423E-02
   7.80000  1.7760769E-02  1.9917030E-02  2.5031664E-02
   8.00000  1.9485021E-02  2.1936141E-02  2.6850980E-02
   8.20000  2.1361853E-02  2.4197261E-02  2.8715809E-02
   8.40000  2.3388697E-02  2.6730086E-02  3.0688870E-02
   8.60000  2.5542480E-02  2.9563525E-02  3.2784748E-02
   8.80000  2.7774696E-02  3.2720187E-02  3.4940136E-02
   9.00000  3.0019372E-02  3.6207184E-02  3.7022759E-02
   9.20000  3.2211116E-02  4.0002544E-02  3.8876513E-02
   9.40000  3.4302216E-02  4.4038207E-02  4.0378954E-02
   9.60000  3.6266991E-02  4.8183695E-02  4.1479525E-02
   9.80000  3.8089030E-02  5.2237416E-02  4.2202469E-02
   10.0000  3.9744027E-02  5.5933608E-02  4.2621081E-02
   10.2500  4.1521050E-02  5.9594365E-02  4.2847441E-02
   10.5000  4.2900157E-02  6.1703566E-02  4.2866079E-02
   10.7500  4.3826441E-02  6.1977039E-02  4.2742142E-02
   11.0000  4.4288848E-02  6.0475831E-02  4.2483664E-02
   11.2500  4.4319821E-02  5.7562028E-02  4.2074460E-02
   11.5000  4.3987487E-02  5.3751857E-02  4.1502713E-02
   11.7500  4.3383513E-02  4.9555084E-02  4.0774630E-02
   12.0000  4.2606928E-02  4.5369378E-02  3.9915372E-02
   12.2500  4.1748894E-02  4.1447549E-02  3.8963532E-02
   12.5000  4.0882549E-02  3.7915755E-02  3.7964319E-02
   12.7500  4.0058440E-02  3.4812340E-02  3.6963603E-02
   13.0000  3.9304977E-02  3.2125575E-02  3.6003309E-02
   13.2500  3.8633708E-02  2.9820076E-02  3.5117818E-02
   13.5000  3.8046447E-02  2.7851948E-02  3.4331849E-02
   13.7500  3.7540163E-02  2.6176834E-02  3.3660839E-02
   14.0000  3.7109200E-02  2.4753999E-02  3.3112419E-02
   14.2500  3.6746255E-02  2.3548008E-02  3.2687704E-02
   14.5000  3.6442844E-02  2.2528933E-02  3.2382531E-02
   14.7500  3.6189449E-02  2.1671833E-02  3.2188643E-02
   15.0000  3.5975528E-02  2.0956037E-02  3.2094570E-02
   15.2500  3.5789637E-02  2.0364431E-02  3.2086274E-02
   15.5000  3.5619790E-02  1.9882819E-02  3.2147724E-02
   15.7500  3.5454125E-02  1.9499372E-02  3.2261567E-02
   16.0000  3.5281786E-02  1.9204160E-02  3.2409954E-02
   16.2500  3.5093858E-02  1.8988769E-02  3.2575519E-02
   16.5000  3.4884173E-02  1.8845986E-02  3.2742389E-02
   16.7500  3.4649809E-02  1.8769545E-02  3.2897102E-02
   17.0000  3.4391200E-02  1.8753925E-02  3.3029264E-02
   17.2500  3.4111842E-02  1.8794192E-02  3.3131858E-02
   17.5000  3.3817671E-02  1.8885889E-02  3.3201182E-02
   17.7500  3.3516249E-02  1.9024950E-02  3.3236470E-02
   18.0000  3.3215892E-02  1.9207653E-02  3.3239304E-02
   18.2500  3.2924868E-02  1.9430584E-02  3.3212935E-02
   18.5000  3.2650745E-02  1.9690619E-02  3.3161611E-02
   18.7500  3.2399917E-02  1.9984924E-02  3.3089980E-02
   19.0000  3.2177325E-02  2.0310972E-02  3.3002611E-02
   19.2500  3.1986322E-02  2.0666578E-02  3.2903625E-02
   19.5000  3.1828658E-02  2.1049947E-02  3.2796440E-02
   19.7500  3.1704537E-02  2.1459666E-02  3.2683610E-02
   20.0000  3.1612696E-02  2.1894513E-02  3.2566789E-02
   21.0000  3.1501170E-02  2.3851208E-02  3.2066597E-02
   22.0000  3.1554025E-02  2.6074352E-02  3.1466449E-02
   23.0000  3.1382225E-02  2.8473362E-02  3.0660309E-02
   24.0000  3.0705141E-02  3.0919828E-02  2.9605312E-02
   25.0000  2.9549952E-02  3.3175200E-02  2.8377061E-02
   26.0000  2.8207115E-02  3.4915134E-02  2.7125211E-02
   27.0000  2.6964227E-02  3.5928335E-02  2.5985665E-02
   28.0000  2.5960573E-02  3.6186802E-02  2.5054360E-02
   29.0000  2.5204807E-02  3.5821994E-02  2.4377940E-02
   30.0000  2.4646228E-02  3.5045695E-02  2.3944231E-02
   31.0000  2.4225557E-02  3.4059311E-02  2.3693273E-02
   32.0000  2.3892497E-02  3.3003987E-02  2.3546443E-02
   33.0000  2.3608595E-02  3.1954683E-02  2.3434473E-02
   34.0000  2.3348127E-02  3.0936852E-02  2.3311935E-02
   35.0000  2.3098906E-02  2.9947934E-02  2.3159187E-02
   36.0000  2.2861220E-02  2.8976362E-02  2.2978074E-02
   37.0000  2.2643874E-02  2.8017534E-02  2.2785358E-02
   38.0000  2.2457688E-02  2.7087306E-02  2.2604895E-02
   39.0000  2.2309474E-02  2.6233633E-02  2.2458143E-02
   40.0000  2.2199786E-02  2.5537821E-02  2.2353493E-02
