    Energy   (100,001)      (010,001)      (001,110)   
  -25.0000  1.6260414E-04  1.8887048E-04  1.8070164E-04
  -24.0000  1.6844139E-04  1.9580282E-04  1.8724119E-04
  -23.0000  1.7466512E-04  2.0322413E-04  1.9422949E-04
  -22.0000  1.8131350E-04  2.1118699E-04  2.0171323E-04
  -21.0000  1.8842977E-04  2.1975172E-04  2.0974572E-04
  -20.0000  1.9606312E-04  2.2898783E-04  2.1838811E-04
  -19.0000  2.0426979E-04  2.3897582E-04  2.2771091E-04
  -18.0000  2.1311430E-04  2.4980943E-04  2.3779582E-04
  -17.0000  2.2267109E-04  2.6159846E-04  2.4873805E-04
  -16.0000  2.3302642E-04  2.7447230E-04  2.6064922E-04
  -15.0000  2.4428088E-04  2.8858450E-04  2.7366103E-04
  -14.0000  2.5655242E-04  3.0411859E-04  2.8793006E-04
  -13.0000  2.6998028E-04  3.2129571E-04  3.0364386E-04
  -12.0000  2.8473006E-04  3.4038469E-04  3.2102905E-04
  -11.0000  3.0100025E-04  3.6171544E-04  3.4036215E-04
  -10.0000  3.1903083E-04  3.8569721E-04  3.6198409E-04
  -9.00000  3.3911488E-04  4.1284372E-04  3.8632037E-04
  -8.00000  3.6161425E-04  4.4380841E-04  4.1390917E-04
  -7.00000  3.8698138E-04  4.7943501E-04  4.4544184E-04
  -6.00000  4.1579010E-04  5.2083168E-04  4.8182241E-04
  -5.00000  4.4878060E-04  5.6948283E-04  5.2425769E-04
  -4.00000  4.8692680E-04  6.2742312E-04  5.7439881E-04
  -3.00000  5.3154131E-04  6.9751882E-04  6.3457248E-04
  -2.00000  5.8444695E-04  7.8394445E-04  7.0817884E-04
  -1.00000  6.4827431E-04  8.9303885E-04  8.0042039E-04
   0.00000  7.2702144E-04  1.0349645E-03  9.1975043E-04
   1.00000  8.2723022E-04  1.2272754E-03  1.0810808E-03
   2.00000  9.6089108E-04  1.5038190E-03  1.3140513E-03
   3.00000  1.1546106E-03  1.9426617E-03  1.6897740E-03
   4.00000  1.4921321E-03  2.7926217E-03  2.4443786E-03
   5.00000  2.3358769E-03  5.1306800E-03  4.6455522E-03
   5.20000  2.5853025E-03  5.8535128E-03  5.3585381E-03
   5.40000  2.8259610E-03  6.5695499E-03  6.0790089E-03
   5.60000  3.0504178E-03  7.2591274E-03  6.7752417E-03
   5.80000  3.2627531E-03  7.9337804E-03  7.4419271E-03
   6.00000  3.4702883E-03  8.6144849E-03  8.0880041E-03
   6.20000  3.6798899E-03  9.3217761E-03  8.7318548E-03
   6.40000  3.8974048E-03  1.0074048E-02  9.3989689E-03
   6.60000  4.1279889E-03  1.0888114E-02  1.0116822E-02
   6.80000  4.3765031E-03  1.1779924E-02  1.0907778E-02
   7.00000  4.6478116E-03  1.2765156E-02  1.1783478E-02
   7.20000  4.9469814E-03  1.3859847E-02  1.2742743E-02
   7.40000  5.2793849E-03  1.5081151E-02  1.3772661E-02
   7.60000  5.6506886E-03  1.6448154E-02  1.4851528E-02
   7.80000  6.0667390E-03  1.7982740E-02  1.5952841E-02
   8.00000  6.5333834E-03  1.9710360E-02  1.7049966E-02
   8.20000  7.0562860E-03  2.1660272E-02  1.8120817E-02
   8.40000  7.6407950E-03  2.3864381E-02  1.9151309E-02
   8.60000  8.2918799E-03  2.6353461E-02  2.0136222E-02
   8.80000  9.0140952E-03  2.9149489E-02  2.1076963E-02
   9.00000  9.8114955E-03  3.2253731E-02  2.1977177E-02
   9.20000  1.0687468E-02  3.5632312E-02  2.2838353E-02
   9.40000  1.1644523E-02  3.9204495E-02  2.3657743E-02
   9.60000  1.2684085E-02  4.2841924E-02  2.4429585E-02
   9.80000  1.3806158E-02  4.6385184E-02  2.5148680E-02
   10.0000  1.5008722E-02  4.9673208E-02  2.5814319E-02
   10.2500  1.6617264E-02  5.3220597E-02  2.6581174E-02
   10.5000  1.8325629E-02  5.5974320E-02  2.7300132E-02
   10.7500  2.0105853E-02  5.7824287E-02  2.8004594E-02
   11.0000  2.1921059E-02  5.8698902E-02  2.8725996E-02
   11.2500  2.3728148E-02  5.8554807E-02  2.9483096E-02
   11.5000  2.5480841E-02  5.7414361E-02  3.0274038E-02
   11.7500  2.7132398E-02  5.5399619E-02  3.1078397E-02
   12.0000  2.8639168E-02  5.2719065E-02  3.1866432E-02
   12.2500  2.9967053E-02  4.9619005E-02  3.2607975E-02
   12.5000  3.1098214E-02  4.6334062E-02  3.3277594E-02
   12.7500  3.2033510E-02  4.3056147E-02  3.3857397E-02
   13.0000  3.2790543E-02  3.9922246E-02  3.4338994E-02
   13.2500  3.3399261E-02  3.7017034E-02  3.4724341E-02
   13.5000  3.3896532E-02  3.4383890E-02  3.5024255E-02
   13.7500  3.4320697E-02  3.2037198E-02  3.5255103E-02
   14.0000  3.4707212E-02  2.9972332E-02  3.5436285E-02
   14.2500  3.5085946E-02  2.8173052E-02  3.5588997E-02
   14.5000  3.5479898E-02  2.6617102E-02  3.5734902E-02
   14.7500  3.5904936E-02  2.5280232E-02  3.5894397E-02
   15.0000  3.6370201E-02  2.4138611E-02  3.6084645E-02
   15.2500  3.6878851E-02  2.3170025E-02  3.6317776E-02
   15.5000  3.7428905E-02  2.2354350E-02  3.6599670E-02
   15.7500  3.8014060E-02  2.1673653E-02  3.6929394E-02
   16.0000  3.8624440E-02  2.1112122E-02  3.7299202E-02
   16.2500  3.9247278E-02  2.0655917E-02  3.7695067E-02
   16.5000  3.9867559E-02  2.0293003E-02  3.8097733E-02
   16.7500  4.0468703E-02  2.0012984E-02  3.8484320E-02
   17.0000  4.1033351E-02  1.9806940E-02  3.8830432E-02
   17.2500  4.1544317E-02  1.9667272E-02  3.9112622E-02
   17.5000  4.1985705E-02  1.9587543E-02  3.9310926E-02
   17.7500  4.2344117E-02  1.9562319E-02  3.9411079E-02
   18.0000  4.2609812E-02  1.9586998E-02  3.9406006E-02
   18.2500  4.2777664E-02  1.9657662E-02  3.9296330E-02
   18.5000  4.2847717E-02  1.9770929E-02  3.9089806E-02
   18.7500  4.2825222E-02  1.9923846E-02  3.8799864E-02
   19.0000  4.2720098E-02  2.0113823E-02  3.8443587E-02
   19.2500  4.2545881E-02  2.0338605E-02  3.8039520E-02
   19.5000  4.2318307E-02  2.0596285E-02  3.7605655E-02
   19.7500  4.2053854E-02  2.0885288E-02  3.7157929E-02
   20.0000  4.1768651E-02  2.1204228E-02  3.6709503E-02
   21.0000  4.0709123E-02  2.2746346E-02  3.5089822E-02
   22.0000  4.0208635E-02  2.4640451E-02  3.3932610E-02
   23.0000  4.0280760E-02  2.6790501E-02  3.3162228E-02
   24.0000  4.0420335E-02  2.9045712E-02  3.2573290E-02
   25.0000  3.9876863E-02  3.1192936E-02  3.1991567E-02
   26.0000  3.8160430E-02  3.2988707E-02  3.1326314E-02
   27.0000  3.5497862E-02  3.4232515E-02  3.0572238E-02
   28.0000  3.2580152E-02  3.4872024E-02  2.9776831E-02
   29.0000  3.0006758E-02  3.4969337E-02  2.9013075E-02
   30.0000  2.8021882E-02  3.4641771E-02  2.8353398E-02
   31.0000  2.6596110E-02  3.4025347E-02  2.7843434E-02
   32.0000  2.5590244E-02  3.3242027E-02  2.7487123E-02
   33.0000  2.4856255E-02  3.2379491E-02  2.7250409E-02
   34.0000  2.4276404E-02  3.1490207E-02  2.7077552E-02
   35.0000  2.3770518E-02  3.0603146E-02  2.6908842E-02
   36.0000  2.3291381E-02  2.9738686E-02  2.6694421E-02
   37.0000  2.2818409E-02  2.8919443E-02  2.6404581E-02
   38.0000  2.2353615E-02  2.8173471E-02  2.6038565E-02
   39.0000  2.1920674E-02  2.7533634E-02  2.5633748E-02
   40.0000  2.1560865E-02  2.7036831E-02  2.5266865E-02
