    Energy   (100,001)      (010,001)      (001,110)   
  -25.0000  1.6827074E-04  1.8225230E-04  1.8303630E-04
  -24.0000  1.7414469E-04  1.8923224E-04  1.8939718E-04
  -23.0000  1.8040060E-04  1.9671906E-04  1.9617950E-04
  -22.0000  1.8707572E-04  2.0476848E-04  2.0342574E-04
  -21.0000  1.9421227E-04  2.1344454E-04  2.1118427E-04
  -20.0000  2.0185820E-04  2.2282122E-04  2.1951033E-04
  -19.0000  2.1006828E-04  2.3298445E-04  2.2846739E-04
  -18.0000  2.1890534E-04  2.4403454E-04  2.3812869E-04
  -17.0000  2.2844172E-04  2.5608930E-04  2.4857919E-04
  -16.0000  2.3876129E-04  2.6928801E-04  2.5991807E-04
  -15.0000  2.4996168E-04  2.8379646E-04  2.7226180E-04
  -14.0000  2.6215737E-04  2.9981349E-04  2.8574810E-04
  -13.0000  2.7548339E-04  3.1757958E-04  3.0054112E-04
  -12.0000  2.9010028E-04  3.3738811E-04  3.1683807E-04
  -11.0000  3.0620039E-04  3.5960071E-04  3.3487817E-04
  -10.0000  3.2401631E-04  3.8466789E-04  3.5495457E-04
  -9.00000  3.4383213E-04  4.1315790E-04  3.7743074E-04
  -8.00000  3.6599888E-04  4.4579728E-04  4.0276340E-04
  -7.00000  3.9095594E-04  4.8352941E-04  4.3153520E-04
  -6.00000  4.1926174E-04  5.2760089E-04  4.6450274E-04
  -5.00000  4.5163865E-04  5.7969267E-04  5.0266919E-04
  -4.00000  4.8904126E-04  6.4212544E-04  5.4739819E-04
  -3.00000  5.3276411E-04  7.1819407E-04  6.0060080E-04
  -2.00000  5.8462079E-04  8.1273772E-04  6.6505920E-04
  -1.00000  6.4726151E-04  9.3316973E-04  7.4502749E-04
   0.00000  7.2478564E-04  1.0914818E-03  8.4745081E-04
   1.00000  8.2406700E-04  1.3085549E-03  9.8475264E-04
   2.00000  9.5812540E-04  1.6248573E-03  1.1823643E-03
   3.00000  1.1570391E-03  2.1334795E-03  1.5047160E-03
   4.00000  1.5191843E-03  3.1255719E-03  2.1855600E-03
   5.00000  2.4852295E-03  5.8472595E-03  4.3326732E-03
   5.20000  2.7836918E-03  6.7163209E-03  4.9826596E-03
   5.40000  3.0787307E-03  7.6104465E-03  5.5684154E-03
   5.60000  3.3593915E-03  8.5087132E-03  6.0502216E-03
   5.80000  3.6260042E-03  9.4205341E-03  6.4309259E-03
   6.00000  3.8820538E-03  1.0366133E-02  6.7327043E-03
   6.20000  4.1309955E-03  1.1367622E-02  6.9843467E-03
   6.40000  4.3761438E-03  1.2446793E-02  7.2157582E-03
   6.60000  4.6210795E-03  1.3624286E-02  7.4544576E-03
   6.80000  4.8698388E-03  1.4918802E-02  7.7232413E-03
   7.00000  5.1269152E-03  1.6346684E-02  8.0391331E-03
   7.20000  5.3971417E-03  1.7922260E-02  8.4135741E-03
   7.40000  5.6854624E-03  1.9658979E-02  8.8538347E-03
   7.60000  5.9966534E-03  2.1570866E-02  9.3653027E-03
   7.80000  6.3351068E-03  2.3673223E-02  9.9536437E-03
   8.00000  6.7047271E-03  2.5981437E-02  1.0625624E-02
   8.20000  7.1088968E-03  2.8507591E-02  1.1388003E-02
   8.40000  7.5504635E-03  3.1255586E-02  1.2244853E-02
   8.60000  8.0317129E-03  3.4216157E-02  1.3194279E-02
   8.80000  8.5542890E-03  3.7363367E-02  1.4225728E-02
   9.00000  9.1190670E-03  4.0653721E-02  1.5319009E-02
   9.20000  9.7262625E-03  4.4026896E-02  1.6445918E-02
   9.40000  1.0376246E-02  4.7404410E-02  1.7574860E-02
   9.60000  1.1070692E-02  5.0685514E-02  1.8677339E-02
   9.80000  1.1813039E-02  5.3744251E-02  1.9733468E-02
   10.0000  1.2608084E-02  5.6430693E-02  2.0734000E-02
   10.2500  1.3683899E-02  5.9013450E-02  2.1906678E-02
   10.5000  1.4858440E-02  6.0454336E-02  2.3003943E-02
   10.7500  1.6134889E-02  6.0561623E-02  2.4043233E-02
   11.0000  1.7508943E-02  5.9332107E-02  2.5040731E-02
   11.2500  1.8968426E-02  5.6960985E-02  2.6005863E-02
   11.5000  2.0494702E-02  5.3776536E-02  2.6940025E-02
   11.7500  2.2064541E-02  5.0141920E-02  2.7838154E-02
   12.0000  2.3651832E-02  4.6375516E-02  2.8691341E-02
   12.2500  2.5228946E-02  4.2712262E-02  2.9490074E-02
   12.5000  2.6768116E-02  3.9300187E-02  3.0227089E-02
   12.7500  2.8243761E-02  3.6216059E-02  3.0898645E-02
   13.0000  2.9635564E-02  3.3486130E-02  3.1504445E-02
   13.2500  3.0931018E-02  3.1104575E-02  3.2047242E-02
   13.5000  3.2126017E-02  2.9047753E-02  3.2533175E-02
   13.7500  3.3223528E-02  2.7284359E-02  3.2972465E-02
   14.0000  3.4231742E-02  2.5781605E-02  3.3379163E-02
   14.2500  3.5162347E-02  2.4508225E-02  3.3769828E-02
   14.5000  3.6028682E-02  2.3435704E-02  3.4161862E-02
   14.7500  3.6843801E-02  2.2538699E-02  3.4571948E-02
   15.0000  3.7618779E-02  2.1795074E-02  3.5014699E-02
   15.2500  3.8361502E-02  2.1185730E-02  3.5501531E-02
   15.5000  3.9075975E-02  2.0694314E-02  3.6039736E-02
   15.7500  3.9762101E-02  2.0306894E-02  3.6631758E-02
   16.0000  4.0415846E-02  2.0011619E-02  3.7274665E-02
   16.2500  4.1029712E-02  1.9798419E-02  3.7959878E-02
   16.5000  4.1593491E-02  1.9658734E-02  3.8673205E-02
   16.7500  4.2095248E-02  1.9585276E-02  3.9395292E-02
   17.0000  4.2522511E-02  1.9571824E-02  4.0102596E-02
   17.2500  4.2863588E-02  1.9613047E-02  4.0768918E-02
   17.5000  4.3108924E-02  1.9704348E-02  4.1367465E-02
   17.7500  4.3252347E-02  1.9841728E-02  4.1873253E-02
   18.0000  4.3292045E-02  2.0021666E-02  4.2265521E-02
   18.2500  4.3231121E-02  2.0241017E-02  4.2529764E-02
   18.5000  4.3077613E-02  2.0496937E-02  4.2659004E-02
   18.7500  4.2843959E-02  2.0786830E-02  4.2654074E-02
   19.0000  4.2545949E-02  2.1108328E-02  4.2522872E-02
   19.2500  4.2201304E-02  2.1459319E-02  4.2278780E-02
   19.5000  4.1828096E-02  2.1837982E-02  4.1938587E-02
   19.7500  4.1443304E-02  2.2242779E-02  4.1520435E-02
   20.0000  4.1061904E-02  2.2672266E-02  4.1042373E-02
   21.0000  3.9797540E-02  2.4594540E-02  3.8863974E-02
   22.0000  3.9202355E-02  2.6727892E-02  3.6802356E-02
   23.0000  3.9133118E-02  2.8910981E-02  3.5112336E-02
   24.0000  3.9142561E-02  3.0942010E-02  3.3755909E-02
   25.0000  3.8739068E-02  3.2605698E-02  3.2617312E-02
   26.0000  3.7625864E-02  3.3735335E-02  3.1606388E-02
   27.0000  3.5870789E-02  3.4267804E-02  3.0696619E-02
   28.0000  3.3807470E-02  3.4260583E-02  2.9901094E-02
   29.0000  3.1813705E-02  3.3838936E-02  2.9248617E-02
   30.0000  3.0130881E-02  3.3139657E-02  2.8759278E-02
   31.0000  2.8825906E-02  3.2278699E-02  2.8428060E-02
   32.0000  2.7853287E-02  3.1338348E-02  2.8226556E-02
   33.0000  2.7126118E-02  3.0368198E-02  2.8114209E-02
   34.0000  2.6558175E-02  2.9393471E-02  2.8048268E-02
   35.0000  2.6079145E-02  2.8425691E-02  2.7988523E-02
   36.0000  2.5635598E-02  2.7472875E-02  2.7899474E-02
   37.0000  2.5188974E-02  2.6547678E-02  2.7753755E-02
   38.0000  2.4719790E-02  2.5673775E-02  2.7539981E-02
   39.0000  2.4243222E-02  2.4893160E-02  2.7276555E-02
   40.0000  2.3821423E-02  2.4268025E-02  2.7021934E-02
