    Energy   (100,001)      (010,001)      (001,110)   
  -25.0000  1.6222395E-04  1.8159513E-04  1.8121650E-04
  -24.0000  1.6800018E-04  1.8874299E-04  1.8758004E-04
  -23.0000  1.7415526E-04  1.9642159E-04  1.9436810E-04
  -22.0000  1.8072623E-04  2.0469033E-04  2.0162362E-04
  -21.0000  1.8775506E-04  2.1361766E-04  2.0939551E-04
  -20.0000  1.9528943E-04  2.2328284E-04  2.1773965E-04
  -19.0000  2.0338381E-04  2.3377808E-04  2.2672021E-04
  -18.0000  2.1210062E-04  2.4521131E-04  2.3641126E-04
  -17.0000  2.2151180E-04  2.5770965E-04  2.4689870E-04
  -16.0000  2.3170067E-04  2.7142371E-04  2.5828278E-04
  -15.0000  2.4276423E-04  2.8653330E-04  2.7068117E-04
  -14.0000  2.5481620E-04  3.0325471E-04  2.8423297E-04
  -13.0000  2.6799068E-04  3.2185027E-04  2.9910382E-04
  -12.0000  2.8244703E-04  3.4264114E-04  3.1549254E-04
  -11.0000  2.9837616E-04  3.6602448E-04  3.3363998E-04
  -10.0000  3.1600883E-04  3.9249691E-04  3.5384086E-04
  -9.00000  3.3562681E-04  4.2268726E-04  3.7645980E-04
  -8.00000  3.5757816E-04  4.5740284E-04  4.0195381E-04
  -7.00000  3.8229843E-04  4.9769651E-04  4.3090399E-04
  -6.00000  4.1034106E-04  5.4496615E-04  4.6406178E-04
  -5.00000  4.4242198E-04  6.0110615E-04  5.0241830E-04
  -4.00000  4.7948729E-04  6.6874612E-04  5.4731184E-04
  -3.00000  5.2282063E-04  7.5164130E-04  6.0060202E-04
  -2.00000  5.7422178E-04  8.5534184E-04  6.6496676E-04
  -1.00000  6.3632467E-04  9.8840889E-04  7.4444378E-04
   0.00000  7.1321307E-04  1.1647964E-03  8.4550650E-04
   1.00000  8.1175943E-04  1.4090152E-03  9.7946606E-04
   2.00000  9.4504866E-04  1.7690863E-03  1.1687848E-03
   3.00000  1.1435168E-03  2.3572126E-03  1.4682124E-03
   4.00000  1.5074529E-03  3.5336847E-03  2.0673672E-03
   5.00000  2.4896296E-03  6.8498223E-03  3.8421263E-03
   5.20000  2.7953678E-03  7.8687174E-03  4.3902586E-03
   5.40000  3.0978083E-03  8.8694359E-03  4.9139370E-03
   5.60000  3.3833863E-03  9.8292302E-03  5.3890113E-03
   5.80000  3.6499204E-03  1.0772607E-02  5.8159441E-03
   6.00000  3.9005695E-03  1.1737227E-02  6.2015559E-03
   6.20000  4.1412412E-03  1.2759829E-02  6.5522819E-03
   6.40000  4.3792648E-03  1.3875440E-02  6.8749181E-03
   6.60000  4.6219334E-03  1.5119974E-02  7.1788416E-03
   6.80000  4.8750873E-03  1.6532661E-02  7.4770916E-03
   7.00000  5.1420890E-03  1.8157661E-02  7.7855859E-03
   7.20000  5.4234339E-03  2.0044676E-02  8.1208247E-03
   7.40000  5.7172594E-03  2.2248102E-02  8.4971858E-03
   7.60000  6.0209307E-03  2.4824191E-02  8.9252256E-03
   7.80000  6.3333599E-03  2.7826051E-02  9.4119978E-03
   8.00000  6.6569425E-03  3.1296601E-02  9.9632032E-03
   8.20000  6.9979663E-03  3.5258628E-02  1.0585720E-02
   8.40000  7.3654447E-03  3.9699543E-02  1.1288963E-02
   8.60000  7.7693439E-03  4.4549081E-02  1.2084649E-02
   8.80000  8.2190889E-03  4.9653311E-02  1.2985598E-02
   9.00000  8.7227492E-03  5.4756831E-02  1.4004157E-02
   9.20000  9.2869652E-03  5.9512841E-02  1.5150330E-02
   9.40000  9.9172493E-03  6.3536849E-02  1.6429415E-02
   9.60000  1.0618215E-02  6.6494087E-02  1.7839406E-02
   9.80000  1.1393468E-02  6.8178888E-02  1.9368930E-02
   10.0000  1.2245022E-02  6.8544531E-02  2.0996469E-02
   10.2500  1.3415450E-02  6.7292100E-02  2.3120570E-02
   10.5000  1.4694137E-02  6.4487447E-02  2.5272054E-02
   10.7500  1.6060614E-02  6.0598006E-02  2.7365980E-02
   11.0000  1.7485237E-02  5.6108738E-02  2.9320433E-02
   11.2500  1.8933684E-02  5.1445918E-02  3.1067328E-02
   11.5000  2.0371631E-02  4.6926904E-02  3.2559516E-02
   11.7500  2.1769066E-02  4.2748196E-02  3.3772874E-02
   12.0000  2.3103612E-02  3.9003882E-02  3.4705717E-02
   12.2500  2.4361895E-02  3.5717210E-02  3.5377101E-02
   12.5000  2.5539788E-02  3.2869794E-02  3.5823022E-02
   12.7500  2.6641566E-02  3.0422761E-02  3.6090001E-02
   13.0000  2.7677797E-02  2.8330335E-02  3.6228035E-02
   13.2500  2.8663097E-02  2.6547266E-02  3.6284904E-02
   13.5000  2.9614137E-02  2.5032185E-02  3.6302617E-02
   13.7500  3.0547759E-02  2.3748819E-02  3.6315852E-02
   14.0000  3.1479382E-02  2.2666126E-02  3.6351696E-02
   14.2500  3.2421869E-02  2.1757900E-02  3.6430005E-02
   14.5000  3.3384845E-02  2.1002160E-02  3.6563939E-02
   14.7500  3.4374359E-02  2.0380503E-02  3.6760447E-02
   15.0000  3.5392759E-02  1.9877525E-02  3.7020644E-02
   15.2500  3.6438666E-02  1.9480315E-02  3.7340124E-02
   15.5000  3.7506964E-02  1.9178045E-02  3.7709313E-02
   15.7500  3.8588786E-02  1.8961609E-02  3.8113976E-02
   16.0000  3.9671530E-02  1.8823323E-02  3.8535986E-02
   16.2500  4.0738992E-02  1.8756663E-02  3.8954438E-02
   16.5000  4.1771726E-02  1.8756024E-02  3.9347108E-02
   16.7500  4.2747782E-02  1.8816522E-02  3.9692197E-02
   17.0000  4.3643935E-02  1.8933807E-02  3.9970187E-02
   17.2500  4.4437413E-02  1.9103913E-02  4.0165556E-02
   17.5000  4.5108020E-02  1.9323145E-02  4.0268095E-02
   17.7500  4.5640335E-02  1.9587992E-02  4.0273590E-02
   18.0000  4.6025619E-02  1.9895082E-02  4.0183770E-02
   18.2500  4.6263014E-02  2.0241177E-02  4.0005571E-02
   18.5000  4.6359752E-02  2.0623179E-02  3.9749895E-02
   18.7500  4.6330310E-02  2.1038180E-02  3.9430118E-02
   19.0000  4.6194651E-02  2.1483505E-02  3.9060593E-02
   19.2500  4.5975861E-02  2.1956788E-02  3.8655340E-02
   19.5000  4.5697606E-02  2.2456021E-02  3.8227017E-02
   19.7500  4.5381863E-02  2.2979517E-02  3.7786292E-02
   20.0000  4.5047411E-02  2.3525623E-02  3.7341750E-02
   21.0000  4.3774031E-02  2.5880035E-02  3.5649166E-02
   22.0000  4.2783812E-02  2.8328388E-02  3.4242673E-02
   23.0000  4.1790893E-02  3.0593407E-02  3.3115175E-02
   24.0000  4.0413550E-02  3.2373139E-02  3.2171406E-02
   25.0000  3.8540796E-02  3.3453101E-02  3.1334798E-02
   26.0000  3.6342527E-02  3.3790165E-02  3.0579470E-02
   27.0000  3.4118001E-02  3.3502348E-02  2.9926520E-02
   28.0000  3.2129146E-02  3.2791055E-02  2.9419824E-02
   29.0000  3.0478621E-02  3.1847865E-02  2.9081981E-02
   30.0000  2.9158850E-02  3.0814462E-02  2.8901123E-02
   31.0000  2.8118727E-02  2.9780736E-02  2.8835844E-02
   32.0000  2.7290859E-02  2.8794814E-02  2.8829415E-02
   33.0000  2.6605607E-02  2.7874957E-02  2.8826837E-02
   34.0000  2.5998885E-02  2.7020200E-02  2.8783580E-02
   35.0000  2.5415214E-02  2.6219372E-02  2.8665136E-02
   36.0000  2.4809593E-02  2.5458893E-02  2.8444608E-02
   37.0000  2.4152904E-02  2.4730340E-02  2.8105614E-02
   38.0000  2.3445222E-02  2.4038878E-02  2.7654250E-02
   39.0000  2.2735239E-02  2.3412773E-02  2.7139815E-02
   40.0000  2.2122018E-02  2.2904642E-02  2.6666612E-02
