    Energy   (100,001)      (010,001)      (001,110)   
  -25.0000  1.6820132E-04  1.8468232E-04  1.7337240E-04
  -24.0000  1.7429501E-04  1.9157564E-04  1.7961013E-04
  -23.0000  1.8080187E-04  1.9896084E-04  1.8626864E-04
  -22.0000  1.8776411E-04  2.0689130E-04  1.9339062E-04
  -21.0000  1.9522980E-04  2.1542829E-04  2.0102464E-04
  -20.0000  2.0325396E-04  2.2464252E-04  2.0922622E-04
  -19.0000  2.1189984E-04  2.3461598E-04  2.1805907E-04
  -18.0000  2.2124050E-04  2.4544425E-04  2.2759667E-04
  -17.0000  2.3136078E-04  2.5723946E-04  2.3792420E-04
  -16.0000  2.4235984E-04  2.7013394E-04  2.4914097E-04
  -15.0000  2.5435422E-04  2.8428499E-04  2.6136347E-04
  -14.0000  2.6748192E-04  2.9988098E-04  2.7472922E-04
  -13.0000  2.8190752E-04  3.1714937E-04  2.8940177E-04
  -12.0000  2.9782901E-04  3.3636723E-04  3.0557718E-04
  -11.0000  3.1548673E-04  3.5787553E-04  3.2349249E-04
  -10.0000  3.3517548E-04  3.8209844E-04  3.4343720E-04
  -9.00000  3.5726105E-04  4.0957012E-04  3.6576866E-04
  -8.00000  3.8220334E-04  4.4097259E-04  3.9093350E-04
  -7.00000  4.1058929E-04  4.7719026E-04  4.1949784E-04
  -6.00000  4.4318110E-04  5.1939052E-04  4.5219108E-04
  -5.00000  4.8098897E-04  5.6914625E-04  4.8997103E-04
  -4.00000  5.2538476E-04  6.2862817E-04  5.3412447E-04
  -3.00000  5.7828737E-04  7.0091921E-04  5.8642862E-04
  -2.00000  6.4248176E-04  7.9055330E-04  6.4942457E-04
  -1.00000  7.2220560E-04  9.0449617E-04  7.2691176E-04
   0.00000  8.2432686E-04  1.0540750E-03  8.2492314E-04
   1.00000  9.6100097E-04  1.2591936E-03  9.5389021E-04
   2.00000  1.1567426E-03  1.5590204E-03  1.1343289E-03
   3.00000  1.4724704E-03  2.0459773E-03  1.4160371E-03
   4.00000  2.1246338E-03  3.0209674E-03  1.9733874E-03
   5.00000  4.1113793E-03  5.8093131E-03  3.6025717E-03
   5.20000  4.6966741E-03  6.6866281E-03  4.0696544E-03
   5.40000  5.2226817E-03  7.5585141E-03  4.4785907E-03
   5.60000  5.6686972E-03  8.3971884E-03  4.8123719E-03
   5.80000  6.0526228E-03  9.2149406E-03  5.0883231E-03
   6.00000  6.4019401E-03  1.0038872E-02  5.3328699E-03
   6.20000  6.7405983E-03  1.0897140E-02  5.5694788E-03
   6.40000  7.0871028E-03  1.1814690E-02  5.8165693E-03
   6.60000  7.4558415E-03  1.2812607E-02  6.0886686E-03
   6.80000  7.8584372E-03  1.3908672E-02  6.3979550E-03
   7.00000  8.3043853E-03  1.5118267E-02  6.7554534E-03
   7.20000  8.8010683E-03  1.6455266E-02  7.1717630E-03
   7.40000  9.3534913E-03  1.7932753E-02  7.6573327E-03
   7.60000  9.9641339E-03  1.9563484E-02  8.2223749E-03
   7.80000  1.0633214E-02  2.1359735E-02  8.8765428E-03
   8.00000  1.1359367E-02  2.3331989E-02  9.6284599E-03
   8.20000  1.2140426E-02  2.5485864E-02  1.0485063E-02
   8.40000  1.2973973E-02  2.7817184E-02  1.1450651E-02
   8.60000  1.3857556E-02  3.0306061E-02  1.2525655E-02
   8.80000  1.4788697E-02  3.2912005E-02  1.3705225E-02
   9.00000  1.5764825E-02  3.5573030E-02  1.4977946E-02
   9.20000  1.6783469E-02  3.8211588E-02  1.6325294E-02
   9.40000  1.7842893E-02  4.0747493E-02  1.7722326E-02
   9.60000  1.8942882E-02  4.3113334E-02  1.9139480E-02
   9.80000  2.0085000E-02  4.5264485E-02  2.0545059E-02
   10.0000  2.1271603E-02  4.7177693E-02  2.1908209E-02
   10.2500  2.2817711E-02  4.9213041E-02  2.3512687E-02
   10.5000  2.4421612E-02  5.0810369E-02  2.4975868E-02
   10.7500  2.6049131E-02  5.1879761E-02  2.6289201E-02
   11.0000  2.7642366E-02  5.2293722E-02  2.7468061E-02
   11.2500  2.9126359E-02  5.1944823E-02  2.8543135E-02
   11.5000  3.0424123E-02  5.0813546E-02  2.9548848E-02
   11.7500  3.1476114E-02  4.8995476E-02  3.0512988E-02
   12.0000  3.2255633E-02  4.6674802E-02  3.1450474E-02
   12.2500  3.2773195E-02  4.4069706E-02  3.2361106E-02
   12.5000  3.3070296E-02  4.1381155E-02  3.3231541E-02
   12.7500  3.3207144E-02  3.8762111E-02  3.4042948E-02
   13.0000  3.3248682E-02  3.6310642E-02  3.4780750E-02
   13.2500  3.3253712E-02  3.4078698E-02  3.5440684E-02
   13.5000  3.3268990E-02  3.2085818E-02  3.6029704E-02
   13.7500  3.3327184E-02  3.0331462E-02  3.6563455E-02
   14.0000  3.3447189E-02  2.8803799E-02  3.7062619E-02
   14.2500  3.3635695E-02  2.7485297E-02  3.7549777E-02
   14.5000  3.3889326E-02  2.6356180E-02  3.8046799E-02
   14.7500  3.4196952E-02  2.5396503E-02  3.8572208E-02
   15.0000  3.4542016E-02  2.4587309E-02  3.9138820E-02
   15.2500  3.4904791E-02  2.3911210E-02  3.9752235E-02
   15.5000  3.5264539E-02  2.3352616E-02  4.0410178E-02
   15.7500  3.5601498E-02  2.2897774E-02  4.1102464E-02
   16.0000  3.5898571E-02  2.2534694E-02  4.1811457E-02
   16.2500  3.6142555E-02  2.2253016E-02  4.2513019E-02
   16.5000  3.6324812E-02  2.2043848E-02  4.3178046E-02
   16.7500  3.6441378E-02  2.1899604E-02  4.3774651E-02
   17.0000  3.6492591E-02  2.1813840E-02  4.4270939E-02
   17.2500  3.6482423E-02  2.1781094E-02  4.4638162E-02
   17.5000  3.6417691E-02  2.1796734E-02  4.4853820E-02
   17.7500  3.6307257E-02  2.1856812E-02  4.4904179E-02
   18.0000  3.6161320E-02  2.1957924E-02  4.4785736E-02
   18.2500  3.5990786E-02  2.2097098E-02  4.4505314E-02
   18.5000  3.5806713E-02  2.2271698E-02  4.4078829E-02
   18.7500  3.5619818E-02  2.2479367E-02  4.3529003E-02
   19.0000  3.5440018E-02  2.2717996E-02  4.2882509E-02
   19.2500  3.5276032E-02  2.2985743E-02  4.2167044E-02
   19.5000  3.5135032E-02  2.3281043E-02  4.1408736E-02
   19.7500  3.5022384E-02  2.3602582E-02  4.0630309E-02
   20.0000  3.4941522E-02  2.3949102E-02  3.9850359E-02
   21.0000  3.4946070E-02  2.5546155E-02  3.6977505E-02
   22.0000  3.5355697E-02  2.7360903E-02  3.4796207E-02
   23.0000  3.5853710E-02  2.9200436E-02  3.3265867E-02
   24.0000  3.6118367E-02  3.0843230E-02  3.2160063E-02
   25.0000  3.5967551E-02  3.2106100E-02  3.1265225E-02
   26.0000  3.5373440E-02  3.2892873E-02  3.0441673E-02
   27.0000  3.4401926E-02  3.3200237E-02  2.9631498E-02
   28.0000  3.3160599E-02  3.3096499E-02  2.8841107E-02
   29.0000  3.1789634E-02  3.2693458E-02  2.8114819E-02
   30.0000  3.0441838E-02  3.2112791E-02  2.7499209E-02
   31.0000  2.9215220E-02  3.1442501E-02  2.7003926E-02
   32.0000  2.8147512E-02  3.0735452E-02  2.6608647E-02
   33.0000  2.7235272E-02  3.0021108E-02  2.6281323E-02
   34.0000  2.6449654E-02  2.9313188E-02  2.5987758E-02
   35.0000  2.5752059E-02  2.8617086E-02  2.5696952E-02
   36.0000  2.5106697E-02  2.7935889E-02  2.5383960E-02
   37.0000  2.4489988E-02  2.7273661E-02  2.5032547E-02
   38.0000  2.3898391E-02  2.6639083E-02  2.4641106E-02
   39.0000  2.3355003E-02  2.6056216E-02  2.4234870E-02
   40.0000  2.2908047E-02  2.5576322E-02  2.3874632E-02
