    Energy   (100,001)      (010,001)      (001,110)   
  -25.0000  1.6852921E-04  1.7545708E-04  1.7585737E-04
  -24.0000  1.7462203E-04  1.8238136E-04  1.8223771E-04
  -23.0000  1.8112691E-04  1.8981737E-04  1.8905456E-04
  -22.0000  1.8808577E-04  1.9782196E-04  1.9635304E-04
  -21.0000  1.9554635E-04  2.0646054E-04  2.0418462E-04
  -20.0000  2.0356323E-04  2.1580875E-04  2.1260825E-04
  -19.0000  2.1219911E-04  2.2595452E-04  2.2169186E-04
  -18.0000  2.2152635E-04  2.3700060E-04  2.3151400E-04
  -17.0000  2.3162891E-04  2.4906783E-04  2.4216612E-04
  -16.0000  2.4260479E-04  2.6229917E-04  2.5375522E-04
  -15.0000  2.5456904E-04  2.7686503E-04  2.6640739E-04
  -14.0000  2.6765769E-04  2.9297001E-04  2.8027220E-04
  -13.0000  2.8203276E-04  3.1086185E-04  2.9552850E-04
  -12.0000  2.9788879E-04  3.3084323E-04  3.1239191E-04
  -11.0000  3.1546146E-04  3.5328768E-04  3.3112495E-04
  -10.0000  3.3503921E-04  3.7866130E-04  3.5205050E-04
  -9.00000  3.5697904E-04  4.0755287E-04  3.7557050E-04
  -8.00000  3.8172838E-04  4.4071650E-04  4.0219206E-04
  -7.00000  4.0985632E-04  4.7913318E-04  4.3256487E-04
  -6.00000  4.4209884E-04  5.2410193E-04  4.6753635E-04
  -5.00000  4.7942670E-04  5.7737847E-04  5.0823526E-04
  -4.00000  5.2315056E-04  6.4139322E-04  5.5620339E-04
  -3.00000  5.7509105E-04  7.1960766E-04  6.1361230E-04
  -2.00000  6.3786807E-04  8.1712496E-04  6.8364015E-04
  -1.00000  7.1542648E-04  9.4180003E-04  7.7117398E-04
   0.00000  8.1407595E-04  1.1064183E-03  8.8424186E-04
   1.00000  9.4479818E-04  1.3334385E-03  1.0373097E-03
   2.00000  1.1292674E-03  1.6669697E-03  1.2602725E-03
   3.00000  1.4198490E-03  2.2107469E-03  1.6299462E-03
   4.00000  1.9960544E-03  3.3018154E-03  2.4312771E-03
   5.00000  3.6820147E-03  6.4088552E-03  5.0101738E-03
   5.20000  4.1999983E-03  7.3641356E-03  5.7503770E-03
   5.40000  4.6908183E-03  8.2962693E-03  6.3715420E-03
   5.60000  5.1292866E-03  9.1816251E-03  6.8391927E-03
   5.80000  5.5174927E-03  1.0044126E-02  7.1833806E-03
   6.00000  5.8688670E-03  1.0920554E-02  7.4515983E-03
   6.20000  6.2000288E-03  1.1844278E-02  7.6846005E-03
   6.40000  6.5277115E-03  1.2843515E-02  7.9136517E-03
   6.60000  6.8671540E-03  1.3944145E-02  8.1646441E-03
   6.80000  7.2313616E-03  1.5172057E-02  8.4607181E-03
   7.00000  7.6310664E-03  1.6554054E-02  8.8224782E-03
   7.20000  8.0750336E-03  1.8118205E-02  9.2677323E-03
   7.40000  8.5704652E-03  1.9894205E-02  9.8117025E-03
   7.60000  9.1234133E-03  2.1913285E-02  1.0467305E-02
   7.80000  9.7391587E-03  2.4207244E-02  1.1244823E-02
   8.00000  1.0422492E-02  2.6806315E-02  1.2150616E-02
   8.20000  1.1177818E-02  2.9735536E-02  1.3184944E-02
   8.40000  1.2009017E-02  3.3009390E-02  1.4339425E-02
   8.60000  1.2919073E-02  3.6624590E-02  1.5595156E-02
   8.80000  1.3909627E-02  4.0551091E-02  1.6922815E-02
   9.00000  1.4980660E-02  4.4721582E-02  1.8285748E-02
   9.20000  1.6130429E-02  4.9020213E-02  1.9645894E-02
   9.40000  1.7355377E-02  5.3272551E-02  2.0970771E-02
   9.60000  1.8649798E-02  5.7241545E-02  2.2238767E-02
   9.80000  2.0005222E-02  6.0638290E-02  2.3440680E-02
   10.0000  2.1409522E-02  6.3157462E-02  2.4577513E-02
   10.2500  2.3207448E-02  6.4686122E-02  2.5917665E-02
   10.5000  2.5010580E-02  6.4210129E-02  2.7182296E-02
   10.7500  2.6763307E-02  6.1901870E-02  2.8380612E-02
   11.0000  2.8403263E-02  5.8268915E-02  2.9511393E-02
   11.2500  2.9869505E-02  5.3936341E-02  3.0564315E-02
   11.5000  3.1113553E-02  4.9444389E-02  3.1526317E-02
   11.7500  3.2107950E-02  4.5156612E-02  3.2388785E-02
   12.0000  3.2849807E-02  4.1265723E-02  3.3150491E-02
   12.2500  3.3360724E-02  3.7842261E-02  3.3816483E-02
   12.5000  3.3681544E-02  3.4884414E-02  3.4395582E-02
   12.7500  3.3862449E-02  3.2354834E-02  3.4898754E-02
   13.0000  3.3953346E-02  3.0203819E-02  3.5338753E-02
   13.2500  3.3998545E-02  2.8381070E-02  3.5729889E-02
   13.5000  3.4034727E-02  2.6840454E-02  3.6087373E-02
   13.7500  3.4090216E-02  2.5541558E-02  3.6426307E-02
   14.0000  3.4184880E-02  2.4449890E-02  3.6760456E-02
   14.2500  3.4330454E-02  2.3536497E-02  3.7100989E-02
   14.5000  3.4531078E-02  2.2777351E-02  3.7455360E-02
   14.7500  3.4783957E-02  2.2152648E-02  3.7826471E-02
   15.0000  3.5080159E-02  2.1646109E-02  3.8212262E-02
   15.2500  3.5405638E-02  2.1244345E-02  3.8605818E-02
   15.5000  3.5742560E-02  2.0936298E-02  3.8996005E-02
   15.7500  3.6070951E-02  2.0712765E-02  3.9368631E-02
   16.0000  3.6370596E-02  2.0566017E-02  3.9707999E-02
   16.2500  3.6623017E-02  2.0489479E-02  3.9998676E-02
   16.5000  3.6813323E-02  2.0477487E-02  4.0227223E-02
   16.7500  3.6931677E-02  2.0525081E-02  4.0383599E-02
   17.0000  3.6974155E-02  2.0627842E-02  4.0462042E-02
   17.2500  3.6942877E-02  2.0781750E-02  4.0461307E-02
   17.5000  3.6845443E-02  2.0983066E-02  4.0384318E-02
   17.7500  3.6693797E-02  2.1228237E-02  4.0237381E-02
   18.0000  3.6502770E-02  2.1513812E-02  4.0029165E-02
   18.2500  3.6288542E-02  2.1836392E-02  3.9769650E-02
   18.5000  3.6067246E-02  2.2192604E-02  3.9469188E-02
   18.7500  3.5853860E-02  2.2579092E-02  3.9137748E-02
   19.0000  3.5661428E-02  2.2992563E-02  3.8784374E-02
   19.2500  3.5500610E-02  2.3429857E-02  3.8416816E-02
   19.5000  3.5379504E-02  2.3888059E-02  3.8041328E-02
   19.7500  3.5303640E-02  2.4364535E-02  3.7662627E-02
   20.0000  3.5276126E-02  2.4856765E-02  3.7284113E-02
   21.0000  3.5645541E-02  2.6917947E-02  3.5818083E-02
   22.0000  3.6624339E-02  2.8965256E-02  3.4481914E-02
   23.0000  3.7793213E-02  3.0807210E-02  3.3265796E-02
   24.0000  3.8573974E-02  3.2238276E-02  3.2126481E-02
   25.0000  3.8429486E-02  3.3077495E-02  3.1025464E-02
   26.0000  3.7142045E-02  3.3263038E-02  2.9961717E-02
   27.0000  3.4971556E-02  3.2887914E-02  2.8988133E-02
   28.0000  3.2493734E-02  3.2144293E-02  2.8186836E-02
   29.0000  3.0232346E-02  3.1232114E-02  2.7613501E-02
   30.0000  2.8412075E-02  3.0285295E-02  2.7253908E-02
   31.0000  2.7034690E-02  2.9369156E-02  2.7045246E-02
   32.0000  2.6016423E-02  2.8502214E-02  2.6912370E-02
   33.0000  2.5258062E-02  2.7673811E-02  2.6788911E-02
   34.0000  2.4672607E-02  2.6858828E-02  2.6625306E-02
   35.0000  2.4194058E-02  2.6030471E-02  2.6389224E-02
   36.0000  2.3779849E-02  2.5171621E-02  2.6065075E-02
   37.0000  2.3410078E-02  2.4284778E-02  2.5656002E-02
   38.0000  2.3082632E-02  2.3400255E-02  2.5187825E-02
   39.0000  2.2805220E-02  2.2581352E-02  2.4713031E-02
   40.0000  2.2587860E-02  2.1915080E-02  2.4306642E-02
