    Energy   (100,001)      (010,001)      (001,110)   
  -25.0000  1.7218318E-04  1.7694802E-04  1.6911677E-04
  -24.0000  1.7868677E-04  1.8393970E-04  1.7584313E-04
  -23.0000  1.8564899E-04  1.9145060E-04  1.8306383E-04
  -22.0000  1.9311827E-04  1.9953878E-04  1.9083305E-04
  -21.0000  2.0114993E-04  2.0827114E-04  1.9921300E-04
  -20.0000  2.0980751E-04  2.1772514E-04  2.0827542E-04
  -19.0000  2.1916428E-04  2.2799090E-04  2.1810351E-04
  -18.0000  2.2930513E-04  2.3917388E-04  2.2879420E-04
  -17.0000  2.4032903E-04  2.5139828E-04  2.4046114E-04
  -16.0000  2.5235194E-04  2.6481126E-04  2.5323840E-04
  -15.0000  2.6551067E-04  2.7958851E-04  2.6728516E-04
  -14.0000  2.7996767E-04  2.9594131E-04  2.8279190E-04
  -13.0000  2.9591728E-04  3.1412598E-04  2.9998832E-04
  -12.0000  3.1359395E-04  3.3445629E-04  3.1915392E-04
  -11.0000  3.3328297E-04  3.5732030E-04  3.4063209E-04
  -10.0000  3.5533502E-04  3.8320331E-04  3.6484937E-04
  -9.00000  3.8018592E-04  4.1271986E-04  3.9234197E-04
  -8.00000  4.0838398E-04  4.4665907E-04  4.2379328E-04
  -7.00000  4.4062881E-04  4.8605031E-04  4.6008780E-04
  -6.00000  4.7782736E-04  5.3226060E-04  5.0239096E-04
  -5.00000  5.2117725E-04  5.8714307E-04  5.5227036E-04
  -4.00000  5.7229434E-04  6.5327074E-04  6.1188664E-04
  -3.00000  6.3341556E-04  7.3431895E-04  6.8430633E-04
  -2.00000  7.0773609E-04  8.3572016E-04  7.7404105E-04
  -1.00000  8.0000234E-04  9.6585118E-04  8.8803706E-04
   0.00000  9.1763450E-04  1.1383488E-03  1.0376448E-03
   1.00000  1.0730742E-03  1.3770906E-03  1.2429905E-03
   2.00000  1.2894523E-03  1.7285019E-03  1.5442922E-03
   3.00000  1.6176752E-03  2.2991522E-03  2.0387313E-03
   4.00000  2.2103948E-03  3.4181100E-03  3.0528041E-03
   5.00000  3.7038483E-03  6.4755762E-03  6.0767118E-03
   5.20000  4.1692220E-03  7.4640907E-03  7.0490590E-03
   5.40000  4.6466451E-03  8.5018885E-03  8.0118845E-03
   5.60000  5.1245340E-03  9.5760344E-03  8.9202351E-03
   5.80000  5.6077942E-03  1.0706362E-02  9.7788304E-03
   6.00000  6.1079056E-03  1.1919638E-02  1.0613226E-02
   6.20000  6.6376369E-03  1.3234709E-02  1.1445313E-02
   6.40000  7.2095210E-03  1.4658218E-02  1.2282440E-02
   6.60000  7.8360022E-03  1.6187132E-02  1.3119964E-02
   6.80000  8.5303721E-03  1.7816420E-02  1.3953409E-02
   7.00000  9.3079777E-03  1.9549080E-02  1.4792488E-02
   7.20000  1.0187068E-02  2.1403642E-02  1.5667767E-02
   7.40000  1.1188385E-02  2.3415423E-02  1.6625626E-02
   7.60000  1.2332703E-02  2.5632126E-02  1.7715144E-02
   7.80000  1.3636572E-02  2.8107392E-02  1.8974846E-02
   8.00000  1.5108019E-02  3.0895319E-02  2.0425976E-02
   8.20000  1.6743997E-02  3.4045877E-02  2.2074438E-02
   8.40000  1.8529707E-02  3.7598355E-02  2.3917658E-02
   8.60000  2.0439172E-02  4.1568450E-02  2.5948496E-02
   8.80000  2.2436782E-02  4.5925789E-02  2.8151637E-02
   9.00000  2.4479287E-02  5.0563187E-02  3.0496372E-02
   9.20000  2.6518498E-02  5.5266086E-02  3.2932744E-02
   9.40000  2.8506030E-02  5.9699702E-02  3.5394477E-02
   9.60000  3.0400503E-02  6.3437224E-02  3.7807561E-02
   9.80000  3.2175025E-02  6.6043092E-02  4.0100790E-02
   10.0000  3.3820686E-02  6.7193564E-02  4.2213969E-02
   10.2500  3.5704182E-02  6.6442353E-02  4.4533464E-02
   10.5000  3.7404720E-02  6.3568753E-02  4.6438721E-02
   10.7500  3.8912050E-02  5.9258540E-02  4.7888774E-02
   11.0000  4.0198051E-02  5.4268091E-02  4.8853068E-02
   11.2500  4.1223407E-02  4.9201250E-02  4.9311074E-02
   11.5000  4.1939371E-02  4.4440663E-02  4.9260580E-02
   11.7500  4.2310128E-02  4.0178786E-02  4.8726769E-02
   12.0000  4.2340114E-02  3.6478610E-02  4.7768949E-02
   12.2500  4.2079179E-02  3.3327441E-02  4.6480570E-02
   12.5000  4.1608441E-02  3.0674493E-02  4.4979934E-02
   12.7500  4.1019168E-02  2.8454582E-02  4.3390729E-02
   13.0000  4.0394645E-02  2.6601713E-02  4.1819423E-02
   13.2500  3.9801188E-02  2.5055848E-02  4.0343303E-02
   13.5000  3.9286431E-02  2.3765310E-02  3.9011194E-02
   13.7500  3.8880764E-02  2.2686883E-02  3.7849189E-02
   14.0000  3.8599818E-02  2.1785136E-02  3.6866743E-02
   14.2500  3.8447002E-02  2.1031551E-02  3.6061704E-02
   14.5000  3.8415634E-02  2.0403530E-02  3.5423867E-02
   14.7500  3.8490624E-02  1.9883398E-02  3.4937272E-02
   15.0000  3.8649922E-02  1.9457484E-02  3.4581725E-02
   15.2500  3.8865983E-02  1.9115340E-02  3.4333898E-02
   15.5000  3.9107505E-02  1.8849081E-02  3.4168350E-02
   15.7500  3.9341557E-02  1.8652836E-02  3.4058688E-02
   16.0000  3.9536125E-02  1.8522288E-02  3.3978971E-02
   16.2500  3.9662866E-02  1.8454280E-02  3.3905323E-02
   16.5000  3.9699754E-02  1.8446467E-02  3.3817563E-02
   16.7500  3.9633192E-02  1.8497006E-02  3.3700550E-02
   17.0000  3.9459190E-02  1.8604294E-02  3.3544977E-02
   17.2500  3.9183365E-02  1.8766754E-02  3.3347426E-02
   17.5000  3.8819755E-02  1.8982684E-02  3.3109704E-02
   17.7500  3.8388686E-02  1.9250157E-02  3.2837629E-02
   18.0000  3.7914106E-02  1.9566984E-02  3.2539579E-02
   18.2500  3.7420856E-02  1.9930715E-02  3.2225048E-02
   18.5000  3.6932276E-02  2.0338683E-02  3.1903459E-02
   18.7500  3.6468396E-02  2.0788064E-02  3.1583296E-02
   19.0000  3.6044784E-02  2.1275978E-02  3.1271599E-02
   19.2500  3.5672021E-02  2.1799611E-02  3.0973725E-02
   19.5000  3.5355653E-02  2.2356338E-02  3.0693329E-02
   19.7500  3.5096450E-02  2.2943755E-02  3.0432485E-02
   20.0000  3.4890832E-02  2.3559408E-02  3.0191953E-02
   21.0000  3.4419267E-02  2.6227411E-02  2.9422634E-02
   22.0000  3.3933621E-02  2.8977416E-02  2.8893329E-02
   23.0000  3.2818101E-02  3.1436978E-02  2.8479557E-02
   24.0000  3.0990560E-02  3.3271162E-02  2.8076701E-02
   25.0000  2.8871115E-02  3.4279305E-02  2.7620963E-02
   26.0000  2.6961657E-02  3.4465621E-02  2.7106447E-02
   27.0000  2.5531828E-02  3.4005745E-02  2.6587329E-02
   28.0000  2.4600729E-02  3.3139539E-02  2.6142176E-02
   29.0000  2.4055079E-02  3.2081222E-02  2.5820842E-02
   30.0000  2.3752403E-02  3.0980707E-02  2.5612226E-02
   31.0000  2.3571806E-02  2.9919606E-02  2.5452249E-02
   32.0000  2.3427829E-02  2.8924250E-02  2.5256390E-02
   33.0000  2.3268630E-02  2.7986643E-02  2.4949714E-02
   34.0000  2.3070595E-02  2.7084593E-02  2.4482446E-02
   35.0000  2.2832773E-02  2.6196150E-02  2.3836890E-02
   36.0000  2.2570976E-02  2.5308738E-02  2.3035138E-02
   37.0000  2.2309766E-02  2.4425355E-02  2.2145839E-02
   38.0000  2.2073062E-02  2.3570507E-02  2.1276627E-02
   39.0000  2.1877263E-02  2.2795476E-02  2.0539533E-02
   40.0000  2.1729550E-02  2.2171554E-02  1.9998447E-02
