    Energy   (100,001)      (010,001)      (001,110)   
  -25.0000  1.7418045E-04  1.8457961E-04  1.7438777E-04
  -24.0000  1.8070966E-04  1.9146709E-04  1.8110029E-04
  -23.0000  1.8769761E-04  1.9884509E-04  1.8829565E-04
  -22.0000  1.9519273E-04  2.0676674E-04  1.9602592E-04
  -21.0000  2.0325040E-04  2.1529300E-04  2.0435077E-04
  -20.0000  2.1193422E-04  2.2449420E-04  2.1333894E-04
  -19.0000  2.2131758E-04  2.3445185E-04  2.2306993E-04
  -18.0000  2.3148560E-04  2.4526095E-04  2.3363625E-04
  -17.0000  2.4253754E-04  2.5703290E-04  2.4514610E-04
  -16.0000  2.5458986E-04  2.6989912E-04  2.5772685E-04
  -15.0000  2.6778006E-04  2.8401571E-04  2.7152940E-04
  -14.0000  2.8227161E-04  2.9956954E-04  2.8673388E-04
  -13.0000  2.9826036E-04  3.1678602E-04  3.0355693E-04
  -12.0000  3.1598293E-04  3.3593959E-04  3.2226148E-04
  -11.0000  3.3572779E-04  3.5736757E-04  3.4316962E-04
  -10.0000  3.5785027E-04  3.8148915E-04  3.6668016E-04
  -9.00000  3.8279301E-04  4.0883146E-04  3.9329278E-04
  -8.00000  4.1111453E-04  4.4006639E-04  4.2364195E-04
  -7.00000  4.4352969E-04  4.7606340E-04  4.5854554E-04
  -6.00000  4.8096879E-04  5.1796725E-04  4.9907622E-04
  -5.00000  5.2466563E-04  5.6731537E-04  5.4666935E-04
  -4.00000  5.7629361E-04  6.2622115E-04  6.0329120E-04
  -3.00000  6.3818361E-04  6.9767081E-04  6.7171200E-04
  -2.00000  7.1368978E-04  7.8602744E-04  7.5597013E-04
  -1.00000  8.0784004E-04  8.9793735E-04  8.6220885E-04
   0.00000  9.2858448E-04  1.0440864E-03  1.0003016E-03
   1.00000  1.0894508E-03  1.2429655E-03  1.1873380E-03
   2.00000  1.3160973E-03  1.5301968E-03  1.4562151E-03
   3.00000  1.6666393E-03  1.9873431E-03  1.8817233E-03
   4.00000  2.3228692E-03  2.8690743E-03  2.6913825E-03
   5.00000  4.0630949E-03  5.2657499E-03  4.8452197E-03
   5.20000  4.5971868E-03  6.0291099E-03  5.5616933E-03
   5.40000  5.1257268E-03  6.8159305E-03  6.3410861E-03
   5.60000  5.6322599E-03  7.6106019E-03  7.1764313E-03
   5.80000  6.1242997E-03  8.4230923E-03  8.0770744E-03
   6.00000  6.6190247E-03  9.2692497E-03  9.0556698E-03
   6.20000  7.1362271E-03  1.0161417E-02  1.0121001E-02
   6.40000  7.6963477E-03  1.1106326E-02  1.1274712E-02
   6.60000  8.3197061E-03  1.2105364E-02  1.2509048E-02
   6.80000  9.0257758E-03  1.3155951E-02  1.3805527E-02
   7.00000  9.8327835E-03  1.4254605E-02  1.5136154E-02
   7.20000  1.0758090E-02  1.5402222E-02  1.6468895E-02
   7.40000  1.1819161E-02  1.6610600E-02  1.7777145E-02
   7.60000  1.3034141E-02  1.7907359E-02  1.9049436E-02
   7.80000  1.4421074E-02  1.9336473E-02  2.0293978E-02
   8.00000  1.5995608E-02  2.0954070E-02  2.1535287E-02
   8.20000  1.7767708E-02  2.2821723E-02  2.2804847E-02
   8.40000  1.9737914E-02  2.4999859E-02  2.4130368E-02
   8.60000  2.1893635E-02  2.7542119E-02  2.5527203E-02
   8.80000  2.4206095E-02  3.0489319E-02  2.6993120E-02
   9.00000  2.6628722E-02  3.3860816E-02  2.8506420E-02
   9.20000  2.9097182E-02  3.7641696E-02  3.0028037E-02
   9.40000  3.1530421E-02  4.1766063E-02  3.1508960E-02
   9.60000  3.3834316E-02  4.6100078E-02  3.2901828E-02
   9.80000  3.5911244E-02  5.0432476E-02  3.4172495E-02
   10.0000  3.7674440E-02  5.4482681E-02  3.5307966E-02
   10.2500  3.9345542E-02  5.8667377E-02  3.6553870E-02
   10.5000  4.0382173E-02  6.1367299E-02  3.7658821E-02
   10.7500  4.0813527E-02  6.2277412E-02  3.8682858E-02
   11.0000  4.0728360E-02  6.1428373E-02  3.9654826E-02
   11.2500  4.0248296E-02  5.9129880E-02  4.0554174E-02
   11.5000  3.9505148E-02  5.5828042E-02  4.1322390E-02
   11.7500  3.8625644E-02  5.1971776E-02  4.1890968E-02
   12.0000  3.7720155E-02  4.7936003E-02  4.2208143E-02
   12.2500  3.6875118E-02  4.3992648E-02  4.2253837E-02
   12.5000  3.6150179E-02  4.0312995E-02  4.2042442E-02
   12.7500  3.5579585E-02  3.6987514E-02  4.1616923E-02
   13.0000  3.5176616E-02  3.4049045E-02  4.1037006E-02
   13.2500  3.4939066E-02  3.1493179E-02  4.0366284E-02
   13.5000  3.4854249E-02  2.9294339E-02  3.9663349E-02
   13.7500  3.4902894E-02  2.7417148E-02  3.8977366E-02
   14.0000  3.5061820E-02  2.5823621E-02  3.8346331E-02
   14.2500  3.5305658E-02  2.4477201E-02  3.7796867E-02
   14.5000  3.5607968E-02  2.3344706E-02  3.7344973E-02
   14.7500  3.5942052E-02  2.2397012E-02  3.6997236E-02
   15.0000  3.6281686E-02  2.1609064E-02  3.6752191E-02
   15.2500  3.6601886E-02  2.0959547E-02  3.6601679E-02
   15.5000  3.6879746E-02  2.0430442E-02  3.6532173E-02
   15.7500  3.7095307E-02  2.0006545E-02  3.6526122E-02
   16.0000  3.7232412E-02  1.9675023E-02  3.6563367E-02
   16.2500  3.7279460E-02  1.9425026E-02  3.6622672E-02
   16.5000  3.7229992E-02  1.9247367E-02  3.6683311E-02
   16.7500  3.7083004E-02  1.9134262E-02  3.6726613E-02
   17.0000  3.6842925E-02  1.9079128E-02  3.6737298E-02
   17.2500  3.6519213E-02  1.9076421E-02  3.6704401E-02
   17.5000  3.6125569E-02  1.9121503E-02  3.6621683E-02
   17.7500  3.5678830E-02  1.9210526E-02  3.6487479E-02
   18.0000  3.5197654E-02  1.9340322E-02  3.6304078E-02
   18.2500  3.4701149E-02  1.9508299E-02  3.6076787E-02
   18.5000  3.4207608E-02  1.9712345E-02  3.5812861E-02
   18.7500  3.3733481E-02  1.9950744E-02  3.5520475E-02
   19.0000  3.3292665E-02  2.0222121E-02  3.5207838E-02
   19.2500  3.2896101E-02  2.0525406E-02  3.4882505E-02
   19.5000  3.2551654E-02  2.0859828E-02  3.4550901E-02
   19.7500  3.2264219E-02  2.1224854E-02  3.4218074E-02
   20.0000  3.2036036E-02  2.1619995E-02  3.3887750E-02
   21.0000  3.1698608E-02  2.3478199E-02  3.2637934E-02
   22.0000  3.2118002E-02  2.5701793E-02  3.1535255E-02
   23.0000  3.2904045E-02  2.8122813E-02  3.0521391E-02
   24.0000  3.3520834E-02  3.0476584E-02  2.9513220E-02
   25.0000  3.3452164E-02  3.2540361E-02  2.8468802E-02
   26.0000  3.2488491E-02  3.4151644E-02  2.7408590E-02
   27.0000  3.0871717E-02  3.5205077E-02  2.6403279E-02
   28.0000  2.9088949E-02  3.5679199E-02  2.5539987E-02
   29.0000  2.7538114E-02  3.5645914E-02  2.4883824E-02
   30.0000  2.6378862E-02  3.5234914E-02  2.4450287E-02
   31.0000  2.5586214E-02  3.4579122E-02  2.4199975E-02
   32.0000  2.5057676E-02  3.3778736E-02  2.4055917E-02
   33.0000  2.4684162E-02  3.2892385E-02  2.3931299E-02
   34.0000  2.4379447E-02  3.1945803E-02  2.3754136E-02
   35.0000  2.4087463E-02  3.0947185E-02  2.3483226E-02
   36.0000  2.3780932E-02  2.9903098E-02  2.3116760E-02
   37.0000  2.3455885E-02  2.8831960E-02  2.2692665E-02
   38.0000  2.3124649E-02  2.7774418E-02  2.2274535E-02
   39.0000  2.2811503E-02  2.6801740E-02  2.1922420E-02
   40.0000  2.2550488E-02  2.6012816E-02  2.1664901E-02
