    Energy   (100,001)      (010,001)      (001,110)   
  -25.0000  1.7458312E-04  1.8521999E-04  1.8699866E-04
  -24.0000  1.8048309E-04  1.9235477E-04  1.9317270E-04
  -23.0000  1.8676086E-04  2.0001059E-04  1.9973951E-04
  -22.0000  1.9345319E-04  2.0824502E-04  2.0673734E-04
  -21.0000  2.0060171E-04  2.1712431E-04  2.1420955E-04
  -20.0000  2.0825382E-04  2.2672503E-04  2.2220550E-04
  -19.0000  2.1646367E-04  2.3713619E-04  2.3078161E-04
  -18.0000  2.2529345E-04  2.4846180E-04  2.4000272E-04
  -17.0000  2.3481494E-04  2.6082413E-04  2.4994367E-04
  -16.0000  2.4511142E-04  2.7436788E-04  2.6069133E-04
  -15.0000  2.5628012E-04  2.8926548E-04  2.7234716E-04
  -14.0000  2.6843527E-04  3.0572400E-04  2.8503041E-04
  -13.0000  2.8171206E-04  3.2399418E-04  2.9888221E-04
  -12.0000  2.9627170E-04  3.4438245E-04  3.1407094E-04
  -11.0000  3.1230817E-04  3.6726705E-04  3.3079917E-04
  -10.0000  3.3005707E-04  3.9312016E-04  3.4931297E-04
  -9.00000  3.4980778E-04  4.2253856E-04  3.6991449E-04
  -8.00000  3.7192006E-04  4.5628712E-04  3.9297928E-04
  -7.00000  3.9684762E-04  4.9536172E-04  4.1898064E-04
  -6.00000  4.2517204E-04  5.4108258E-04  4.4852477E-04
  -5.00000  4.5765343E-04  5.9523664E-04  4.8240296E-04
  -4.00000  4.9530833E-04  6.6030209E-04  5.2167174E-04
  -3.00000  5.3953504E-04  7.3981663E-04  5.6778143E-04
  -2.00000  5.9232585E-04  8.3901135E-04  6.2279308E-04
  -1.00000  6.5665103E-04  9.6596849E-04  6.8977000E-04
   0.00000  7.3721591E-04  1.1339061E-03  7.7354808E-04
   1.00000  8.4213720E-04  1.3661780E-03  8.8243893E-04
   2.00000  9.8731345E-04  1.7089460E-03  1.0326673E-03
   3.00000  1.2109541E-03  2.2713200E-03  1.2631075E-03
   4.00000  1.6438559E-03  3.4070275E-03  1.7062864E-03
   5.00000  2.8818683E-03  6.6682626E-03  2.9730178E-03
   5.20000  3.2545706E-03  7.7089588E-03  3.3664822E-03
   5.40000  3.6038621E-03  8.7643985E-03  3.7461129E-03
   5.60000  3.9149546E-03  9.8073451E-03  4.0914951E-03
   5.80000  4.1939678E-03  1.0849088E-02  4.3989668E-03
   6.00000  4.4542767E-03  1.1911914E-02  4.6719518E-03
   6.20000  4.7099137E-03  1.3017545E-02  4.9173805E-03
   6.40000  4.9734493E-03  1.4185534E-02  5.1450411E-03
   6.60000  5.2545753E-03  1.5433421E-02  5.3666323E-03
   6.80000  5.5588445E-03  1.6776604E-02  5.5943100E-03
   7.00000  5.8877709E-03  1.8228481E-02  5.8394898E-03
   7.20000  6.2409278E-03  1.9801289E-02  6.1122924E-03
   7.40000  6.6188156E-03  2.1507323E-02  6.4214549E-03
   7.60000  7.0246343E-03  2.3360036E-02  6.7743956E-03
   7.80000  7.4643020E-03  2.5374570E-02  7.1772689E-03
   8.00000  7.9453419E-03  2.7567317E-02  7.6349875E-03
   8.20000  8.4754872E-03  2.9954235E-02  8.1512327E-03
   8.40000  9.0614330E-03  3.2547755E-02  8.7284510E-03
   8.60000  9.7077938E-03  3.5352197E-02  9.3678101E-03
   8.80000  1.0416207E-02  3.8357684E-02  1.0069091E-02
   9.00000  1.1184559E-02  4.1532690E-02  1.0830528E-02
   9.20000  1.2006409E-02  4.4816191E-02  1.1648636E-02
   9.40000  1.2870761E-02  4.8111633E-02  1.2518096E-02
   9.60000  1.3762400E-02  5.1285825E-02  1.3431827E-02
   9.80000  1.4662991E-02  5.4176126E-02  1.4381413E-02
   10.0000  1.5552862E-02  5.6608211E-02  1.5357819E-02
   10.2500  1.6621579E-02  5.8765226E-02  1.6602681E-02
   10.5000  1.7614897E-02  5.9754730E-02  1.7861482E-02
   10.7500  1.8518307E-02  5.9536033E-02  1.9126229E-02
   11.0000  1.9334774E-02  5.8226098E-02  2.0395946E-02
   11.2500  2.0080991E-02  5.6045047E-02  2.1673830E-02
   11.5000  2.0779777E-02  5.3251033E-02  2.2962255E-02
   11.7500  2.1452636E-02  5.0091979E-02  2.4257822E-02
   12.0000  2.2115636E-02  4.6781942E-02  2.5548853E-02
   12.2500  2.2779716E-02  4.3492297E-02  2.6816783E-02
   12.5000  2.3453238E-02  4.0349327E-02  2.8039822E-02
   12.7500  2.4143426E-02  3.7436086E-02  2.9196601E-02
   13.0000  2.4856764E-02  3.4798141E-02  3.0269775E-02
   13.2500  2.5599334E-02  3.2451634E-02  3.1249187E-02
   13.5000  2.6376674E-02  3.0391734E-02  3.2133150E-02
   13.7500  2.7192962E-02  2.8600421E-02  3.2927849E-02
   14.0000  2.8050094E-02  2.7052980E-02  3.3645602E-02
   14.2500  2.8947223E-02  2.5722884E-02  3.4302467E-02
   14.5000  2.9880676E-02  2.4584904E-02  3.4915705E-02
   14.7500  3.0843833E-02  2.3616494E-02  3.5501461E-02
   15.0000  3.1826933E-02  2.2798072E-02  3.6072847E-02
   15.2500  3.2817052E-02  2.2112825E-02  3.6638517E-02
   15.5000  3.3798409E-02  2.1546358E-02  3.7201875E-02
   15.7500  3.4752990E-02  2.1086327E-02  3.7760915E-02
   16.0000  3.5661471E-02  2.0722087E-02  3.8308676E-02
   16.2500  3.6504365E-02  2.0444390E-02  3.8834194E-02
   16.5000  3.7263302E-02  2.0245131E-02  3.9323841E-02
   16.7500  3.7922298E-02  2.0117142E-02  3.9762891E-02
   17.0000  3.8468888E-02  2.0054028E-02  4.0137150E-02
   17.2500  3.8894961E-02  2.0050045E-02  4.0434474E-02
   17.5000  3.9197207E-02  2.0100016E-02  4.0645989E-02
   17.7500  3.9377130E-02  2.0199267E-02  4.0766882E-02
   18.0000  3.9440685E-02  2.0343591E-02  4.0796684E-02
   18.2500  3.9397600E-02  2.0529216E-02  4.0739061E-02
   18.5000  3.9260539E-02  2.0752789E-02  4.0601177E-02
   18.7500  3.9044181E-02  2.1011364E-02  4.0392792E-02
   19.0000  3.8764304E-02  2.1302401E-02  4.0125206E-02
   19.2500  3.8436900E-02  2.1623776E-02  3.9810214E-02
   19.5000  3.8077383E-02  2.1973797E-02  3.9459163E-02
   19.7500  3.7699977E-02  2.2351146E-02  3.9082276E-02
   20.0000  3.7317537E-02  2.2754661E-02  3.8688418E-02
   21.0000  3.5963442E-02  2.4595114E-02  3.7088065E-02
   22.0000  3.5262978E-02  2.6696628E-02  3.5662917E-02
   23.0000  3.5365741E-02  2.8901992E-02  3.4489356E-02
   24.0000  3.6118629E-02  3.0989293E-02  3.3525389E-02
   25.0000  3.7161138E-02  3.2698564E-02  3.2699238E-02
   26.0000  3.8008139E-02  3.3820665E-02  3.1945931E-02
   27.0000  3.8215923E-02  3.4287208E-02  3.1229395E-02
   28.0000  3.7599584E-02  3.4187329E-02  3.0554718E-02
   29.0000  3.6313400E-02  3.3700950E-02  2.9959865E-02
   30.0000  3.4702160E-02  3.3008496E-02  2.9487741E-02
   31.0000  3.3084188E-02  3.2234621E-02  2.9160165E-02
   32.0000  3.1644664E-02  3.1437431E-02  2.8971262E-02
   33.0000  3.0445598E-02  3.0625589E-02  2.8896435E-02
   34.0000  2.9474481E-02  2.9790121E-02  2.8905736E-02
   35.0000  2.8687225E-02  2.8926338E-02  2.8972352E-02
   36.0000  2.8039939E-02  2.8027873E-02  2.9072918E-02
   37.0000  2.7499707E-02  2.7099721E-02  2.9187626E-02
   38.0000  2.7045777E-02  2.6172865E-02  2.9299337E-02
   39.0000  2.6670675E-02  2.5310916E-02  2.9393145E-02
   40.0000  2.6379695E-02  2.4606016E-02  2.9460840E-02
