    Energy   (100,001)      (010,001)      (001,110)   
  -25.0000  1.6790727E-04  1.8306079E-04  1.7802398E-04
  -24.0000  1.7392515E-04  1.8994925E-04  1.8440037E-04
  -23.0000  1.8034574E-04  1.9733061E-04  1.9120858E-04
  -22.0000  1.8720956E-04  2.0525836E-04  1.9849283E-04
  -21.0000  1.9456269E-04  2.1379389E-04  2.0630356E-04
  -20.0000  2.0245775E-04  2.2300802E-04  2.1469847E-04
  -19.0000  2.1095508E-04  2.3298286E-04  2.2374394E-04
  -18.0000  2.2012425E-04  2.4381408E-04  2.3351671E-04
  -17.0000  2.3004585E-04  2.5561388E-04  2.4410596E-04
  -16.0000  2.4081378E-04  2.6851464E-04  2.5561593E-04
  -15.0000  2.5253815E-04  2.8267360E-04  2.6816927E-04
  -14.0000  2.6534891E-04  2.9827895E-04  2.8191131E-04
  -13.0000  2.7940060E-04  3.1555775E-04  2.9701551E-04
  -12.0000  2.9487847E-04  3.3478641E-04  3.1369074E-04
  -11.0000  3.1200662E-04  3.5630470E-04  3.3219082E-04
  -10.0000  3.3105888E-04  3.8053479E-04  3.5282741E-04
  -9.00000  3.5237370E-04  4.0800764E-04  3.7598777E-04
  -8.00000  3.7637481E-04  4.3940002E-04  4.0215954E-04
  -7.00000  4.0360065E-04  4.7558787E-04  4.3196622E-04
  -6.00000  4.3474726E-04  5.1772468E-04  4.6621937E-04
  -5.00000  4.7073291E-04  5.6736029E-04  5.0599768E-04
  -4.00000  5.1279883E-04  6.2662643E-04  5.5277144E-04
  -3.00000  5.6267340E-04  6.9853826E-04  6.0860730E-04
  -2.00000  6.2285458E-04  7.8750792E-04  6.7652428E-04
  -1.00000  6.9713007E-04  9.0027239E-04  7.6115785E-04
   0.00000  7.9162393E-04  1.0477037E-03  8.7011596E-04
   1.00000  9.1716813E-04  1.2487266E-03  1.0171061E-03
   2.00000  1.0956462E-03  1.5401528E-03  1.2304769E-03
   3.00000  1.3816700E-03  2.0076489E-03  1.5831292E-03
   4.00000  1.9702625E-03  2.9259867E-03  2.3450836E-03
   5.00000  3.7725248E-03  5.4912833E-03  4.8046189E-03
   5.20000  4.3127640E-03  6.2949036E-03  5.5309493E-03
   5.40000  4.8018903E-03  7.0993935E-03  6.1573413E-03
   5.60000  5.2145755E-03  7.8834800E-03  6.6398299E-03
   5.80000  5.5627978E-03  8.6585196E-03  6.9945658E-03
   6.00000  5.8713323E-03  9.4452028E-03  7.2623218E-03
   6.20000  6.1628146E-03  1.0262798E-02  7.4854141E-03
   6.40000  6.4530050E-03  1.1127290E-02  7.6984671E-03
   6.60000  6.7516587E-03  1.2052402E-02  7.9266754E-03
   6.80000  7.0652842E-03  1.3051093E-02  8.1875448E-03
   7.00000  7.3994459E-03  1.4136813E-02  8.4936468E-03
   7.20000  7.7599022E-03  1.5324464E-02  8.8549653E-03
   7.40000  8.1528935E-03  1.6631078E-02  9.2802645E-03
   7.60000  8.5850870E-03  1.8075899E-02  9.7774548E-03
   7.80000  9.0634186E-03  1.9679805E-02  1.0353204E-02
   8.00000  9.5948284E-03  2.1464255E-02  1.1012111E-02
   8.20000  1.0185809E-02  2.3450075E-02  1.1755780E-02
   8.40000  1.0841751E-02  2.5656258E-02  1.2582219E-02
   8.60000  1.1566167E-02  2.8098658E-02  1.3485964E-02
   8.80000  1.2359925E-02  3.0788075E-02  1.4459131E-02
   9.00000  1.3220587E-02  3.3727247E-02  1.5493287E-02
   9.20000  1.4141906E-02  3.6906309E-02  1.6581706E-02
   9.40000  1.5113746E-02  4.0295259E-02  1.7720964E-02
   9.60000  1.6123009E-02  4.3832161E-02  1.8910695E-02
   9.80000  1.7155468E-02  4.7410576E-02  2.0151817E-02
   10.0000  1.8197330E-02  5.0873639E-02  2.1444142E-02
   10.2500  1.9493313E-02  5.4731403E-02  2.3124066E-02
   10.5000  2.0760570E-02  5.7664170E-02  2.4851889E-02
   10.7500  2.1978494E-02  5.9313352E-02  2.6586198E-02
   11.0000  2.3130336E-02  5.9509875E-02  2.8277252E-02
   11.2500  2.4204854E-02  5.8327394E-02  2.9877882E-02
   11.5000  2.5197923E-02  5.6040580E-02  3.1348426E-02
   11.7500  2.6112455E-02  5.3020742E-02  3.2656741E-02
   12.0000  2.6956714E-02  4.9631285E-02  3.3780866E-02
   12.2500  2.7742540E-02  4.6163413E-02  3.4712298E-02
   12.5000  2.8483690E-02  4.2816221E-02  3.5456474E-02
   12.7500  2.9194016E-02  3.9705933E-02  3.6030974E-02
   13.0000  2.9885207E-02  3.6887568E-02  3.6462478E-02
   13.2500  3.0565037E-02  3.4377016E-02  3.6783131E-02
   13.5000  3.1237565E-02  3.2167230E-02  3.7026819E-02
   13.7500  3.1904527E-02  3.0238605E-02  3.7225874E-02
   14.0000  3.2566516E-02  2.8565701E-02  3.7408622E-02
   14.2500  3.3223582E-02  2.7121534E-02  3.7597886E-02
   14.5000  3.3875378E-02  2.5880087E-02  3.7810238E-02
   14.7500  3.4520987E-02  2.4817590E-02  3.8055754E-02
   15.0000  3.5158565E-02  2.3912996E-02  3.8338054E-02
   15.2500  3.5784944E-02  2.3148011E-02  3.8654562E-02
   15.5000  3.6395348E-02  2.2506883E-02  3.8997017E-02
   15.7500  3.6983315E-02  2.1976099E-02  3.9352314E-02
   16.0000  3.7540926E-02  2.1544060E-02  3.9703760E-02
   16.2500  3.8059352E-02  2.1200780E-02  4.0032726E-02
   16.5000  3.8529651E-02  2.0937618E-02  4.0320569E-02
   16.7500  3.8943734E-02  2.0747054E-02  4.0550560E-02
   17.0000  3.9295321E-02  2.0622496E-02  4.0709539E-02
   17.2500  3.9580758E-02  2.0558112E-02  4.0789028E-02
   17.5000  3.9799537E-02  2.0548699E-02  4.0785677E-02
   17.7500  3.9954453E-02  2.0589576E-02  4.0701041E-02
   18.0000  4.0051380E-02  2.0676496E-02  4.0540823E-02
   18.2500  4.0098735E-02  2.0805596E-02  4.0313811E-02
   18.5000  4.0106707E-02  2.0973353E-02  4.0030717E-02
   18.7500  4.0086408E-02  2.1176569E-02  3.9703083E-02
   19.0000  4.0049021E-02  2.1412374E-02  3.9342361E-02
   19.2500  4.0005057E-02  2.1678242E-02  3.8959190E-02
   19.5000  3.9963743E-02  2.1972026E-02  3.8562883E-02
   19.7500  3.9932585E-02  2.2291933E-02  3.8161152E-02
   20.0000  3.9917138E-02  2.2636345E-02  3.7760178E-02
   21.0000  4.0059933E-02  2.4218048E-02  3.6256204E-02
   22.0000  4.0462849E-02  2.6023473E-02  3.5023045E-02
   23.0000  4.0776309E-02  2.7922591E-02  3.4020618E-02
   24.0000  4.0513630E-02  2.9770712E-02  3.3098780E-02
   25.0000  3.9339095E-02  3.1418655E-02  3.2125685E-02
   26.0000  3.7276580E-02  3.2737305E-02  3.1064585E-02
   27.0000  3.4669639E-02  3.3638849E-02  2.9971441E-02
   28.0000  3.1988142E-02  3.4097933E-02  2.8954156E-02
   29.0000  2.9626297E-02  3.4158559E-02  2.8118778E-02
   30.0000  2.7750140E-02  3.3900805E-02  2.7506039E-02
   31.0000  2.6355541E-02  3.3407228E-02  2.7097529E-02
   32.0000  2.5365247E-02  3.2744659E-02  2.6843933E-02
   33.0000  2.4681554E-02  3.1959395E-02  2.6684946E-02
   34.0000  2.4212326E-02  3.1081159E-02  2.6562704E-02
   35.0000  2.3879809E-02  3.0129911E-02  2.6428523E-02
   36.0000  2.3621153E-02  2.9123504E-02  2.6246201E-02
   37.0000  2.3387696E-02  2.8086214E-02  2.5995708E-02
   38.0000  2.3148044E-02  2.7058637E-02  2.5679021E-02
   39.0000  2.2898060E-02  2.6109265E-02  2.5327711E-02
   40.0000  2.2668401E-02  2.5335991E-02  2.5006817E-02
