    Energy   (100,001)      (010,001)      (001,110)   
  -25.0000  1.6619108E-04  1.8670920E-04  1.8263176E-04
  -24.0000  1.7194097E-04  1.9365729E-04  1.8889379E-04
  -23.0000  1.7806104E-04  2.0109990E-04  1.9556528E-04
  -22.0000  1.8458708E-04  2.0909055E-04  2.0268695E-04
  -21.0000  1.9155957E-04  2.1769067E-04  2.1030512E-04
  -20.0000  1.9902448E-04  2.2697110E-04  2.1847259E-04
  -19.0000  2.0703428E-04  2.3701395E-04  2.2724993E-04
  -18.0000  2.1564903E-04  2.4791490E-04  2.3670686E-04
  -17.0000  2.2493793E-04  2.5978612E-04  2.4692414E-04
  -16.0000  2.3498101E-04  2.7275993E-04  2.5799577E-04
  -15.0000  2.4587143E-04  2.8699349E-04  2.7003192E-04
  -14.0000  2.5771828E-04  3.0267485E-04  2.8316247E-04
  -13.0000  2.7065013E-04  3.2003090E-04  2.9754177E-04
  -12.0000  2.8481969E-04  3.3933774E-04  3.1335465E-04
  -11.0000  3.0040975E-04  3.6093478E-04  3.3082444E-04
  -10.0000  3.1764120E-04  3.8524370E-04  3.5022371E-04
  -9.00000  3.3678362E-04  4.1279478E-04  3.7188876E-04
  -8.00000  3.5816987E-04  4.4426397E-04  3.9623984E-04
  -7.00000  3.8221641E-04  4.8052616E-04  4.2380960E-04
  -6.00000  4.0945236E-04  5.2273371E-04  4.5528439E-04
  -5.00000  4.4056213E-04  5.7243537E-04  4.9156577E-04
  -4.00000  4.7645032E-04  6.3176246E-04  5.3386526E-04
  -3.00000  5.1834439E-04  7.0373206E-04  5.8385621E-04
  -2.00000  5.6796586E-04  7.9276466E-04  6.4392944E-04
  -1.00000  6.2783466E-04  9.0562352E-04  7.1765062E-04
   0.00000  7.0185859E-04  1.0532578E-03  8.1064587E-04
   1.00000  7.9661503E-04  1.2548253E-03  9.3250843E-04
   2.00000  9.2463541E-04  1.5479196E-03  1.1015682E-03
   3.00000  1.1151602E-03  2.0213758E-03  1.3598560E-03
   4.00000  1.4655855E-03  2.9676500E-03  1.8404569E-03
   5.00000  2.4114359E-03  5.6786352E-03  3.1168895E-03
   5.20000  2.6925693E-03  6.5102028E-03  3.5140434E-03
   5.40000  2.9585948E-03  7.3140477E-03  3.9170071E-03
   5.60000  3.2007382E-03  8.0637871E-03  4.3198351E-03
   5.80000  3.4246043E-03  8.7745325E-03  4.7311756E-03
   6.00000  3.6394722E-03  9.4745535E-03  5.1610480E-03
   6.20000  3.8536283E-03  1.0191787E-02  5.6149499E-03
   6.40000  4.0736479E-03  1.0951108E-02  6.0946502E-03
   6.60000  4.3047590E-03  1.1774879E-02  6.6025620E-03
   6.80000  4.5513272E-03  1.2683871E-02  7.1458849E-03
   7.00000  4.8172407E-03  1.3697923E-02  7.7369512E-03
   7.20000  5.1061085E-03  1.4836412E-02  8.3895522E-03
   7.40000  5.4212875E-03  1.6118757E-02  9.1141021E-03
   7.60000  5.7658493E-03  1.7564948E-02  9.9140720E-03
   7.80000  6.1425971E-03  1.9195975E-02  1.0784115E-02
   8.00000  6.5541835E-03  2.1033978E-02  1.1709411E-02
   8.20000  7.0033027E-03  2.3102015E-02  1.2666132E-02
   8.40000  7.4928246E-03  2.5423270E-02  1.3623411E-02
   8.60000  8.0256715E-03  2.8019260E-02  1.4547170E-02
   8.80000  8.6043146E-03  3.0905574E-02  1.5405549E-02
   9.00000  9.2299542E-03  3.4082930E-02  1.6174957E-02
   9.20000  9.9015626E-03  3.7522169E-02  1.6845080E-02
   9.40000  1.0615132E-02  4.1144971E-02  1.7421339E-02
   9.60000  1.1363669E-02  4.4807607E-02  1.7923941E-02
   9.80000  1.2138445E-02  4.8301037E-02  1.8383574E-02
   10.0000  1.2931523E-02  5.1379872E-02  1.8834721E-02
   10.2500  1.3942395E-02  5.4308953E-02  1.9433269E-02
   10.5000  1.4977387E-02  5.5993323E-02  2.0106361E-02
   10.7500  1.6045244E-02  5.6458559E-02  2.0865272E-02
   11.0000  1.7149595E-02  5.5932848E-02  2.1697282E-02
   11.2500  1.8279714E-02  5.4702664E-02  2.2576907E-02
   11.5000  1.9410576E-02  5.3010468E-02  2.3476674E-02
   11.7500  2.0510985E-02  5.1022302E-02  2.4374129E-02
   12.0000  2.1554004E-02  4.8835032E-02  2.5254637E-02
   12.2500  2.2523192E-02  4.6502096E-02  2.6110433E-02
   12.5000  2.3414311E-02  4.4064599E-02  2.6937455E-02
   12.7500  2.4235446E-02  4.1570610E-02  2.7732886E-02
   13.0000  2.5004910E-02  3.9078368E-02  2.8494444E-02
   13.2500  2.5746247E-02  3.6650216E-02  2.9221009E-02
   13.5000  2.6482942E-02  3.4343995E-02  2.9914067E-02
   13.7500  2.7235061E-02  3.2205951E-02  3.0579072E-02
   14.0000  2.8017934E-02  3.0266998E-02  3.1225913E-02
   14.2500  2.8842102E-02  2.8542476E-02  3.1868172E-02
   14.5000  2.9713774E-02  2.7034440E-02  3.2521455E-02
   14.7500  3.0635364E-02  2.5735171E-02  3.3201338E-02
   15.0000  3.1605904E-02  2.4630789E-02  3.3921373E-02
   15.2500  3.2621282E-02  2.3704292E-02  3.4691438E-02
   15.5000  3.3674345E-02  2.2937772E-02  3.5516467E-02
   15.7500  3.4754920E-02  2.2313849E-02  3.6395555E-02
   16.0000  3.5849813E-02  2.1816445E-02  3.7321378E-02
   16.2500  3.6942878E-02  2.1431114E-02  3.8279946E-02
   16.5000  3.8015236E-02  2.1145085E-02  3.9250775E-02
   16.7500  3.9045751E-02  2.0947145E-02  4.0207600E-02
   17.0000  4.0011838E-02  2.0827462E-02  4.1119776E-02
   17.2500  4.0890628E-02  2.0777389E-02  4.1954431E-02
   17.5000  4.1660484E-02  2.0789281E-02  4.2679257E-02
   17.7500  4.2302727E-02  2.0856346E-02  4.3265668E-02
   18.0000  4.2803393E-02  2.0972516E-02  4.3691834E-02
   18.2500  4.3154728E-02  2.1132358E-02  4.3945030E-02
   18.5000  4.3356164E-02  2.1330998E-02  4.4022839E-02
   18.7500  4.3414544E-02  2.1564087E-02  4.3932936E-02
   19.0000  4.3343509E-02  2.1827778E-02  4.3691548E-02
   19.2500  4.3162083E-02  2.2118744E-02  4.3320905E-02
   19.5000  4.2892713E-02  2.2434197E-02  4.2846258E-02
   19.7500  4.2559177E-02  2.2771861E-02  4.2293110E-02
   20.0000  4.2184997E-02  2.3129779E-02  4.1685407E-02
   21.0000  4.0710598E-02  2.4719426E-02  3.9114869E-02
   22.0000  3.9946659E-02  2.6458547E-02  3.6918731E-02
   23.0000  4.0093095E-02  2.8231348E-02  3.5292480E-02
   24.0000  4.0803272E-02  2.9920106E-02  3.4099320E-02
   25.0000  4.1440857E-02  3.1400358E-02  3.3155065E-02
   26.0000  4.1302203E-02  3.2553277E-02  3.2330123E-02
   27.0000  3.9970034E-02  3.3295775E-02  3.1562426E-02
   28.0000  3.7609661E-02  3.3609181E-02  3.0839814E-02
   29.0000  3.4849512E-02  3.3545908E-02  3.0185301E-02
   30.0000  3.2314441E-02  3.3202651E-02  2.9636885E-02
   31.0000  3.0273249E-02  3.2666943E-02  2.9210069E-02
   32.0000  2.8725698E-02  3.2004370E-02  2.8897368E-02
   33.0000  2.7574447E-02  3.1262967E-02  2.8678115E-02
   34.0000  2.6707358E-02  3.0475805E-02  2.8522964E-02
   35.0000  2.6026834E-02  2.9665300E-02  2.8398060E-02
   36.0000  2.5456846E-02  2.8849489E-02  2.8269328E-02
   37.0000  2.4943982E-02  2.8048713E-02  2.8107495E-02
   38.0000  2.4459998E-02  2.7291275E-02  2.7896424E-02
   39.0000  2.4008199E-02  2.6618272E-02  2.7646949E-02
   40.0000  2.3625861E-02  2.6083352E-02  2.7408259E-02
