    Energy   (100,001)      (010,001)      (001,110)   
  -25.0000  1.6775939E-04  1.7418378E-04  1.6614090E-04
  -24.0000  1.7406893E-04  1.8115344E-04  1.7254923E-04
  -23.0000  1.8081863E-04  1.8864411E-04  1.7941375E-04
  -22.0000  1.8805439E-04  1.9671429E-04  1.8678288E-04
  -21.0000  1.9582855E-04  2.0543141E-04  1.9471196E-04
  -20.0000  2.0420111E-04  2.1487351E-04  2.0326456E-04
  -19.0000  2.1324113E-04  2.2513146E-04  2.1251405E-04
  -18.0000  2.2302850E-04  2.3631166E-04  2.2254549E-04
  -17.0000  2.3365615E-04  2.4853940E-04  2.3345810E-04
  -16.0000  2.4523275E-04  2.6196326E-04  2.4536823E-04
  -15.0000  2.5788619E-04  2.7676062E-04  2.5841325E-04
  -14.0000  2.7176799E-04  2.9314496E-04  2.7275644E-04
  -13.0000  2.8705896E-04  3.1137533E-04  2.8859336E-04
  -12.0000  3.0397661E-04  3.3176902E-04  3.0616016E-04
  -11.0000  3.2278490E-04  3.5471861E-04  3.2574464E-04
  -10.0000  3.4380727E-04  3.8071534E-04  3.4770113E-04
  -9.00000  3.6744437E-04  4.1038160E-04  3.7247079E-04
  -8.00000  3.9419857E-04  4.4451711E-04  4.0060994E-04
  -7.00000  4.2470847E-04  4.8416571E-04  4.3283029E-04
  -6.00000  4.5979875E-04  5.3071463E-04  4.7005758E-04
  -5.00000  5.0055396E-04  5.8604582E-04  5.1351919E-04
  -4.00000  5.4843126E-04  6.5277454E-04  5.6487978E-04
  -3.00000  6.0543935E-04  7.3463980E-04  6.2645922E-04
  -2.00000  6.7443555E-04  8.3717367E-04  7.0160030E-04
  -1.00000  7.5964906E-04  9.6891599E-04  7.9532809E-04
   0.00000  8.6767512E-04  1.1437864E-03  9.1562970E-04
   1.00000  1.0095714E-03  1.3861956E-03  1.0762224E-03
   2.00000  1.2059958E-03  1.7437138E-03  1.3035453E-03
   3.00000  1.5030730E-03  2.3260144E-03  1.6591347E-03
   4.00000  2.0435192E-03  3.4751595E-03  2.3438586E-03
   5.00000  3.4303837E-03  6.6391456E-03  4.2377638E-03
   5.20000  3.8482701E-03  7.6409868E-03  4.8060786E-03
   5.40000  4.2611966E-03  8.6664078E-03  5.3480048E-03
   5.60000  4.6615510E-03  9.6968524E-03  5.8470452E-03
   5.80000  5.0607921E-03  1.0752636E-02  6.3170274E-03
   6.00000  5.4757041E-03  1.1867451E-02  6.7814603E-03
   6.20000  5.9219102E-03  1.3076595E-02  7.2640185E-03
   6.40000  6.4125179E-03  1.4414618E-02  7.7866433E-03
   6.60000  6.9582959E-03  1.5915466E-02  8.3697613E-03
   6.80000  7.5679055E-03  1.7612541E-02  9.0325022E-03
   7.00000  8.2477462E-03  1.9538327E-02  9.7922072E-03
   7.20000  9.0013782E-03  2.1723681E-02  1.0662987E-02
   7.40000  9.8288040E-03  2.4196709E-02  1.1653523E-02
   7.60000  1.0726262E-02  2.6980943E-02  1.2765032E-02
   7.80000  1.1687387E-02  3.0092365E-02  1.3991030E-02
   8.00000  1.2706111E-02  3.3534811E-02  1.5320248E-02
   8.20000  1.3780380E-02  3.7293368E-02  1.6742150E-02
   8.40000  1.4914638E-02  4.1325745E-02  1.8251959E-02
   8.60000  1.6119586E-02  4.5552439E-02  1.9851553E-02
   8.80000  1.7409534E-02  4.9847760E-02  2.1545420E-02
   9.00000  1.8799021E-02  5.4034946E-02  2.3334334E-02
   9.20000  2.0299806E-02  5.7889278E-02  2.5209653E-02
   9.40000  2.1917934E-02  6.1153347E-02  2.7148908E-02
   9.60000  2.3651469E-02  6.3567320E-02  2.9113821E-02
   9.80000  2.5489775E-02  6.4912972E-02  3.1052791E-02
   10.0000  2.7412672E-02  6.5062692E-02  3.2907184E-02
   10.2500  2.9886611E-02  6.3581758E-02  3.5019227E-02
   10.5000  3.2359806E-02  6.0533553E-02  3.6820588E-02
   10.7500  3.4733736E-02  5.6431262E-02  3.8266609E-02
   11.0000  3.6905147E-02  5.1835527E-02  3.9360978E-02
   11.2500  3.8776669E-02  4.7207658E-02  4.0141927E-02
   11.5000  4.0272793E-02  4.2849430E-02  4.0663503E-02
   11.7500  4.1355321E-02  3.8916671E-02  4.0980088E-02
   12.0000  4.2029622E-02  3.5463716E-02  4.1137195E-02
   12.2500  4.2339744E-02  3.2486155E-02  4.1169265E-02
   12.5000  4.2355911E-02  2.9950243E-02  4.1102451E-02
   12.7500  4.2159927E-02  2.7809900E-02  4.0958771E-02
   13.0000  4.1832588E-02  2.6015693E-02  4.0758577E-02
   13.2500  4.1444828E-02  2.4519520E-02  4.0521550E-02
   13.5000  4.1052975E-02  2.3277193E-02  4.0267464E-02
   13.7500  4.0697219E-02  2.2249943E-02  4.0015760E-02
   14.0000  4.0402214E-02  2.1405067E-02  3.9783737E-02
   14.2500  4.0179284E-02  2.0715645E-02  3.9584726E-02
   14.5000  4.0029129E-02  2.0159780E-02  3.9426859E-02
   14.7500  3.9944003E-02  1.9719782E-02  3.9312347E-02
   15.0000  3.9909343E-02  1.9381467E-02  3.9237269E-02
   15.2500  3.9905215E-02  1.9133524E-02  3.9191999E-02
   15.5000  3.9907953E-02  1.8966950E-02  3.9162304E-02
   15.7500  3.9892198E-02  1.8874535E-02  3.9131071E-02
   16.0000  3.9833318E-02  1.8850418E-02  3.9080470E-02
   16.2500  3.9710001E-02  1.8889706E-02  3.8994242E-02
   16.5000  3.9506631E-02  1.8988176E-02  3.8859743E-02
   16.7500  3.9215000E-02  1.9142038E-02  3.8669353E-02
   17.0000  3.8835030E-02  1.9347769E-02  3.8421045E-02
   17.2500  3.8374377E-02  1.9602003E-02  3.8118079E-02
   17.5000  3.7847052E-02  1.9901456E-02  3.7767996E-02
   17.7500  3.7271396E-02  2.0242898E-02  3.7381203E-02
   18.0000  3.6667849E-02  2.0623134E-02  3.6969492E-02
   18.2500  3.6056898E-02  2.1039001E-02  3.6544705E-02
   18.5000  3.5457459E-02  2.1487368E-02  3.6117722E-02
   18.7500  3.4885816E-02  2.1965155E-02  3.5697801E-02
   19.0000  3.4355069E-02  2.2469363E-02  3.5292224E-02
   19.2500  3.3874984E-02  2.2997140E-02  3.4906194E-02
   19.5000  3.3452092E-02  2.3545861E-02  3.4542902E-02
   19.7500  3.3089941E-02  2.4113133E-02  3.4203713E-02
   20.0000  3.2789459E-02  2.4696541E-02  3.3888489E-02
   21.0000  3.2160513E-02  2.7119553E-02  3.2836771E-02
   22.0000  3.2206088E-02  2.9487021E-02  3.2006081E-02
   23.0000  3.2448965E-02  3.1534997E-02  3.1229256E-02
   24.0000  3.2435362E-02  3.3013147E-02  3.0394354E-02
   25.0000  3.1922579E-02  3.3806438E-02  2.9471661E-02
   26.0000  3.0952807E-02  3.3941676E-02  2.8507544E-02
   27.0000  2.9760856E-02  3.3544709E-02  2.7596062E-02
   28.0000  2.8598476E-02  3.2787031E-02  2.6830659E-02
   29.0000  2.7614791E-02  3.1832307E-02  2.6256765E-02
   30.0000  2.6841417E-02  3.0802053E-02  2.5851683E-02
   31.0000  2.6236542E-02  2.9765536E-02  2.5542446E-02
   32.0000  2.5731699E-02  2.8747311E-02  2.5243351E-02
   33.0000  2.5260303E-02  2.7743177E-02  2.4885232E-02
   34.0000  2.4770952E-02  2.6737805E-02  2.4426629E-02
   35.0000  2.4233443E-02  2.5719970E-02  2.3853482E-02
   36.0000  2.3642155E-02  2.4693212E-02  2.3176595E-02
   37.0000  2.3016827E-02  2.3680331E-02  2.2430487E-02
   38.0000  2.2398776E-02  2.2722963E-02  2.1672591E-02
   39.0000  2.1842257E-02  2.1879061E-02  2.0978541E-02
   40.0000  2.1400596E-02  2.1213648E-02  2.0424826E-02
