    Energy   (100,001)      (010,001)      (001,110)   
  -25.0000  1.7059809E-04  1.8392990E-04  1.8424954E-04
  -24.0000  1.7642394E-04  1.9093806E-04  1.9047392E-04
  -23.0000  1.8262345E-04  1.9845274E-04  1.9709974E-04
  -22.0000  1.8923280E-04  2.0652938E-04  2.0416638E-04
  -21.0000  1.9629301E-04  2.1523169E-04  2.1171852E-04
  -20.0000  2.0385066E-04  2.2463322E-04  2.1980703E-04
  -19.0000  2.1195896E-04  2.3481934E-04  2.2849010E-04
  -18.0000  2.2067895E-04  2.4588967E-04  2.3783461E-04
  -17.0000  2.3008100E-04  2.5796118E-04  2.4791780E-04
  -16.0000  2.4024667E-04  2.7117206E-04  2.5882936E-04
  -15.0000  2.5127102E-04  2.8568674E-04  2.7067409E-04
  -14.0000  2.6326565E-04  3.0170231E-04  2.8357517E-04
  -13.0000  2.7636238E-04  3.1945706E-04  2.9767846E-04
  -12.0000  2.9071823E-04  3.3924159E-04  3.1315803E-04
  -11.0000  3.0652181E-04  3.6141396E-04  3.3022333E-04
  -10.0000  3.2400187E-04  3.8642021E-04  3.4912884E-04
  -9.00000  3.4343890E-04  4.1482289E-04  3.7018712E-04
  -8.00000  3.6518116E-04  4.4734139E-04  3.9378664E-04
  -7.00000  3.8966721E-04  4.8491026E-04  4.2041708E-04
  -6.00000  4.1745868E-04  5.2876563E-04  4.5070564E-04
  -5.00000  4.4928907E-04  5.8057691E-04  4.8547101E-04
  -4.00000  4.8613947E-04  6.4265462E-04  5.2580636E-04
  -3.00000  5.2936094E-04  7.1829174E-04  5.7321237E-04
  -2.00000  5.8088384E-04  8.1235297E-04  6.2982206E-04
  -1.00000  6.4360116E-04  9.3235733E-04  6.9880716E-04
   0.00000  7.2213599E-04  1.0906351E-03  7.8517967E-04
   1.00000  8.2457301E-04  1.3091215E-03  8.9757140E-04
   2.00000  9.6706726E-04  1.6318054E-03  1.0529007E-03
   3.00000  1.1894756E-03  2.1656189E-03  1.2920313E-03
   4.00000  1.6320171E-03  3.2748505E-03  1.7564107E-03
   5.00000  2.9571792E-03  6.6059466E-03  3.0935147E-03
   5.20000  3.3719215E-03  7.6268915E-03  3.4917415E-03
   5.40000  3.7638242E-03  8.5940376E-03  3.8602171E-03
   5.60000  4.1059834E-03  9.4698361E-03  4.1841860E-03
   5.80000  4.3959852E-03  1.0275534E-02  4.4717645E-03
   6.00000  4.6445868E-03  1.1052572E-02  4.7373722E-03
   6.20000  4.8665665E-03  1.1841280E-02  4.9939026E-03
   6.40000  5.0758383E-03  1.2673939E-02  5.2508645E-03
   6.60000  5.2834552E-03  1.3573978E-02  5.5146115E-03
   6.80000  5.4973049E-03  1.4557700E-02  5.7893944E-03
   7.00000  5.7227093E-03  1.5637114E-02  6.0786602E-03
   7.20000  5.9633426E-03  1.6822905E-02  6.3860654E-03
   7.40000  6.2220619E-03  1.8126589E-02  6.7159317E-03
   7.60000  6.5015059E-03  1.9561735E-02  7.0732280E-03
   7.80000  6.8044595E-03  2.1144553E-02  7.4633441E-03
   8.00000  7.1340257E-03  2.2894006E-02  7.8918787E-03
   8.20000  7.4936648E-03  2.4831398E-02  8.3645038E-03
   8.40000  7.8871486E-03  2.6979225E-02  8.8868627E-03
   8.60000  8.3184431E-03  2.9358912E-02  9.4644283E-03
   8.80000  8.7915093E-03  3.1987040E-02  1.0102282E-02
   9.00000  9.3099994E-03  3.4869733E-02  1.0804791E-02
   9.20000  9.8768284E-03  3.7995120E-02  1.1575176E-02
   9.40000  1.0493617E-02  4.1324467E-02  1.2414954E-02
   9.60000  1.1160049E-02  4.4783512E-02  1.3323275E-02
   9.80000  1.1873273E-02  4.8256505E-02  1.4296320E-02
   10.0000  1.2627566E-02  5.1585885E-02  1.5326999E-02
   10.2500  1.3615144E-02  5.5253997E-02  1.6680441E-02
   10.5000  1.4633961E-02  5.8013351E-02  1.8082404E-02
   10.7500  1.5666258E-02  5.9557984E-02  1.9506768E-02
   11.0000  1.6700509E-02  5.9754697E-02  2.0932033E-02
   11.2500  1.7731777E-02  5.8676158E-02  2.2344345E-02
   11.5000  1.8760059E-02  5.6558837E-02  2.3736806E-02
   11.7500  1.9787945E-02  5.3717306E-02  2.5106376E-02
   12.0000  2.0817206E-02  5.0466069E-02  2.6451208E-02
   12.2500  2.1845039E-02  4.7070668E-02  2.7767762E-02
   12.5000  2.2862586E-02  4.3727927E-02  2.9049152E-02
   12.7500  2.3857626E-02  4.0567211E-02  3.0286532E-02
   13.0000  2.4818914E-02  3.7662347E-02  3.1471615E-02
   13.2500  2.5739224E-02  3.5046467E-02  3.2598398E-02
   13.5000  2.6616610E-02  3.2725524E-02  3.3663800E-02
   13.7500  2.7454332E-02  3.0688862E-02  3.4667531E-02
   14.0000  2.8259924E-02  2.8916750E-02  3.5611434E-02
   14.2500  2.9043793E-02  2.7385400E-02  3.6498570E-02
   14.5000  2.9817627E-02  2.6070124E-02  3.7332266E-02
   14.7500  3.0592827E-02  2.4947191E-02  3.8115286E-02
   15.0000  3.1379110E-02  2.3994831E-02  3.8849229E-02
   15.2500  3.2183380E-02  2.3193665E-02  3.9534190E-02
   15.5000  3.3008900E-02  2.2526783E-02  4.0168644E-02
   15.7500  3.3854778E-02  2.1979587E-02  4.0749524E-02
   16.0000  3.4715785E-02  2.1539499E-02  4.1272463E-02
   16.2500  3.5582502E-02  2.1195630E-02  4.1732162E-02
   16.5000  3.6441794E-02  2.0938444E-02  4.2122860E-02
   16.7500  3.7277607E-02  2.0759486E-02  4.2438888E-02
   17.0000  3.8072058E-02  2.0651161E-02  4.2675257E-02
   17.2500  3.8806799E-02  2.0606592E-02  4.2828242E-02
   17.5000  3.9464562E-02  2.0619533E-02  4.2895886E-02
   17.7500  4.0030779E-02  2.0684315E-02  4.2878379E-02
   18.0000  4.0495099E-02  2.0795821E-02  4.2778254E-02
   18.2500  4.0852572E-02  2.0949466E-02  4.2600376E-02
   18.5000  4.1104318E-02  2.1141181E-02  4.2351711E-02
   18.7500  4.1257512E-02  2.1367402E-02  4.2040916E-02
   19.0000  4.1324658E-02  2.1625061E-02  4.1677782E-02
   19.2500  4.1322229E-02  2.1911593E-02  4.1272584E-02
   19.5000  4.1268896E-02  2.2224945E-02  4.0835410E-02
   19.7500  4.1183682E-02  2.2563527E-02  4.0375627E-02
   20.0000  4.1084481E-02  2.2926020E-02  3.9901710E-02
   21.0000  4.0833117E-02  2.4582033E-02  3.8016590E-02
   22.0000  4.1138498E-02  2.6487271E-02  3.6391486E-02
   23.0000  4.1820293E-02  2.8535147E-02  3.5105097E-02
   24.0000  4.2319955E-02  3.0567962E-02  3.4070724E-02
   25.0000  4.2101477E-02  3.2369120E-02  3.3165111E-02
   26.0000  4.0904703E-02  3.3717113E-02  3.2303966E-02
   27.0000  3.8833919E-02  3.4465341E-02  3.1464026E-02
   28.0000  3.6275954E-02  3.4591916E-02  3.0668359E-02
   29.0000  3.3709949E-02  3.4201596E-02  2.9966933E-02
   30.0000  3.1505419E-02  3.3475688E-02  2.9410919E-02
   31.0000  2.9786616E-02  3.2579670E-02  2.9013250E-02
   32.0000  2.8516602E-02  3.1628698E-02  2.8755961E-02
   33.0000  2.7603924E-02  3.0686968E-02  2.8608388E-02
   34.0000  2.6949681E-02  2.9775664E-02  2.8535637E-02
   35.0000  2.6466777E-02  2.8888070E-02  2.8502548E-02
   36.0000  2.6086285E-02  2.8007025E-02  2.8475880E-02
   37.0000  2.5758145E-02  2.7121998E-02  2.8427177E-02
   38.0000  2.5451329E-02  2.6245069E-02  2.8338579E-02
   39.0000  2.5158489E-02  2.5425272E-02  2.8212763E-02
   40.0000  2.4902436E-02  2.4749227E-02  2.8081595E-02
