    Energy   (100,001)      (010,001)      (001,110)   
  -25.0000  1.6500916E-04  1.8824918E-04  1.7002975E-04
  -24.0000  1.7103632E-04  1.9515855E-04  1.7623232E-04
  -23.0000  1.7747110E-04  2.0255491E-04  1.8285683E-04
  -22.0000  1.8435472E-04  2.1049059E-04  1.8994633E-04
  -21.0000  1.9173400E-04  2.1902564E-04  1.9754984E-04
  -20.0000  1.9966244E-04  2.2822925E-04  2.0572338E-04
  -19.0000  2.0820135E-04  2.3818157E-04  2.1453130E-04
  -18.0000  2.1742138E-04  2.4897593E-04  2.2404787E-04
  -17.0000  2.2740432E-04  2.6072166E-04  2.3435922E-04
  -16.0000  2.3824543E-04  2.7354761E-04  2.4556583E-04
  -15.0000  2.5005622E-04  2.8760675E-04  2.5778561E-04
  -14.0000  2.6296820E-04  3.0308190E-04  2.7115788E-04
  -13.0000  2.7713741E-04  3.2019348E-04  2.8584840E-04
  -12.0000  2.9275056E-04  3.3920948E-04  3.0205601E-04
  -11.0000  3.1003287E-04  3.6045896E-04  3.2002127E-04
  -10.0000  3.2925865E-04  3.8435033E-04  3.4003808E-04
  -9.00000  3.5076548E-04  4.1139659E-04  3.6246945E-04
  -8.00000  3.7497378E-04  4.4225079E-04  3.8776924E-04
  -7.00000  4.0241424E-04  4.7775697E-04  4.1651286E-04
  -6.00000  4.3376714E-04  5.1902503E-04  4.4944160E-04
  -5.00000  4.6992041E-04  5.6754385E-04  4.8752845E-04
  -4.00000  5.1205778E-04  6.2535779E-04  5.3207902E-04
  -3.00000  5.6179839E-04  6.9535291E-04  5.8489252E-04
  -2.00000  6.2142780E-04  7.8174337E-04  6.4853106E-04
  -1.00000  6.9430452E-04  8.9094795E-04  7.2679852E-04
   0.00000  7.8563259E-04  1.0332945E-03  8.2566092E-04
   1.00000  9.0409381E-04  1.2266928E-03  9.5521239E-04
   2.00000  1.0658580E-03  1.5058007E-03  1.1345465E-03
   3.00000  1.3069714E-03  1.9506430E-03  1.4068439E-03
   4.00000  1.7384661E-03  2.8146997E-03  1.9059429E-03
   5.00000  2.8348537E-03  5.1919906E-03  3.2059064E-03
   5.20000  3.1771588E-03  5.9416752E-03  3.6226766E-03
   5.40000  3.5284191E-03  6.7033610E-03  4.0617140E-03
   5.60000  3.8813229E-03  7.4615098E-03  4.5180140E-03
   5.80000  4.2394965E-03  8.2289675E-03  4.9973606E-03
   6.00000  4.6085080E-03  9.0247749E-03  5.5046341E-03
   6.20000  4.9918826E-03  9.8629383E-03  6.0378687E-03
   6.40000  5.3909968E-03  1.0749978E-02  6.5878759E-03
   6.60000  5.8064544E-03  1.1687212E-02  7.1423588E-03
   6.80000  6.2396585E-03  1.2676135E-02  7.6928922E-03
   7.00000  6.6938087E-03  1.3724153E-02  8.2401817E-03
   7.20000  7.1739330E-03  1.4846875E-02  8.7929251E-03
   7.40000  7.6861934E-03  1.6065946E-02  9.3611760E-03
   7.60000  8.2370499E-03  1.7404954E-02  9.9500963E-03
   7.80000  8.8326505E-03  1.8886099E-02  1.0558674E-02
   8.00000  9.4784962E-03  2.0528631E-02  1.1183357E-02
   8.20000  1.0179344E-02  2.2348433E-02  1.1823596E-02
   8.40000  1.0939340E-02  2.4357665E-02  1.2485922E-02
   8.60000  1.1762328E-02  2.6563773E-02  1.3184392E-02
   8.80000  1.2652272E-02  2.8967716E-02  1.3937338E-02
   9.00000  1.3613623E-02  3.1561598E-02  1.4762502E-02
   9.20000  1.4651267E-02  3.4326195E-02  1.5673268E-02
   9.40000  1.5770052E-02  3.7229631E-02  1.6676969E-02
   9.60000  1.6974209E-02  4.0228432E-02  1.7774441E-02
   9.80000  1.8266389E-02  4.3269936E-02  1.8960639E-02
   10.0000  1.9645777E-02  4.6291741E-02  2.0226118E-02
   10.2500  2.1481017E-02  4.9916109E-02  2.1900502E-02
   10.5000  2.3407105E-02  5.3159249E-02  2.3651627E-02
   10.7500  2.5366501E-02  5.5731035E-02  2.5449003E-02
   11.0000  2.7281797E-02  5.7332905E-02  2.7258958E-02
   11.2500  2.9066207E-02  5.7749770E-02  2.9044206E-02
   11.5000  3.0639532E-02  5.6926937E-02  3.0764765E-02
   11.7500  3.1945769E-02  5.4992971E-02  3.2379160E-02
   12.0000  3.2964453E-02  5.2219793E-02  3.3847286E-02
   12.2500  3.3710577E-02  4.8942933E-02  3.5136857E-02
   12.5000  3.4225561E-02  4.5479895E-02  3.6230115E-02
   12.7500  3.4564839E-02  4.2077252E-02  3.7126644E-02
   13.0000  3.4786529E-02  3.8894269E-02  3.7841594E-02
   13.2500  3.4943656E-02  3.6012785E-02  3.8400857E-02
   13.5000  3.5079959E-02  3.3458508E-02  3.8835100E-02
   13.7500  3.5227975E-02  3.1222938E-02  3.9174447E-02
   14.0000  3.5408859E-02  2.9280646E-02  3.9445373E-02
   14.2500  3.5633739E-02  2.7600325E-02  3.9669727E-02
   14.5000  3.5905608E-02  2.6150651E-02  3.9864359E-02
   14.7500  3.6220972E-02  2.4902978E-02  4.0040849E-02
   15.0000  3.6571254E-02  2.3832373E-02  4.0205672E-02
   15.2500  3.6944125E-02  2.2917764E-02  4.0360813E-02
   15.5000  3.7324869E-02  2.2141616E-02  4.0504635E-02
   15.7500  3.7697764E-02  2.1489382E-02  4.0632817E-02
   16.0000  3.8047466E-02  2.0948899E-02  4.0739272E-02
   16.2500  3.8360299E-02  2.0509821E-02  4.0817024E-02
   16.5000  3.8625359E-02  2.0163166E-02  4.0859041E-02
   16.7500  3.8835360E-02  1.9900967E-02  4.0859046E-02
   17.0000  3.8987126E-02  1.9716042E-02  4.0812277E-02
   17.2500  3.9081701E-02  1.9601843E-02  4.0716137E-02
   17.5000  3.9124073E-02  1.9552378E-02  4.0570655E-02
   17.7500  3.9122535E-02  1.9562164E-02  4.0378658E-02
   18.0000  3.9087795E-02  1.9626205E-02  4.0145618E-02
   18.2500  3.9031933E-02  1.9739978E-02  3.9879163E-02
   18.5000  3.8967355E-02  1.9899411E-02  3.9588356E-02
   18.7500  3.8905848E-02  2.0100876E-02  3.9282835E-02
   19.0000  3.8857829E-02  2.0341179E-02  3.8971972E-02
   19.2500  3.8831807E-02  2.0617570E-02  3.8664130E-02
   19.5000  3.8834069E-02  2.0927763E-02  3.8366093E-02
   19.7500  3.8868507E-02  2.1269893E-02  3.8082735E-02
   20.0000  3.8936542E-02  2.1642330E-02  3.7816964E-02
   21.0000  3.9494037E-02  2.3395125E-02  3.6936513E-02
   22.0000  4.0216363E-02  2.5473835E-02  3.6248879E-02
   23.0000  4.0567512E-02  2.7760361E-02  3.5517815E-02
   24.0000  4.0077215E-02  3.0097847E-02  3.4544812E-02
   25.0000  3.8594916E-02  3.2249312E-02  3.3287503E-02
   26.0000  3.6338274E-02  3.3935100E-02  3.1858200E-02
   27.0000  3.3699047E-02  3.4998082E-02  3.0410246E-02
   28.0000  3.1068577E-02  3.5419312E-02  2.9078100E-02
   29.0000  2.8733794E-02  3.5290149E-02  2.7954323E-02
   30.0000  2.6839940E-02  3.4771552E-02  2.7076016E-02
   31.0000  2.5410841E-02  3.4032226E-02  2.6428546E-02
   32.0000  2.4393915E-02  3.3202596E-02  2.5963911E-02
   33.0000  2.3702621E-02  3.2359544E-02  2.5621300E-02
   34.0000  2.3243709E-02  3.1533331E-02  2.5339737E-02
   35.0000  2.2928803E-02  3.0724713E-02  2.5062691E-02
   36.0000  2.2678068E-02  2.9924037E-02  2.4741545E-02
   37.0000  2.2425465E-02  2.9127566E-02  2.4343463E-02
   38.0000  2.2131416E-02  2.8349443E-02  2.3864929E-02
   39.0000  2.1800885E-02  2.7631550E-02  2.3348256E-02
   40.0000  2.1489579E-02  2.7044755E-02  2.2884507E-02
