    Energy   (100,001)      (010,001)      (001,110)   
  -25.0000  1.7224647E-04  1.7996520E-04  1.8603442E-04
  -24.0000  1.7807666E-04  1.8700817E-04  1.9252533E-04
  -23.0000  1.8427911E-04  1.9456998E-04  1.9945168E-04
  -22.0000  1.9088971E-04  2.0270822E-04  2.0685813E-04
  -21.0000  1.9794908E-04  2.1148918E-04  2.1479556E-04
  -20.0000  2.0550333E-04  2.2098952E-04  2.2332232E-04
  -19.0000  2.1360505E-04  2.3129834E-04  2.3250553E-04
  -18.0000  2.2231449E-04  2.4251979E-04  2.4242287E-04
  -17.0000  2.3170096E-04  2.5477636E-04  2.5316472E-04
  -16.0000  2.4184468E-04  2.6821300E-04  2.6483684E-04
  -15.0000  2.5283892E-04  2.8300248E-04  2.7756379E-04
  -14.0000  2.6479285E-04  2.9935229E-04  2.9149334E-04
  -13.0000  2.7783506E-04  3.1751367E-04  3.0680211E-04
  -12.0000  2.9211812E-04  3.3779364E-04  3.2370301E-04
  -11.0000  3.0782445E-04  3.6057115E-04  3.4245506E-04
  -10.0000  3.2517415E-04  3.8631908E-04  3.6337668E-04
  -9.00000  3.4443534E-04  4.1563488E-04  3.8686383E-04
  -8.00000  3.6593830E-04  4.4928377E-04  4.1341531E-04
  -7.00000  3.9009502E-04  4.8826122E-04  4.4366876E-04
  -6.00000  4.1742695E-04  5.3388535E-04  4.7845320E-04
  -5.00000  4.4860530E-04  5.8793728E-04  5.1886757E-04
  -4.00000  4.8451174E-04  6.5288169E-04  5.6640245E-04
  -3.00000  5.2633301E-04  7.3222645E-04  6.2313554E-04
  -2.00000  5.7571627E-04  8.3113714E-04  6.9206084E-04
  -1.00000  6.3503995E-04  9.5754970E-04  7.7767595E-04
   0.00000  7.0792717E-04  1.1243401E-03  8.8711046E-04
   1.00000  8.0033551E-04  1.3540014E-03  1.0325210E-03
   2.00000  9.2328050E-04  1.6902729E-03  1.2369442E-03
   3.00000  1.1015499E-03  2.2341102E-03  1.5520287E-03
   4.00000  1.4146814E-03  3.3022768E-03  2.1342036E-03
   5.00000  2.2099946E-03  6.2508945E-03  3.6381828E-03
   5.20000  2.4428895E-03  7.1913455E-03  4.1189472E-03
   5.40000  2.6638622E-03  8.1578878E-03  4.6247237E-03
   5.60000  2.8660032E-03  9.1300255E-03  5.1480120E-03
   5.80000  3.0544639E-03  1.0120194E-02  5.6955037E-03
   6.00000  3.2380972E-03  1.1150562E-02  6.2776690E-03
   6.20000  3.4255465E-03  1.2242614E-02  6.9035198E-03
   6.40000  3.6242450E-03  1.3415488E-02  7.5790618E-03
   6.60000  3.8402311E-03  1.4686979E-02  8.3073849E-03
   6.80000  4.0781673E-03  1.6075149E-02  9.0905399E-03
   7.00000  4.3415493E-03  1.7599855E-02  9.9338402E-03
   7.20000  4.6331921E-03  1.9284035E-02  1.0851777E-02
   7.40000  4.9559012E-03  2.1154431E-02  1.1872321E-02
   7.60000  5.3129847E-03  2.3241092E-02  1.3035843E-02
   7.80000  5.7082630E-03  2.5575024E-02  1.4387424E-02
   8.00000  6.1455126E-03  2.8183637E-02  1.5963643E-02
   8.20000  6.6274900E-03  3.1083652E-02  1.7774686E-02
   8.40000  7.1547060E-03  3.4271575E-02  1.9782579E-02
   8.60000  7.7242246E-03  3.7713471E-02  2.1881022E-02
   8.80000  8.3291674E-03  4.1338540E-02  2.3891900E-02
   9.00000  8.9600281E-03  4.5042698E-02  2.5598585E-02
   9.20000  9.6083707E-03  4.8704018E-02  2.6819364E-02
   9.40000  1.0271530E-02  5.2201342E-02  2.7484740E-02
   9.60000  1.0955279E-02  5.5421757E-02  2.7662212E-02
   9.80000  1.1672519E-02  5.8251738E-02  2.7511177E-02
   10.0000  1.2439044E-02  6.0562449E-02  2.7209085E-02
   10.2500  1.3487828E-02  6.2500720E-02  2.6831458E-02
   10.5000  1.4653821E-02  6.3153966E-02  2.6602953E-02
   10.7500  1.5942297E-02  6.2416948E-02  2.6586217E-02
   11.0000  1.7344667E-02  6.0391121E-02  2.6781004E-02
   11.2500  1.8838557E-02  5.7355188E-02  2.7156520E-02
   11.5000  2.0389304E-02  5.3671616E-02  2.7670155E-02
   11.7500  2.1953279E-02  4.9690052E-02  2.8276770E-02
   12.0000  2.3482927E-02  4.5690207E-02  2.8933510E-02
   12.2500  2.4933401E-02  4.1866379E-02  2.9602936E-02
   12.5000  2.6269315E-02  3.8337366E-02  3.0255071E-02
   12.7500  2.7468820E-02  3.5165765E-02  3.0868533E-02
   13.0000  2.8525358E-02  3.2375002E-02  3.1430999E-02
   13.2500  2.9447802E-02  2.9961297E-02  3.1938949E-02
   13.5000  3.0257968E-02  2.7902781E-02  3.2396474E-02
   13.7500  3.0985748E-02  2.6167110E-02  3.2813185E-02
   14.0000  3.1663700E-02  2.4717421E-02  3.3201611E-02
   14.2500  3.2322598E-02  2.3516438E-02  3.3574529E-02
   14.5000  3.2988497E-02  2.2528996E-02  3.3942722E-02
   14.7500  3.3681216E-02  2.1723397E-02  3.4313445E-02
   15.0000  3.4413815E-02  2.1071979E-02  3.4689653E-02
   15.2500  3.5192674E-02  2.0551206E-02  3.5069884E-02
   15.5000  3.6017852E-02  2.0141480E-02  3.5448655E-02
   15.7500  3.6883541E-02  1.9826792E-02  3.5817228E-02
   16.0000  3.7778573E-02  1.9594302E-02  3.6164635E-02
   16.2500  3.8686975E-02  1.9433883E-02  3.6478840E-02
   16.5000  3.9588671E-02  1.9337645E-02  3.6747976E-02
   16.7500  4.0460408E-02  1.9299483E-02  3.6961508E-02
   17.0000  4.1276997E-02  1.9314656E-02  3.7111235E-02
   17.2500  4.2012901E-02  1.9379424E-02  3.7191989E-02
   17.5000  4.2644107E-02  1.9490755E-02  3.7201982E-02
   17.7500  4.3150122E-02  1.9646098E-02  3.7142763E-02
   18.0000  4.3515861E-02  1.9843228E-02  3.7018847E-02
   18.2500  4.3733123E-02  2.0080130E-02  3.6837106E-02
   18.5000  4.3801393E-02  2.0354946E-02  3.6606046E-02
   18.7500  4.3727809E-02  2.0665930E-02  3.6335059E-02
   19.0000  4.3526239E-02  2.1011454E-02  3.6033731E-02
   19.2500  4.3215632E-02  2.1390035E-02  3.5711248E-02
   19.5000  4.2817887E-02  2.1800374E-02  3.5375916E-02
   19.7500  4.2355745E-02  2.2241331E-02  3.5034865E-02
   20.0000  4.1851281E-02  2.2711707E-02  3.4694054E-02
   21.0000  3.9803426E-02  2.4843204E-02  3.3428959E-02
   22.0000  3.8288241E-02  2.7239419E-02  3.2458193E-02
   23.0000  3.7385921E-02  2.9689629E-02  3.1801818E-02
   24.0000  3.6728390E-02  3.1910171E-02  3.1373667E-02
   25.0000  3.5921518E-02  3.3586214E-02  3.1054537E-02
   26.0000  3.4780887E-02  3.4497233E-02  3.0738030E-02
   27.0000  3.3373046E-02  3.4620602E-02  3.0367662E-02
   28.0000  3.1897959E-02  3.4114448E-02  2.9954115E-02
   29.0000  3.0538116E-02  3.3211812E-02  2.9554412E-02
   30.0000  2.9393750E-02  3.2122760E-02  2.9227569E-02
   31.0000  2.8496046E-02  3.0991163E-02  2.9002031E-02
   32.0000  2.7830777E-02  2.9898521E-02  2.8870345E-02
   33.0000  2.7354212E-02  2.8880201E-02  2.8802147E-02
   34.0000  2.7016166E-02  2.7930795E-02  2.8760750E-02
   35.0000  2.6768075E-02  2.7025164E-02  2.8713000E-02
   36.0000  2.6564454E-02  2.6138681E-02  2.8631384E-02
   37.0000  2.6366805E-02  2.5260059E-02  2.8494687E-02
   38.0000  2.6151369E-02  2.4402502E-02  2.8293815E-02
   39.0000  2.5920758E-02  2.3613026E-02  2.8045939E-02
   40.0000  2.5709317E-02  2.2968732E-02  2.7806605E-02
