    Energy   (100,001)      (010,001)      (001,110)   
  -25.0000  1.6061703E-04  1.7776502E-04  1.6709187E-04
  -24.0000  1.6664518E-04  1.8460632E-04  1.7343289E-04
  -23.0000  1.7308908E-04  1.9194476E-04  1.8022002E-04
  -22.0000  1.7999143E-04  1.9983491E-04  1.8750017E-04
  -21.0000  1.8740081E-04  2.0833948E-04  1.9532697E-04
  -20.0000  1.9537278E-04  2.1753092E-04  2.0376192E-04
  -19.0000  2.0397117E-04  2.2749330E-04  2.1287596E-04
  -18.0000  2.1326963E-04  2.3832478E-04  2.2275129E-04
  -17.0000  2.2335360E-04  2.5014060E-04  2.3348366E-04
  -16.0000  2.3432278E-04  2.6307695E-04  2.4518533E-04
  -15.0000  2.4629415E-04  2.7729587E-04  2.5798870E-04
  -14.0000  2.5940591E-04  2.9299167E-04  2.7205104E-04
  -13.0000  2.7382253E-04  3.1039921E-04  2.8756057E-04
  -12.0000  2.8974124E-04  3.2980501E-04  3.0474448E-04
  -11.0000  3.0740066E-04  3.5156200E-04  3.2387953E-04
  -10.0000  3.2709229E-04  3.7610982E-04  3.4530634E-04
  -9.00000  3.4917612E-04  4.0400278E-04  3.6944903E-04
  -8.00000  3.7410221E-04  4.3594946E-04  3.9684257E-04
  -7.00000  4.0244115E-04  4.7286981E-04  4.2817190E-04
  -6.00000  4.3492818E-04  5.1597949E-04  4.6432910E-04
  -5.00000  4.7252873E-04  5.6691818E-04  5.0649960E-04
  -4.00000  5.1653951E-04  6.2795097E-04  5.5629653E-04
  -3.00000  5.6875061E-04  7.0229752E-04  6.1597936E-04
  -2.00000  6.3171932E-04  7.9469614E-04  6.8882805E-04
  -1.00000  7.0926375E-04  9.1243028E-04  7.7982693E-04
   0.00000  8.0743167E-04  1.0673479E-03  8.9702488E-04
   1.00000  9.3663566E-04  1.2802741E-03  1.0545680E-03
   2.00000  1.1171945E-03  1.5922131E-03  1.2806431E-03
   3.00000  1.3976899E-03  2.1000596E-03  1.6439149E-03
   4.00000  1.9435479E-03  3.1202441E-03  2.3808984E-03
   5.00000  3.5096489E-03  6.0563348E-03  4.5794318E-03
   5.20000  3.9853151E-03  6.9881433E-03  5.2642574E-03
   5.40000  4.4336783E-03  7.9198082E-03  5.9279088E-03
   5.60000  4.8328460E-03  8.8178143E-03  6.5451330E-03
   5.80000  5.1866128E-03  9.6844556E-03  7.1153626E-03
   6.00000  5.5094854E-03  1.0532990E-02  7.6342000E-03
   6.20000  5.8183879E-03  1.1377814E-02  8.0859855E-03
   6.40000  6.1287270E-03  1.2235914E-02  8.4573241E-03
   6.60000  6.4524008E-03  1.3129552E-02  8.7574582E-03
   6.80000  6.7975566E-03  1.4084813E-02  9.0257847E-03
   7.00000  7.1697445E-03  1.5128379E-02  9.3191887E-03
   7.20000  7.5735749E-03  1.6287606E-02  9.6926647E-03
   7.40000  8.0140307E-03  1.7593635E-02  1.0188686E-02
   7.60000  8.4970831E-03  1.9082899E-02  1.0837028E-02
   7.80000  9.0297803E-03  2.0794769E-02  1.1658500E-02
   8.00000  9.6201508E-03  2.2766761E-02  1.2667438E-02
   8.20000  1.0277095E-02  2.5029391E-02  1.3871506E-02
   8.40000  1.1010262E-02  2.7602087E-02  1.5269304E-02
   8.60000  1.1829783E-02  3.0491094E-02  1.6847123E-02
   8.80000  1.2745695E-02  3.3689738E-02  1.8576573E-02
   9.00000  1.3767023E-02  3.7179527E-02  2.0414850E-02
   9.20000  1.4900658E-02  4.0927932E-02  2.2308544E-02
   9.40000  1.6150219E-02  4.4878334E-02  2.4200405E-02
   9.60000  1.7514946E-02  4.8931298E-02  2.6037089E-02
   9.80000  1.8988470E-02  5.2922893E-02  2.7775317E-02
   10.0000  2.0557433E-02  5.6613727E-02  2.9385276E-02
   10.2500  2.2618887E-02  6.0347387E-02  3.1194773E-02
   10.5000  2.4732635E-02  6.2564312E-02  3.2775928E-02
   10.7500  2.6817957E-02  6.2898255E-02  3.4142253E-02
   11.0000  2.8786318E-02  6.1361521E-02  3.5311890E-02
   11.2500  3.0557724E-02  5.8328802E-02  3.6298254E-02
   11.5000  3.2077269E-02  5.4362170E-02  3.7107443E-02
   11.7500  3.3325730E-02  5.0012143E-02  3.7741899E-02
   12.0000  3.4319957E-02  4.5698356E-02  3.8206242E-02
   12.2500  3.5103319E-02  4.1681507E-02  3.8511870E-02
   12.5000  3.5731682E-02  3.8089133E-02  3.8679177E-02
   12.7500  3.6260935E-02  3.4957613E-02  3.8737258E-02
   13.0000  3.6738528E-02  3.2270362E-02  3.8721142E-02
   13.2500  3.7199323E-02  2.9985961E-02  3.8667052E-02
   13.5000  3.7665412E-02  2.8055402E-02  3.8607614E-02
   13.7500  3.8148380E-02  2.6430507E-02  3.8569056E-02
   14.0000  3.8652201E-02  2.5067470E-02  3.8570551E-02
   14.2500  3.9175570E-02  2.3928258E-02  3.8624449E-02
   14.5000  3.9713202E-02  2.2980716E-02  3.8736290E-02
   14.7500  4.0256323E-02  2.2197991E-02  3.8904666E-02
   15.0000  4.0792870E-02  2.1557781E-02  3.9121358E-02
   15.2500  4.1307765E-02  2.1041606E-02  3.9371934E-02
   15.5000  4.1783513E-02  2.0634154E-02  3.9636829E-02
   15.7500  4.2201206E-02  2.0322703E-02  3.9892942E-02
   16.0000  4.2541946E-02  2.0096620E-02  4.0115711E-02
   16.2500  4.2788555E-02  1.9946934E-02  4.0281563E-02
   16.5000  4.2927371E-02  1.9865994E-02  4.0370432E-02
   16.7500  4.2949839E-02  1.9847192E-02  4.0367980E-02
   17.0000  4.2853619E-02  1.9884757E-02  4.0267079E-02
   17.2500  4.2643024E-02  1.9973602E-02  4.0068284E-02
   17.5000  4.2328696E-02  2.0109214E-02  3.9779214E-02
   17.7500  4.1926592E-02  2.0287584E-02  3.9413031E-02
   18.0000  4.1456457E-02  2.0505154E-02  3.8986395E-02
   18.2500  4.0940042E-02  2.0758768E-02  3.8517332E-02
   18.5000  4.0399327E-02  2.1045650E-02  3.8023373E-02
   18.7500  3.9854970E-02  2.1363363E-02  3.7520188E-02
   19.0000  3.9325107E-02  2.1709801E-02  3.7020756E-02
   19.2500  3.8824558E-02  2.2083178E-02  3.6535008E-02
   19.5000  3.8364398E-02  2.2482030E-02  3.6069826E-02
   19.7500  3.7951870E-02  2.2905144E-02  3.5629302E-02
   20.0000  3.7590647E-02  2.3351300E-02  3.5215250E-02
   21.0000  3.6644528E-02  2.5322620E-02  3.3819301E-02
   22.0000  3.6277618E-02  2.7460205E-02  3.2762924E-02
   23.0000  3.6006974E-02  2.9583966E-02  3.1889606E-02
   24.0000  3.5370642E-02  3.1493171E-02  3.1064600E-02
   25.0000  3.4171112E-02  3.2977453E-02  3.0215485E-02
   26.0000  3.2509900E-02  3.3901185E-02  2.9326208E-02
   27.0000  3.0662292E-02  3.4219266E-02  2.8427706E-02
   28.0000  2.8894331E-02  3.3984836E-02  2.7576872E-02
   29.0000  2.7357844E-02  3.3332655E-02  2.6826711E-02
   30.0000  2.6092622E-02  3.2426028E-02  2.6202870E-02
   31.0000  2.5072642E-02  3.1405314E-02  2.5697099E-02
   32.0000  2.4245860E-02  3.0363408E-02  2.5275482E-02
   33.0000  2.3554621E-02  2.9346198E-02  2.4891531E-02
   34.0000  2.2944869E-02  2.8366001E-02  2.4497628E-02
   35.0000  2.2372884E-02  2.7417906E-02  2.4053906E-02
   36.0000  2.1812356E-02  2.6493834E-02  2.3536244E-02
   37.0000  2.1259439E-02  2.5593001E-02  2.2943716E-02
   38.0000  2.0732108E-02  2.4730693E-02  2.2304723E-02
   39.0000  2.0263582E-02  2.3948140E-02  2.1680784E-02
   40.0000  1.9890678E-02  2.3313878E-02  2.1157717E-02
