    Energy   (100,001)      (010,001)      (001,110)   
  -25.0000  1.6373163E-04  1.7721390E-04  1.7838545E-04
  -24.0000  1.6973684E-04  1.8417368E-04  1.8486668E-04
  -23.0000  1.7614799E-04  1.9164697E-04  1.9179232E-04
  -22.0000  1.8300599E-04  1.9969085E-04  1.9920843E-04
  -21.0000  1.9035733E-04  2.0837098E-04  2.0716752E-04
  -20.0000  1.9825507E-04  2.1776334E-04  2.1572980E-04
  -19.0000  2.0675999E-04  2.2795623E-04  2.2496462E-04
  -18.0000  2.1594210E-04  2.3905290E-04  2.3495224E-04
  -17.0000  2.2588239E-04  2.5117477E-04  2.4578604E-04
  -16.0000  2.3667511E-04  2.6446558E-04  2.5757536E-04
  -15.0000  2.4843055E-04  2.7909668E-04  2.7044904E-04
  -14.0000  2.6127865E-04  2.9527388E-04  2.8455991E-04
  -13.0000  2.7537351E-04  3.1324647E-04  3.0009069E-04
  -12.0000  2.9089934E-04  3.3331916E-04  3.1726169E-04
  -11.0000  3.0807821E-04  3.5586810E-04  3.3634097E-04
  -10.0000  3.2718040E-04  3.8136285E-04  3.5765813E-04
  -9.00000  3.4853828E-04  4.1039681E-04  3.8162316E-04
  -8.00000  3.7256564E-04  4.4373025E-04  4.0875272E-04
  -7.00000  3.9978457E-04  4.8235249E-04  4.3970771E-04
  -6.00000  4.3086441E-04  5.2757390E-04  4.7534827E-04
  -5.00000  4.6667921E-04  5.8116561E-04  5.1681649E-04
  -4.00000  5.0839583E-04  6.4557902E-04  5.6566546E-04
  -3.00000  5.5761429E-04  7.2430351E-04  6.2406884E-04
  -2.00000  6.1660325E-04  8.2247716E-04  6.9517896E-04
  -1.00000  6.8872079E-04  9.4799073E-04  7.8377847E-04
   0.00000  7.7923239E-04  1.1136356E-03  8.9756719E-04
   1.00000  8.9709135E-04  1.3417172E-03  1.0499958E-03
   2.00000  1.0594871E-03  1.6754679E-03  1.2675333E-03
   3.00000  1.3066049E-03  2.2141046E-03  1.6130531E-03
   4.00000  1.7710888E-03  3.2661921E-03  2.2931726E-03
   5.00000  3.0448836E-03  6.1401718E-03  4.2415894E-03
   5.20000  3.4344905E-03  7.0526620E-03  4.8788789E-03
   5.40000  3.8140969E-03  7.9903024E-03  5.5311515E-03
   5.60000  4.1721718E-03  8.9354228E-03  6.1702156E-03
   5.80000  4.5153066E-03  9.9040771E-03  6.7912586E-03
   6.00000  4.8550039E-03  1.0923438E-02  7.4026646E-03
   6.20000  5.2012530E-03  1.2021088E-02  8.0184597E-03
   6.40000  5.5607272E-03  1.3222472E-02  8.6526690E-03
   6.60000  5.9362338E-03  1.4550620E-02  9.3143246E-03
   6.80000  6.3265715E-03  1.6026270E-02  1.0004035E-02
   7.00000  6.7272926E-03  1.7668108E-02  1.0713779E-02
   7.20000  7.1329233E-03  1.9493386E-02  1.1431054E-02
   7.40000  7.5402536E-03  2.1518745E-02  1.2146110E-02
   7.60000  7.9510638E-03  2.3760418E-02  1.2857838E-02
   7.80000  8.3725640E-03  2.6233228E-02  1.3574004E-02
   8.00000  8.8154675E-03  2.8948831E-02  1.4305993E-02
   8.20000  9.2913162E-03  3.1913922E-02  1.5062589E-02
   8.40000  9.8106860E-03  3.5128112E-02  1.5846911E-02
   8.60000  1.0382755E-02  3.8580056E-02  1.6657207E-02
   8.80000  1.1015815E-02  4.2240599E-02  1.7489822E-02
   9.00000  1.1718077E-02  4.6052845E-02  1.8342355E-02
   9.20000  1.2498227E-02  4.9920340E-02  1.9215729E-02
   9.40000  1.3365411E-02  5.3696120E-02  2.0114663E-02
   9.60000  1.4328611E-02  5.7179058E-02  2.1046678E-02
   9.80000  1.5395689E-02  6.0126879E-02  2.2020256E-02
   10.0000  1.6572163E-02  6.2291384E-02  2.3042737E-02
   10.2500  1.8198765E-02  6.3595514E-02  2.4396277E-02
   10.5000  1.9990108E-02  6.3190518E-02  2.5835861E-02
   10.7500  2.1919602E-02  6.1200825E-02  2.7358826E-02
   11.0000  2.3936556E-02  5.7995310E-02  2.8956165E-02
   11.2500  2.5965753E-02  5.4047782E-02  3.0610508E-02
   11.5000  2.7917271E-02  4.9802895E-02  3.2294234E-02
   11.7500  2.9703697E-02  4.5601271E-02  3.3968504E-02
   12.0000  3.1258549E-02  4.1663275E-02  3.5584795E-02
   12.2500  3.2549506E-02  3.8106542E-02  3.7089422E-02
   12.5000  3.3582022E-02  3.4974499E-02  3.8430104E-02
   12.7500  3.4392850E-02  3.2263472E-02  3.9562949E-02
   13.0000  3.5036776E-02  2.9943924E-02  4.0458441E-02
   13.2500  3.5572192E-02  2.7975036E-02  4.1105562E-02
   13.5000  3.6050257E-02  2.6313251E-02  4.1513981E-02
   13.7500  3.6509304E-02  2.4916665E-02  4.1712794E-02
   14.0000  3.6973967E-02  2.3747205E-02  4.1744133E-02
   14.2500  3.7457123E-02  2.2771559E-02  4.1654581E-02
   14.5000  3.7962687E-02  2.1961316E-02  4.1488071E-02
   14.7500  3.8488215E-02  2.1292650E-02  4.1281325E-02
   15.0000  3.9026923E-02  2.0745828E-02  4.1061463E-02
   15.2500  3.9569104E-02  2.0304653E-02  4.0845252E-02
   15.5000  4.0103082E-02  1.9955923E-02  4.0639558E-02
   15.7500  4.0615930E-02  1.9688941E-02  4.0442687E-02
   16.0000  4.1094157E-02  1.9495065E-02  4.0246387E-02
   16.2500  4.1524540E-02  1.9367320E-02  4.0038313E-02
   16.5000  4.1895101E-02  1.9300056E-02  3.9804724E-02
   16.7500  4.2196180E-02  1.9288658E-02  3.9533113E-02
   17.0000  4.2421423E-02  1.9329294E-02  3.9214429E-02
   17.2500  4.2568506E-02  1.9418709E-02  3.8844564E-02
   17.5000  4.2639432E-02  1.9554066E-02  3.8424922E-02
   17.7500  4.2640314E-02  1.9732825E-02  3.7962046E-02
   18.0000  4.2580676E-02  1.9952661E-02  3.7466509E-02
   18.2500  4.2472393E-02  2.0211402E-02  3.6951374E-02
   18.5000  4.2328465E-02  2.0507005E-02  3.6430570E-02
   18.7500  4.2161811E-02  2.0837536E-02  3.5917470E-02
   19.0000  4.1984263E-02  2.1201184E-02  3.5423812E-02
   19.2500  4.1805820E-02  2.1596295E-02  3.4959014E-02
   19.5000  4.1634203E-02  2.2021413E-02  3.4529839E-02
   19.7500  4.1474675E-02  2.2475246E-02  3.4140355E-02
   20.0000  4.1330106E-02  2.2956428E-02  3.3792188E-02
   21.0000  4.0894544E-02  2.5105029E-02  3.2790966E-02
   22.0000  4.0532083E-02  2.7455582E-02  3.2267982E-02
   23.0000  3.9899807E-02  2.9768540E-02  3.1958014E-02
   24.0000  3.8658262E-02  3.1771387E-02  3.1643186E-02
   25.0000  3.6670331E-02  3.3225441E-02  3.1201984E-02
   26.0000  3.4152733E-02  3.4002437E-02  3.0604668E-02
   27.0000  3.1586715E-02  3.4123727E-02  2.9905978E-02
   28.0000  2.9361900E-02  3.3731850E-02  2.9205663E-02
   29.0000  2.7642513E-02  3.3010947E-02  2.8607338E-02
   30.0000  2.6421661E-02  3.2121699E-02  2.8177227E-02
   31.0000  2.5605973E-02  3.1171880E-02  2.7921395E-02
   32.0000  2.5074526E-02  3.0214364E-02  2.7793361E-02
   33.0000  2.4707778E-02  2.9260270E-02  2.7718867E-02
   34.0000  2.4400446E-02  2.8297485E-02  2.7620976E-02
   35.0000  2.4067765E-02  2.7309186E-02  2.7436632E-02
   36.0000  2.3651551E-02  2.6289214E-02  2.7125373E-02
   37.0000  2.3128869E-02  2.5252176E-02  2.6674931E-02
   38.0000  2.2521208E-02  2.4238379E-02  2.6107925E-02
   39.0000  2.1897445E-02  2.3316116E-02  2.5492503E-02
   40.0000  2.1359295E-02  2.2573657E-02  2.4944025E-02
