    Energy   (100,001)      (010,001)      (001,110)   
  -25.0000  1.7191464E-04  1.7422004E-04  1.7315990E-04
  -24.0000  1.7813631E-04  1.8112593E-04  1.7950956E-04
  -23.0000  1.8478251E-04  1.8854391E-04  1.8629757E-04
  -22.0000  1.9189699E-04  1.9653104E-04  1.9356959E-04
  -21.0000  1.9952969E-04  2.0515302E-04  2.0137778E-04
  -20.0000  2.0773780E-04  2.1448586E-04  2.0978199E-04
  -19.0000  2.1658719E-04  2.2461794E-04  2.1885117E-04
  -18.0000  2.2615404E-04  2.3565263E-04  2.2866524E-04
  -17.0000  2.3652697E-04  2.4771153E-04  2.3931729E-04
  -16.0000  2.4780973E-04  2.6093865E-04  2.5091643E-04
  -15.0000  2.6012450E-04  2.7550572E-04  2.6359138E-04
  -14.0000  2.7361621E-04  2.9161913E-04  2.7749507E-04
  -13.0000  2.8845812E-04  3.0952896E-04  2.9281063E-04
  -12.0000  3.0485910E-04  3.2954107E-04  3.0975919E-04
  -11.0000  3.2307336E-04  3.5203330E-04  3.2861038E-04
  -10.0000  3.4341355E-04  3.7747766E-04  3.4969638E-04
  -9.00000  3.6626873E-04  4.0647119E-04  3.7343131E-04
  -8.00000  3.9212963E-04  4.3977963E-04  4.0033834E-04
  -7.00000  4.2162467E-04  4.7840070E-04  4.3108848E-04
  -6.00000  4.5557301E-04  5.2365787E-04  4.6655743E-04
  -5.00000  4.9506474E-04  5.7734337E-04  5.0791133E-04
  -4.00000  5.4158667E-04  6.4194349E-04  5.5674045E-04
  -3.00000  5.9722819E-04  7.2100748E-04  6.1527590E-04
  -2.00000  6.6503621E-04  8.1978063E-04  6.8675850E-04
  -1.00000  7.4966883E-04  9.4635596E-04  7.7610423E-04
   0.00000  8.5870579E-04  1.1139323E-03  8.9119932E-04
   1.00000  1.0055921E-03  1.3457100E-03  1.0456844E-03
   2.00000  1.2173922E-03  1.6871303E-03  1.2658344E-03
   3.00000  1.5606697E-03  2.2439035E-03  1.6115089E-03
   4.00000  2.2661267E-03  3.3499216E-03  2.2655347E-03
   5.00000  4.3957735E-03  6.4422197E-03  3.9940100E-03
   5.20000  5.0565575E-03  7.4369188E-03  4.5586474E-03
   5.40000  5.6873721E-03  8.4652632E-03  5.1670649E-03
   5.60000  6.2612888E-03  9.5069141E-03  5.8187503E-03
   5.80000  6.7876525E-03  1.0575357E-02  6.5285664E-03
   6.00000  7.2877243E-03  1.1693106E-02  7.3127580E-03
   6.20000  7.7808440E-03  1.2880111E-02  8.1810283E-03
   6.40000  8.2806842E-03  1.4151818E-02  9.1339006E-03
   6.60000  8.7958643E-03  1.5520571E-02  1.0163527E-02
   6.80000  9.3315849E-03  1.6997752E-02  1.1257346E-02
   7.00000  9.8910363E-03  1.8595849E-02  1.2403489E-02
   7.20000  1.0476435E-02  2.0330198E-02  1.3595432E-02
   7.40000  1.1089856E-02  2.2220243E-02  1.4832706E-02
   7.60000  1.1733959E-02  2.4290136E-02  1.6115640E-02
   7.80000  1.2412593E-02  2.6568276E-02  1.7434812E-02
   8.00000  1.3131184E-02  2.9084946E-02  1.8759398E-02
   8.20000  1.3896815E-02  3.1866849E-02  2.0031576E-02
   8.40000  1.4717866E-02  3.4928010E-02  2.1174085E-02
   8.60000  1.5603117E-02  3.8258199E-02  2.2111985E-02
   8.80000  1.6560070E-02  4.1811628E-02  2.2799138E-02
   9.00000  1.7592339E-02  4.5498729E-02  2.3234096E-02
   9.20000  1.8696561E-02  4.9183278E-02  2.3456561E-02
   9.40000  1.9860363E-02  5.2686311E-02  2.3529803E-02
   9.60000  2.1062849E-02  5.5797667E-02  2.3522670E-02
   9.80000  2.2277160E-02  5.8298364E-02  2.3498197E-02
   10.0000  2.3473293E-02  5.9995430E-02  2.3506859E-02
   10.2500  2.4896448E-02  6.0798975E-02  2.3616371E-02
   10.5000  2.6189894E-02  6.0103506E-02  2.3869955E-02
   10.7500  2.7316370E-02  5.8087426E-02  2.4281838E-02
   11.0000  2.8263021E-02  5.5088238E-02  2.4850293E-02
   11.2500  2.9042156E-02  5.1498844E-02  2.5561836E-02
   11.5000  2.9684425E-02  4.7679370E-02  2.6393370E-02
   11.7500  3.0228207E-02  4.3907865E-02  2.7314645E-02
   12.0000  3.0709889E-02  4.0367235E-02  2.8291941E-02
   12.2500  3.1158454E-02  3.7156754E-02  2.9291340E-02
   12.5000  3.1594370E-02  3.4314974E-02  3.0278873E-02
   12.7500  3.2030942E-02  3.1842202E-02  3.1221009E-02
   13.0000  3.2476729E-02  2.9717066E-02  3.2090322E-02
   13.2500  3.2937586E-02  2.7907562E-02  3.2872362E-02
   13.5000  3.3417463E-02  2.6378150E-02  3.3568375E-02
   13.7500  3.3918069E-02  2.5093950E-02  3.4193258E-02
   14.0000  3.4437985E-02  2.4022885E-02  3.4770541E-02
   14.2500  3.4971835E-02  2.3136537E-02  3.5326528E-02
   14.5000  3.5509919E-02  2.2410289E-02  3.5885153E-02
   14.7500  3.6038483E-02  2.1823102E-02  3.6464288E-02
   15.0000  3.6540619E-02  2.1357150E-02  3.7073570E-02
   15.2500  3.6997710E-02  2.0997419E-02  3.7713503E-02
   15.5000  3.7391240E-02  2.0731301E-02  3.8375542E-02
   15.7500  3.7704795E-02  2.0548229E-02  3.9042980E-02
   16.0000  3.7925990E-02  2.0439345E-02  3.9692581E-02
   16.2500  3.8048029E-02  2.0397213E-02  4.0296921E-02
   16.5000  3.8070632E-02  2.0415568E-02  4.0827341E-02
   16.7500  3.8000152E-02  2.0489099E-02  4.1257218E-02
   17.0000  3.7848836E-02  2.0613262E-02  4.1565132E-02
   17.2500  3.7633393E-02  2.0784108E-02  4.1737363E-02
   17.5000  3.7373141E-02  2.0998139E-02  4.1769264E-02
   17.7500  3.7088077E-02  2.1252178E-02  4.1665275E-02
   18.0000  3.6797176E-02  2.1543258E-02  4.1437672E-02
   18.2500  3.6517114E-02  2.1868540E-02  4.1104444E-02
   18.5000  3.6261490E-02  2.2225246E-02  4.0686782E-02
   18.7500  3.6040503E-02  2.2610635E-02  4.0206690E-02
   19.0000  3.5860991E-02  2.3022000E-02  3.9685015E-02
   19.2500  3.5726706E-02  2.3456713E-02  3.9140050E-02
   19.5000  3.5638696E-02  2.3912290E-02  3.8586701E-02
   19.7500  3.5595687E-02  2.4386393E-02  3.8036210E-02
   20.0000  3.5594358E-02  2.4876622E-02  3.7496468E-02
   21.0000  3.5881871E-02  2.6929495E-02  3.5532354E-02
   22.0000  3.6249008E-02  2.8945715E-02  3.3933069E-02
   23.0000  3.6167093E-02  3.0713372E-02  3.2604422E-02
   24.0000  3.5327632E-02  3.2059776E-02  3.1425718E-02
   25.0000  3.3818212E-02  3.2876022E-02  3.0329880E-02
   26.0000  3.2014658E-02  3.3142293E-02  2.9313080E-02
   27.0000  3.0305011E-02  3.2927748E-02  2.8419859E-02
   28.0000  2.8900704E-02  3.2358039E-02  2.7707733E-02
   29.0000  2.7831683E-02  3.1567922E-02  2.7205622E-02
   30.0000  2.7041581E-02  3.0669013E-02  2.6891679E-02
   31.0000  2.6462671E-02  2.9736514E-02  2.6702042E-02
   32.0000  2.6032754E-02  2.8799975E-02  2.6560239E-02
   33.0000  2.5696543E-02  2.7861195E-02  2.6400574E-02
   34.0000  2.5406476E-02  2.6912996E-02  2.6178642E-02
   35.0000  2.5124765E-02  2.5949108E-02  2.5873473E-02
   36.0000  2.4826894E-02  2.4971816E-02  2.5484530E-02
   37.0000  2.4504093E-02  2.3998180E-02  2.5025083E-02
   38.0000  2.4164976E-02  2.3064490E-02  2.4519148E-02
   39.0000  2.3836979E-02  2.2228706E-02  2.4010965E-02
   40.0000  2.3561841E-02  2.1562642E-02  2.3573545E-02
