    Energy   (100,001)      (010,001)      (001,110)   
  -25.0000  1.6607360E-04  1.8860843E-04  1.7384565E-04
  -24.0000  1.7214746E-04  1.9545152E-04  1.8002713E-04
  -23.0000  1.7863623E-04  2.0277316E-04  1.8662447E-04
  -22.0000  1.8558253E-04  2.1062451E-04  1.9367999E-04
  -21.0000  1.9303494E-04  2.1906421E-04  2.0124189E-04
  -20.0000  2.0104908E-04  2.2815979E-04  2.0936527E-04
  -19.0000  2.0968893E-04  2.3798945E-04  2.1811345E-04
  -18.0000  2.1902843E-04  2.4864419E-04  2.2755954E-04
  -17.0000  2.2915349E-04  2.6023054E-04  2.3778841E-04
  -16.0000  2.4016456E-04  2.7287398E-04  2.4889911E-04
  -15.0000  2.5217977E-04  2.8672338E-04  2.6100804E-04
  -14.0000  2.6533905E-04  3.0195658E-04  2.7425284E-04
  -13.0000  2.7980936E-04  3.1878783E-04  2.8879755E-04
  -12.0000  2.9579162E-04  3.3747750E-04  3.0483923E-04
  -11.0000  3.1352979E-04  3.5834508E-04  3.2261681E-04
  -10.0000  3.3332311E-04  3.8178693E-04  3.4242293E-04
  -9.00000  3.5554289E-04  4.0830066E-04  3.6462007E-04
  -8.00000  3.8065577E-04  4.3851952E-04  3.8966311E-04
  -7.00000  4.0925681E-04  4.7326180E-04  4.1813135E-04
  -6.00000  4.4211778E-04  5.1360352E-04  4.5077534E-04
  -5.00000  4.8025934E-04  5.6098858E-04  4.8858731E-04
  -4.00000  5.2506308E-04  6.1740119E-04  5.3291111E-04
  -3.00000  5.7845197E-04  6.8564673E-04  5.8562163E-04
  -2.00000  6.4319624E-04  7.6983234E-04  6.4943387E-04
  -1.00000  7.2346465E-04  8.7624114E-04  7.2847443E-04
   0.00000  8.2590140E-04  1.0150557E-03  8.2943979E-04
   1.00000  9.6197267E-04  1.2041457E-03  9.6425590E-04
   2.00000  1.1539371E-03  1.4787930E-03  1.1573593E-03
   3.00000  1.4540656E-03  1.9232936E-03  1.4715421E-03
   4.00000  2.0343681E-03  2.8198644E-03  2.1435592E-03
   5.00000  3.6516032E-03  5.4312343E-03  4.2778761E-03
   5.20000  4.1399519E-03  6.2311065E-03  4.8410576E-03
   5.40000  4.6098995E-03  6.9977069E-03  5.2627293E-03
   5.60000  5.0497250E-03  7.7037240E-03  5.5264145E-03
   5.80000  5.4722066E-03  8.3624397E-03  5.6804179E-03
   6.00000  5.8962074E-03  8.9991923E-03  5.7871913E-03
   6.20000  6.3385261E-03  9.6380569E-03  5.8966614E-03
   6.40000  6.8126567E-03  1.0299365E-02  6.0413924E-03
   6.60000  7.3296054E-03  1.1000554E-02  6.2408189E-03
   6.80000  7.8989115E-03  1.1757385E-02  6.5068434E-03
   7.00000  8.5293842E-03  1.2584938E-02  6.8479574E-03
   7.20000  9.2294782E-03  1.3498439E-02  7.2715188E-03
   7.40000  1.0007304E-02  1.4514046E-02  7.7845740E-03
   7.60000  1.0870255E-02  1.5649556E-02  8.3936367E-03
   7.80000  1.1824200E-02  1.6924902E-02  9.1037143E-03
   8.00000  1.2872186E-02  1.8362270E-02  9.9168422E-03
   8.20000  1.4012662E-02  1.9985570E-02  1.0830491E-02
   8.40000  1.5237395E-02  2.1819106E-02  1.1836432E-02
   8.60000  1.6529644E-02  2.3885322E-02  1.2920826E-02
   8.80000  1.7863631E-02  2.6201749E-02  1.4066259E-02
   9.00000  1.9206353E-02  2.8777274E-02  1.5255728E-02
   9.20000  2.0522038E-02  3.1608017E-02  1.6477444E-02
   9.40000  2.1778287E-02  3.4673292E-02  1.7728337E-02
   9.60000  2.2951698E-02  3.7932052E-02  1.9013939E-02
   9.80000  2.4031067E-02  4.1318539E-02  2.0343802E-02
   10.0000  2.5017884E-02  4.4734738E-02  2.1724689E-02
   10.2500  2.6139540E-02  4.8833205E-02  2.3518596E-02
   10.5000  2.7165246E-02  5.2414515E-02  2.5358273E-02
   10.7500  2.8113784E-02  5.5104338E-02  2.7184315E-02
   11.0000  2.8978337E-02  5.6593813E-02  2.8916359E-02
   11.2500  2.9727754E-02  5.6735775E-02  3.0468894E-02
   11.5000  3.0323097E-02  5.5593875E-02  3.1771735E-02
   11.7500  3.0738967E-02  5.3413462E-02  3.2788046E-02
   12.0000  3.0977402E-02  5.0534326E-02  3.3521288E-02
   12.2500  3.1068791E-02  4.7297235E-02  3.4008276E-02
   12.5000  3.1061778E-02  4.3982332E-02  3.4304349E-02
   12.7500  3.1009505E-02  4.0786718E-02  3.4468798E-02
   13.0000  3.0958836E-02  3.7829301E-02  3.4554894E-02
   13.2500  3.0944894E-02  3.5167931E-02  3.4604908E-02
   13.5000  3.0990044E-02  3.2818879E-02  3.4649333E-02
   13.7500  3.1105581E-02  3.0773456E-02  3.4709714E-02
   14.0000  3.1294585E-02  2.9009776E-02  3.4802737E-02
   14.2500  3.1554562E-02  2.7500210E-02  3.4942329E-02
   14.5000  3.1879088E-02  2.6215848E-02  3.5139631E-02
   14.7500  3.2258376E-02  2.5128984E-02  3.5402267E-02
   15.0000  3.2679546E-02  2.4214326E-02  3.5733645E-02
   15.2500  3.3127324E-02  2.3449479E-02  3.6132505E-02
   15.5000  3.3585059E-02  2.2815008E-02  3.6592602E-02
   15.7500  3.4035668E-02  2.2294263E-02  3.7102517E-02
   16.0000  3.4462484E-02  2.1873092E-02  3.7645707E-02
   16.2500  3.4850120E-02  2.1539520E-02  3.8201054E-02
   16.5000  3.5185409E-02  2.1283446E-02  3.8744042E-02
   16.7500  3.5458353E-02  2.1096356E-02  3.9248586E-02
   17.0000  3.5662971E-02  2.0971082E-02  3.9689376E-02
   17.2500  3.5797863E-02  2.0901577E-02  4.0044374E-02
   17.5000  3.5866363E-02  2.0882730E-02  4.0297049E-02
   17.7500  3.5876206E-02  2.0910212E-02  4.0437889E-02
   18.0000  3.5838732E-02  2.0980338E-02  4.0464934E-02
   18.2500  3.5767734E-02  2.1089970E-02  4.0383263E-02
   18.5000  3.5678142E-02  2.1236435E-02  4.0203654E-02
   18.7500  3.5584742E-02  2.1417464E-02  3.9940755E-02
   19.0000  3.5501066E-02  2.1631168E-02  3.9611124E-02
   19.2500  3.5438591E-02  2.1876010E-02  3.9231437E-02
   19.5000  3.5406238E-02  2.2150805E-02  3.8817055E-02
   19.7500  3.5410152E-02  2.2454653E-02  3.8381101E-02
   20.0000  3.5453698E-02  2.2786735E-02  3.7934195E-02
   21.0000  3.6011089E-02  2.4369110E-02  3.6186521E-02
   22.0000  3.6992944E-02  2.6265874E-02  3.4677724E-02
   23.0000  3.7997395E-02  2.8311510E-02  3.3407746E-02
   24.0000  3.8558846E-02  3.0276047E-02  3.2282495E-02
   25.0000  3.8276395E-02  3.1923863E-02  3.1221038E-02
   26.0000  3.6982599E-02  3.3094578E-02  3.0189148E-02
   27.0000  3.4870847E-02  3.3744171E-02  2.9203144E-02
   28.0000  3.2403779E-02  3.3933158E-02  2.8309851E-02
   29.0000  3.0042953E-02  3.3779963E-02  2.7552985E-02
   30.0000  2.8055242E-02  3.3409310E-02  2.6950326E-02
   31.0000  2.6506795E-02  3.2919817E-02  2.6492690E-02
   32.0000  2.5349417E-02  3.2372996E-02  2.6154322E-02
   33.0000  2.4497359E-02  3.1795553E-02  2.5903095E-02
   34.0000  2.3866489E-02  3.1190169E-02  2.5706400E-02
   35.0000  2.3383712E-02  3.0555556E-02  2.5532218E-02
   36.0000  2.2989136E-02  2.9900688E-02  2.5351349E-02
   37.0000  2.2645818E-02  2.9237974E-02  2.5145998E-02
   38.0000  2.2337042E-02  2.8588472E-02  2.4916293E-02
   39.0000  2.2062655E-02  2.7990487E-02  2.4683750E-02
   40.0000  2.1837105E-02  2.7502576E-02  2.4484814E-02
