    Energy   (100,001)      (010,001)      (001,110)   
  -25.0000  1.6914854E-04  1.7777413E-04  1.7285576E-04
  -24.0000  1.7562491E-04  1.8465514E-04  1.7959508E-04
  -23.0000  1.8256214E-04  1.9203881E-04  1.8682475E-04
  -22.0000  1.9000928E-04  1.9998059E-04  1.9459825E-04
  -21.0000  1.9802239E-04  2.0854428E-04  2.0297692E-04
  -20.0000  2.0666593E-04  2.1780359E-04  2.1203153E-04
  -19.0000  2.1601429E-04  2.2784419E-04  2.2184407E-04
  -18.0000  2.2615380E-04  2.3876610E-04  2.3251009E-04
  -17.0000  2.3718519E-04  2.5068691E-04  2.4414155E-04
  -16.0000  2.4922666E-04  2.6374569E-04  2.5687049E-04
  -15.0000  2.6241786E-04  2.7810805E-04  2.7085369E-04
  -14.0000  2.7692486E-04  2.9397277E-04  2.8627866E-04
  -13.0000  2.9294671E-04  3.1158037E-04  3.0337154E-04
  -12.0000  3.1072392E-04  3.3122454E-04  3.2240743E-04
  -11.0000  3.3054983E-04  3.5326747E-04  3.4372434E-04
  -10.0000  3.5278578E-04  3.7816077E-04  3.6774211E-04
  -9.00000  3.7788196E-04  4.0647441E-04  3.9498864E-04
  -8.00000  4.0640636E-04  4.3893774E-04  4.2613686E-04
  -7.00000  4.3908592E-04  4.7649843E-04  4.6205808E-04
  -6.00000  4.7686628E-04  5.2040959E-04  5.0390096E-04
  -5.00000  5.2100097E-04  5.7236192E-04  5.5321159E-04
  -4.00000  5.7318871E-04  6.3469047E-04  6.1212285E-04
  -3.00000  6.3579276E-04  7.1071080E-04  6.8366506E-04
  -2.00000  7.1220763E-04  8.0529055E-04  7.7230200E-04
  -1.00000  8.0750782E-04  9.2587811E-04  8.8491478E-04
   0.00000  9.2968309E-04  1.0844932E-03  1.0327589E-03
   1.00000  1.0922361E-03  1.3019758E-03  1.2357973E-03
   2.00000  1.3204825E-03  1.6184215E-03  1.5338559E-03
   3.00000  1.6705930E-03  2.1250053E-03  2.0226520E-03
   4.00000  2.3120457E-03  3.1023537E-03  3.0203130E-03
   5.00000  3.9508764E-03  5.7321403E-03  5.9409370E-03
   5.20000  4.4615580E-03  6.5644657E-03  6.8605842E-03
   5.40000  4.9848657E-03  7.4207781E-03  7.7765111E-03
   5.60000  5.5102831E-03  8.2847679E-03  8.6709767E-03
   5.80000  6.0464085E-03  9.1690254E-03  9.5687446E-03
   6.00000  6.6088501E-03  1.0094268E-02  1.0503377E-02
   6.20000  7.2140686E-03  1.1080520E-02  1.1500926E-02
   6.40000  7.8777194E-03  1.2146646E-02  1.2576692E-02
   6.60000  8.6145039E-03  1.3311966E-02  1.3734984E-02
   6.80000  9.4384815E-03  1.4597616E-02  1.4967565E-02
   7.00000  1.0363551E-02  1.6027696E-02  1.6251048E-02
   7.20000  1.1403768E-02  1.7630797E-02  1.7546375E-02
   7.40000  1.2573025E-02  1.9442179E-02  1.8804564E-02
   7.60000  1.3883678E-02  2.1506157E-02  1.9981311E-02
   7.80000  1.5344217E-02  2.3877268E-02  2.1057481E-02
   8.00000  1.6956867E-02  2.6617320E-02  2.2054880E-02
   8.20000  1.8716331E-02  2.9785563E-02  2.3035354E-02
   8.40000  2.0610022E-02  3.3422185E-02  2.4081932E-02
   8.60000  2.2618873E-02  3.7527544E-02  2.5273701E-02
   8.80000  2.4717553E-02  4.2039612E-02  2.6667703E-02
   9.00000  2.6873799E-02  4.6812958E-02  2.8292211E-02
   9.20000  2.9047200E-02  5.1606271E-02  3.0145726E-02
   9.40000  3.1187824E-02  5.6090158E-02  3.2193152E-02
   9.60000  3.3236021E-02  5.9886346E-02  3.4362158E-02
   9.80000  3.5125424E-02  6.2638480E-02  3.6550613E-02
   10.0000  3.6789913E-02  6.4095733E-02  3.8644618E-02
   10.2500  3.8470603E-02  6.3987616E-02  4.0970669E-02
   10.5000  3.9650882E-02  6.1964344E-02  4.2835053E-02
   10.7500  4.0334722E-02  5.8549786E-02  4.4166418E-02
   11.0000  4.0586381E-02  5.4355619E-02  4.4968679E-02
   11.2500  4.0506508E-02  4.9909897E-02  4.5296111E-02
   11.5000  4.0205055E-02  4.5581941E-02  4.5223760E-02
   11.7500  3.9780962E-02  4.1585328E-02  4.4827574E-02
   12.0000  3.9312202E-02  3.8016225E-02  4.4176908E-02
   12.2500  3.8854130E-02  3.4895724E-02  4.3335048E-02
   12.5000  3.8442289E-02  3.2203043E-02  4.2362219E-02
   12.7500  3.8096754E-02  2.9897956E-02  4.1316562E-02
   13.0000  3.7826571E-02  2.7934343E-02  4.0252062E-02
   13.2500  3.7633185E-02  2.6267240E-02  3.9215670E-02
   13.5000  3.7512316E-02  2.4856069E-02  3.8244915E-02
   13.7500  3.7455299E-02  2.3665739E-02  3.7366672E-02
   14.0000  3.7450653E-02  2.2666508E-02  3.6597794E-02
   14.2500  3.7485451E-02  2.1833352E-02  3.5946803E-02
   14.5000  3.7546159E-02  2.1145269E-02  3.5415530E-02
   14.7500  3.7619103E-02  2.0584636E-02  3.5000415E-02
   15.0000  3.7690824E-02  2.0136647E-02  3.4693572E-02
   15.2500  3.7748521E-02  1.9788820E-02  3.4483717E-02
   15.5000  3.7780630E-02  1.9530583E-02  3.4357037E-02
   15.7500  3.7777528E-02  1.9352933E-02  3.4298023E-02
   16.0000  3.7732234E-02  1.9248139E-02  3.4290283E-02
   16.2500  3.7641002E-02  1.9209518E-02  3.4317343E-02
   16.5000  3.7503654E-02  1.9231241E-02  3.4363381E-02
   16.7500  3.7323570E-02  1.9308178E-02  3.4413891E-02
   17.0000  3.7107297E-02  1.9435771E-02  3.4456213E-02
   17.2500  3.6863841E-02  1.9609924E-02  3.4479924E-02
   17.5000  3.6603743E-02  1.9826917E-02  3.4477074E-02
   17.7500  3.6338067E-02  2.0083328E-02  3.4442243E-02
   18.0000  3.6077430E-02  2.0375976E-02  3.4372457E-02
   18.2500  3.5831164E-02  2.0701876E-02  3.4266962E-02
   18.5000  3.5606664E-02  2.1058204E-02  3.4126878E-02
   18.7500  3.5408978E-02  2.1442294E-02  3.3954789E-02
   19.0000  3.5240622E-02  2.1851645E-02  3.3754278E-02
   19.2500  3.5101617E-02  2.2283983E-02  3.3529464E-02
   19.5000  3.4989719E-02  2.2737317E-02  3.3284566E-02
   19.7500  3.4900758E-02  2.3209949E-02  3.3023575E-02
   20.0000  3.4828985E-02  2.3700278E-02  3.2750135E-02
   21.0000  3.4563062E-02  2.5791300E-02  3.1598077E-02
   22.0000  3.3985524E-02  2.7964273E-02  3.0458233E-02
   23.0000  3.2849954E-02  3.0041953E-02  2.9373446E-02
   24.0000  3.1244869E-02  3.1818376E-02  2.8339311E-02
   25.0000  2.9466955E-02  3.3162047E-02  2.7354722E-02
   26.0000  2.7808664E-02  3.4003386E-02  2.6451076E-02
   27.0000  2.6426286E-02  3.4325346E-02  2.5684754E-02
   28.0000  2.5364105E-02  3.4179902E-02  2.5103373E-02
   29.0000  2.4613046E-02  3.3672655E-02  2.4718970E-02
   30.0000  2.4125187E-02  3.2921438E-02  2.4500453E-02
   31.0000  2.3823164E-02  3.2024170E-02  2.4382439E-02
   32.0000  2.3621496E-02  3.1047946E-02  2.4284205E-02
   33.0000  2.3445697E-02  3.0032041E-02  2.4130481E-02
   34.0000  2.3241324E-02  2.8996239E-02  2.3867958E-02
   35.0000  2.2974764E-02  2.7949994E-02  2.3476471E-02
   36.0000  2.2632507E-02  2.6901000E-02  2.2975451E-02
   37.0000  2.2223790E-02  2.5863800E-02  2.2421647E-02
   38.0000  2.1783114E-02  2.4869122E-02  2.1892427E-02
   39.0000  2.1364409E-02  2.3972867E-02  2.1456375E-02
   40.0000  2.1023740E-02  2.3253385E-02  2.1143435E-02
