    Energy   (100,001)      (010,001)      (001,110)   
  -25.0000  1.6754489E-04  1.8658357E-04  1.8472818E-04
  -24.0000  1.7358300E-04  1.9353059E-04  1.9128176E-04
  -23.0000  1.8002623E-04  2.0097231E-04  1.9827986E-04
  -22.0000  1.8691537E-04  2.0896228E-04  2.0576835E-04
  -21.0000  1.9429676E-04  2.1756201E-04  2.1379958E-04
  -20.0000  2.0222334E-04  2.2684241E-04  2.2243356E-04
  -19.0000  2.1075579E-04  2.3688567E-04  2.3173938E-04
  -18.0000  2.1996402E-04  2.4778761E-04  2.4179706E-04
  -17.0000  2.2992900E-04  2.5966053E-04  2.5269971E-04
  -16.0000  2.4074505E-04  2.7263694E-04  2.6455637E-04
  -15.0000  2.5252265E-04  2.8687422E-04  2.7749556E-04
  -14.0000  2.6539213E-04  3.0256072E-04  2.9166979E-04
  -13.0000  2.7950832E-04  3.1992368E-04  3.0726148E-04
  -12.0000  2.9505664E-04  3.3923966E-04  3.2449067E-04
  -11.0000  3.1226109E-04  3.6084862E-04  3.4362526E-04
  -10.0000  3.3139498E-04  3.8517293E-04  3.6499484E-04
  -9.00000  3.5279546E-04  4.1274370E-04  3.8900960E-04
  -8.00000  3.7688365E-04  4.4423782E-04  4.1618680E-04
  -7.00000  4.0419317E-04  4.8053120E-04  4.4718846E-04
  -6.00000  4.3541135E-04  5.2277701E-04  4.8287648E-04
  -5.00000  4.7144086E-04  5.7252414E-04  5.2439542E-04
  -4.00000  5.1349475E-04  6.3190197E-04  5.7330109E-04
  -3.00000  5.6324928E-04  7.0392033E-04  6.3176805E-04
  -2.00000  6.2310262E-04  7.9297928E-04  7.0294108E-04
  -1.00000  6.9664134E-04  9.0578792E-04  7.9156616E-04
   0.00000  7.8955468E-04  1.0531510E-03  9.0521220E-04
   1.00000  9.1163892E-04  1.2538201E-03  1.0568861E-03
   2.00000  1.0819449E-03  1.5441144E-03  1.2714756E-03
   3.00000  1.3455433E-03  2.0080809E-03  1.6053696E-03
   4.00000  1.8526948E-03  2.9137389E-03  2.2305213E-03
   5.00000  3.2743367E-03  5.4198417E-03  3.8720962E-03
   5.20000  3.7060452E-03  6.1973960E-03  4.4088948E-03
   5.40000  4.1206312E-03  6.9703716E-03  4.9854662E-03
   5.60000  4.5047857E-03  7.7187613E-03  5.5960869E-03
   5.80000  4.8669215E-03  8.4557383E-03  6.2474521E-03
   6.00000  5.2217548E-03  9.2041493E-03  6.9473572E-03
   6.20000  5.5832884E-03  9.9857979E-03  7.6998651E-03
   6.40000  5.9635889E-03  1.0819703E-02  8.5054918E-03
   6.60000  6.3732252E-03  1.1723119E-02  9.3634084E-03
   6.80000  6.8217854E-03  1.2713062E-02  1.0274001E-02
   7.00000  7.3180151E-03  1.3807842E-02  1.1240743E-02
   7.20000  7.8694768E-03  1.5028467E-02  1.2270703E-02
   7.40000  8.4817658E-03  1.6399728E-02  1.3373394E-02
   7.60000  9.1573750E-03  1.7950730E-02  1.4557803E-02
   7.80000  9.8943460E-03  1.9714560E-02  1.5827354E-02
   8.00000  1.0684933E-02  2.1726387E-02  1.7172729E-02
   8.20000  1.1514752E-02  2.4019058E-02  1.8563592E-02
   8.40000  1.2363297E-02  2.6615805E-02  1.9942626E-02
   8.60000  1.3206981E-02  2.9521187E-02  2.1228236E-02
   8.80000  1.4025025E-02  3.2713355E-02  2.2331991E-02
   9.00000  1.4806282E-02  3.6141422E-02  2.3188861E-02
   9.20000  1.5552914E-02  3.9728777E-02  2.3785346E-02
   9.40000  1.6278019E-02  4.3378087E-02  2.4166645E-02
   9.60000  1.6998734E-02  4.6972367E-02  2.4417767E-02
   9.80000  1.7729580E-02  5.0371756E-02  2.4632128E-02
   10.0000  1.8479379E-02  5.3412081E-02  2.4885763E-02
   10.2500  1.9448039E-02  5.6433645E-02  2.5327113E-02
   10.5000  2.0450653E-02  5.8289581E-02  2.5933770E-02
   10.7500  2.1485054E-02  5.8783061E-02  2.6691244E-02
   11.0000  2.2550902E-02  5.7923876E-02  2.7560280E-02
   11.2500  2.3644363E-02  5.5928765E-02  2.8492437E-02
   11.5000  2.4751140E-02  5.3139013E-02  2.9439846E-02
   11.7500  2.5845604E-02  4.9910995E-02  3.0361418E-02
   12.0000  2.6894680E-02  4.6541287E-02  3.1224590E-02
   12.2500  2.7863744E-02  4.3240400E-02  3.2004054E-02
   12.5000  2.8723662E-02  4.0138313E-02  3.2680765E-02
   12.7500  2.9457957E-02  3.7303354E-02  3.3243783E-02
   13.0000  3.0067465E-02  3.4762699E-02  3.3694112E-02
   13.2500  3.0570275E-02  3.2518682E-02  3.4046270E-02
   13.5000  3.0997238E-02  3.0559421E-02  3.4325297E-02
   13.7500  3.1384554E-02  2.8865105E-02  3.4560818E-02
   14.0000  3.1766463E-02  2.7411894E-02  3.4781508E-02
   14.2500  3.2171076E-02  2.6174648E-02  3.5012301E-02
   14.5000  3.2619153E-02  2.5128828E-02  3.5273567E-02
   14.7500  3.3124313E-02  2.4251620E-02  3.5580758E-02
   15.0000  3.3693841E-02  2.3522489E-02  3.5944032E-02
   15.2500  3.4329738E-02  2.2923321E-02  3.6367887E-02
   15.5000  3.5029767E-02  2.2438341E-02  3.6850862E-02
   15.7500  3.5788345E-02  2.2053898E-02  3.7385348E-02
   16.0000  3.6597208E-02  2.1758203E-02  3.7957603E-02
   16.2500  3.7445857E-02  2.1541061E-02  3.8548120E-02
   16.5000  3.8321851E-02  2.1393650E-02  3.9132507E-02
   16.7500  3.9211036E-02  2.1308324E-02  3.9683034E-02
   17.0000  4.0097806E-02  2.1278475E-02  4.0170845E-02
   17.2500  4.0965472E-02  2.1298427E-02  4.0568683E-02
   17.5000  4.1796801E-02  2.1363347E-02  4.0853733E-02
   17.7500  4.2574720E-02  2.1469173E-02  4.1010074E-02
   18.0000  4.3283174E-02  2.1612520E-02  4.1030250E-02
   18.2500  4.3908040E-02  2.1790581E-02  4.0915638E-02
   18.5000  4.4437998E-02  2.2001013E-02  4.0675624E-02
   18.7500  4.4865213E-02  2.2241826E-02  4.0325813E-02
   19.0000  4.5185712E-02  2.2511283E-02  3.9885719E-02
   19.2500  4.5399388E-02  2.2807844E-02  3.9376359E-02
   19.5000  4.5509618E-02  2.3130122E-02  3.8818112E-02
   19.7500  4.5522637E-02  2.3476818E-02  3.8229175E-02
   20.0000  4.5446885E-02  2.3846509E-02  3.7624926E-02
   21.0000  4.4466943E-02  2.5507284E-02  3.5286550E-02
   22.0000  4.2835724E-02  2.7317704E-02  3.3379106E-02
   23.0000  4.0854791E-02  2.9086480E-02  3.1963822E-02
   24.0000  3.8611462E-02  3.0632250E-02  3.0934287E-02
   25.0000  3.6187497E-02  3.1822697E-02  3.0153949E-02
   26.0000  3.3753712E-02  3.2600327E-02  2.9500439E-02
   27.0000  3.1513316E-02  3.2980819E-02  2.8894594E-02
   28.0000  2.9596404E-02  3.3032122E-02  2.8318786E-02
   29.0000  2.8025810E-02  3.2845434E-02  2.7807805E-02
   30.0000  2.6768440E-02  3.2507521E-02  2.7413130E-02
   31.0000  2.5789140E-02  3.2080885E-02  2.7164356E-02
   32.0000  2.5058725E-02  3.1597479E-02  2.7051914E-02
   33.0000  2.4534527E-02  3.1069045E-02  2.7035464E-02
   34.0000  2.4152974E-02  3.0498021E-02  2.7063489E-02
   35.0000  2.3850113E-02  2.9873186E-02  2.7088538E-02
   36.0000  2.3572643E-02  2.9183005E-02  2.7076422E-02
   37.0000  2.3284747E-02  2.8430433E-02  2.7009595E-02
   38.0000  2.2975953E-02  2.7642062E-02  2.6888583E-02
   39.0000  2.2664729E-02  2.6879151E-02  2.6734304E-02
   40.0000  2.2393306E-02  2.6239623E-02  2.6586787E-02
