    Energy   (100,001)      (010,001)      (001,110)   
  -25.0000  1.7299347E-04  1.8108669E-04  1.8345971E-04
  -24.0000  1.7942549E-04  1.8804032E-04  1.9009484E-04
  -23.0000  1.8630702E-04  1.9549987E-04  1.9718908E-04
  -22.0000  1.9368547E-04  2.0352103E-04  2.0479079E-04
  -21.0000  2.0161504E-04  2.1216787E-04  2.1295527E-04
  -20.0000  2.1015801E-04  2.2151444E-04  2.2174610E-04
  -19.0000  2.1938629E-04  2.3164675E-04  2.3123670E-04
  -18.0000  2.2938336E-04  2.4266529E-04  2.4151232E-04
  -17.0000  2.4024663E-04  2.5468811E-04  2.5267252E-04
  -16.0000  2.5209054E-04  2.6785490E-04  2.6483430E-04
  -15.0000  2.6505039E-04  2.8233200E-04  2.7813605E-04
  -14.0000  2.7928733E-04  2.9831911E-04  2.9274274E-04
  -13.0000  2.9499484E-04  3.1605792E-04  3.0885249E-04
  -12.0000  3.1240726E-04  3.3584365E-04  3.2670549E-04
  -11.0000  3.3181118E-04  3.5804053E-04  3.4659570E-04
  -10.0000  3.5356099E-04  3.8310303E-04  3.6888684E-04
  -9.00000  3.7810017E-04  4.1160523E-04  3.9403456E-04
  -8.00000  4.0599145E-04  4.4428252E-04  4.2261752E-04
  -7.00000  4.3796010E-04  4.8209186E-04  4.5538231E-04
  -6.00000  4.7495787E-04  5.2630112E-04  4.9330984E-04
  -5.00000  5.1826020E-04  5.7862531E-04  5.3771644E-04
  -4.00000  5.6961914E-04  6.4144129E-04  5.9041337E-04
  -3.00000  6.3151407E-04  7.1813971E-04  6.5396942E-04
  -2.00000  7.0758365E-04  8.1373042E-04  7.3216586E-04
  -1.00000  8.0341758E-04  9.3594782E-04  8.3083763E-04
   0.00000  9.2812713E-04  1.0974321E-03  9.5956383E-04
   1.00000  1.0978047E-03  1.3205078E-03  1.1354689E-03
   2.00000  1.3443455E-03  1.6493334E-03  1.3932329E-03
   3.00000  1.7434382E-03  2.1886756E-03  1.8185007E-03
   4.00000  2.5402670E-03  3.2819425E-03  2.7092743E-03
   5.00000  4.8119960E-03  6.4390656E-03  5.4271186E-03
   5.20000  5.5504581E-03  7.4212201E-03  6.2511267E-03
   5.40000  6.3176639E-03  8.3874446E-03  7.0162549E-03
   5.60000  7.1004483E-03  9.3110904E-03  7.6907649E-03
   5.80000  7.9115638E-03  1.0211092E-02  8.2952341E-03
   6.00000  8.7706355E-03  1.1119749E-02  8.8690274E-03
   6.20000  9.6946163E-03  1.2067615E-02  9.4522145E-03
   6.40000  1.0695023E-02  1.3080755E-02  1.0079908E-02
   6.60000  1.1776867E-02  1.4181985E-02  1.0781043E-02
   6.80000  1.2937103E-02  1.5392629E-02  1.1577980E-02
   7.00000  1.4162019E-02  1.6733827E-02  1.2485753E-02
   7.20000  1.5424039E-02  1.8227346E-02  1.3511034E-02
   7.40000  1.6680080E-02  1.9896108E-02  1.4651477E-02
   7.60000  1.7874832E-02  2.1764748E-02  1.5896355E-02
   7.80000  1.8951043E-02  2.3859944E-02  1.7228927E-02
   8.00000  1.9864932E-02  2.6209561E-02  1.8629664E-02
   8.20000  2.0600713E-02  2.8839712E-02  2.0078203E-02
   8.40000  2.1176801E-02  3.1769037E-02  2.1552442E-02
   8.60000  2.1639965E-02  3.4999504E-02  2.3025877E-02
   8.80000  2.2050583E-02  3.8503511E-02  2.4466248E-02
   9.00000  2.2466549E-02  4.2209794E-02  2.5837265E-02
   9.20000  2.2932134E-02  4.5993571E-02  2.7102804E-02
   9.40000  2.3473490E-02  4.9676337E-02  2.8232398E-02
   9.60000  2.4099241E-02  5.3039438E-02  2.9206406E-02
   9.80000  2.4803932E-02  5.5852437E-02  3.0018742E-02
   10.0000  2.5572450E-02  5.7911226E-02  3.0675982E-02
   10.2500  2.6590658E-02  5.9217285E-02  3.1303958E-02
   10.5000  2.7628337E-02  5.9048296E-02  3.1756720E-02
   10.7500  2.8636663E-02  5.7538745E-02  3.2081103E-02
   11.0000  2.9572750E-02  5.4983835E-02  3.2320105E-02
   11.2500  3.0405963E-02  5.1749195E-02  3.2508253E-02
   11.5000  3.1120569E-02  4.8186655E-02  3.2670096E-02
   11.7500  3.1714419E-02  4.4581125E-02  3.2819045E-02
   12.0000  3.2195477E-02  4.1132101E-02  3.2957216E-02
   12.2500  3.2579420E-02  3.7959127E-02  3.3079771E-02
   12.5000  3.2887926E-02  3.5118926E-02  3.3182410E-02
   12.7500  3.3145747E-02  3.2625482E-02  3.3265869E-02
   13.0000  3.3377978E-02  3.0466937E-02  3.3336701E-02
   13.2500  3.3607426E-02  2.8617488E-02  3.3405840E-02
   13.5000  3.3851897E-02  2.7045349E-02  3.3486562E-02
   13.7500  3.4123012E-02  2.5717774E-02  3.3593055E-02
   14.0000  3.4426667E-02  2.4603774E-02  3.3738869E-02
   14.2500  3.4763799E-02  2.3675316E-02  3.3935049E-02
   14.5000  3.5130764E-02  2.2907730E-02  3.4188595E-02
   14.7500  3.5519527E-02  2.2279688E-02  3.4501546E-02
   15.0000  3.5917969E-02  2.1772984E-02  3.4870607E-02
   15.2500  3.6310533E-02  2.1372188E-02  3.5287240E-02
   15.5000  3.6679291E-02  2.1064273E-02  3.5738110E-02
   15.7500  3.7005441E-02  2.0838248E-02  3.6205875E-02
   16.0000  3.7271119E-02  2.0684823E-02  3.6670296E-02
   16.2500  3.7461314E-02  2.0596118E-02  3.7109635E-02
   16.5000  3.7565628E-02  2.0565426E-02  3.7502280E-02
   16.7500  3.7579563E-02  2.0587004E-02  3.7828458E-02
   17.0000  3.7505122E-02  2.0655914E-02  3.8071864E-02
   17.2500  3.7350606E-02  2.0767882E-02  3.8220978E-02
   17.5000  3.7129636E-02  2.0919184E-02  3.8269881E-02
   17.7500  3.6859611E-02  2.1106558E-02  3.8218448E-02
   18.0000  3.6559874E-02  2.1327118E-02  3.8071911E-02
   18.2500  3.6249887E-02  2.1578299E-02  3.7839900E-02
   18.5000  3.5947663E-02  2.1857802E-02  3.7535146E-02
   18.7500  3.5668598E-02  2.2163569E-02  3.7172073E-02
   19.0000  3.5424742E-02  2.2493772E-02  3.6765452E-02
   19.2500  3.5224484E-02  2.2846833E-02  3.6329243E-02
   19.5000  3.5072551E-02  2.3221453E-02  3.5875722E-02
   19.7500  3.4970190E-02  2.3616589E-02  3.5414960E-02
   20.0000  3.4915430E-02  2.4031266E-02  3.4954806E-02
   21.0000  3.5044749E-02  2.5851862E-02  3.3227596E-02
   22.0000  3.5295670E-02  2.7833275E-02  3.1800703E-02
   23.0000  3.5115623E-02  2.9831098E-02  3.0656267E-02
   24.0000  3.4273862E-02  3.1653543E-02  2.9715405E-02
   25.0000  3.2941456E-02  3.3083986E-02  2.8918967E-02
   26.0000  3.1461697E-02  3.3954724E-02  2.8241652E-02
   27.0000  3.0088929E-02  3.4219734E-02  2.7681513E-02
   28.0000  2.8913357E-02  3.3964077E-02  2.7243043E-02
   29.0000  2.7932303E-02  3.3345447E-02  2.6925972E-02
   30.0000  2.7125857E-02  3.2530164E-02  2.6723795E-02
   31.0000  2.6474789E-02  3.1652006E-02  2.6622056E-02
   32.0000  2.5951630E-02  3.0775417E-02  2.6593841E-02
   33.0000  2.5518003E-02  2.9913712E-02  2.6604079E-02
   34.0000  2.5131686E-02  2.9057728E-02  2.6617218E-02
   35.0000  2.4755880E-02  2.8192241E-02  2.6603281E-02
   36.0000  2.4366392E-02  2.7307727E-02  2.6541776E-02
   37.0000  2.3956142E-02  2.6409164E-02  2.6424094E-02
   38.0000  2.3537378E-02  2.5523081E-02  2.6256052E-02
   39.0000  2.3141755E-02  2.4704819E-02  2.6061531E-02
   40.0000  2.2814421E-02  2.4036960E-02  2.5882894E-02
