    Energy   (100,001)      (010,001)      (001,110)   
  -25.0000  1.7349932E-04  1.8594006E-04  1.7250924E-04
  -24.0000  1.8010889E-04  1.9291354E-04  1.7927959E-04
  -23.0000  1.8718711E-04  2.0038621E-04  1.8654421E-04
  -22.0000  1.9478363E-04  2.0841240E-04  1.9435708E-04
  -21.0000  2.0295525E-04  2.1705450E-04  2.0278015E-04
  -20.0000  2.1176718E-04  2.2638453E-04  2.1188485E-04
  -19.0000  2.2129464E-04  2.3648603E-04  2.2175398E-04
  -18.0000  2.3162487E-04  2.4745643E-04  2.3248399E-04
  -17.0000  2.4285955E-04  2.5941005E-04  2.4418793E-04
  -16.0000  2.5511792E-04  2.7248190E-04  2.5699905E-04
  -15.0000  2.6854067E-04  2.8683250E-04  2.7107558E-04
  -14.0000  2.8329495E-04  3.0265414E-04  2.8660669E-04
  -13.0000  2.9958081E-04  3.2017905E-04  3.0382043E-04
  -12.0000  3.1763966E-04  3.3969026E-04  3.2299409E-04
  -11.0000  3.3776540E-04  3.6153608E-04  3.4446812E-04
  -10.0000  3.6031938E-04  3.8614982E-04  3.6866503E-04
  -9.00000  3.8575083E-04  4.1407717E-04  3.9611546E-04
  -8.00000  4.1462507E-04  4.4601457E-04  4.2749481E-04
  -7.00000  4.4766349E-04  4.8286463E-04  4.6367597E-04
  -6.00000  4.8580123E-04  5.2581753E-04  5.0580676E-04
  -5.00000  5.3027277E-04  5.7647427E-04  5.5542721E-04
  -4.00000  5.8274263E-04  6.3703911E-04  6.1465291E-04
  -3.00000  6.4551233E-04  7.1063152E-04  6.8647307E-04
  -2.00000  7.2186241E-04  8.0181557E-04  7.7525867E-04
  -1.00000  8.1664913E-04  9.1755065E-04  8.8768192E-04
   0.00000  9.3742019E-04  1.0690289E-03  1.0345120E-03
   1.00000  1.0967057E-03  1.2755954E-03  1.2345023E-03
   2.00000  1.3173982E-03  1.5743815E-03  1.5241244E-03
   3.00000  1.6483083E-03  2.0497380E-03  1.9879667E-03
   4.00000  2.2277279E-03  2.9615457E-03  2.8939905E-03
   5.00000  3.6014646E-03  5.4041763E-03  5.3998543E-03
   5.20000  4.0318125E-03  6.1746518E-03  6.2035816E-03
   5.40000  4.4906868E-03  6.9666022E-03  7.0373363E-03
   5.60000  4.9763310E-03  7.7670150E-03  7.8876424E-03
   5.80000  5.4994258E-03  8.5908406E-03  8.7637782E-03
   6.00000  6.0744403E-03  9.4610224E-03  9.6763115E-03
   6.20000  6.7150737E-03  1.0399286E-02  1.0629724E-02
   6.40000  7.4324695E-03  1.1424411E-02  1.1624311E-02
   6.60000  8.2342201E-03  1.2552558E-02  1.2660435E-02
   6.80000  9.1237868E-03  1.3797698E-02  1.3741640E-02
   7.00000  1.0100536E-02  1.5171871E-02  1.4875381E-02
   7.20000  1.1160463E-02  1.6685501E-02  1.6072159E-02
   7.40000  1.2297598E-02  1.8347941E-02  1.7344937E-02
   7.60000  1.3506319E-02  2.0168492E-02  1.8709816E-02
   7.80000  1.4784724E-02  2.2157951E-02  2.0187210E-02
   8.00000  1.6138520E-02  2.4330315E-02  2.1801780E-02
   8.20000  1.7583892E-02  2.6703974E-02  2.3579805E-02
   8.40000  1.9147404E-02  2.9301342E-02  2.5544332E-02
   8.60000  2.0860849E-02  3.2145069E-02  2.7708736E-02
   8.80000  2.2750095E-02  3.5248649E-02  3.0068330E-02
   9.00000  2.4822966E-02  3.8603031E-02  3.2592983E-02
   9.20000  2.7063818E-02  4.2164086E-02  3.5225851E-02
   9.40000  2.9434583E-02  4.5843248E-02  3.7887707E-02
   9.60000  3.1878042E-02  4.9502723E-02  4.0484200E-02
   9.80000  3.4321395E-02  5.2958618E-02  4.2914594E-02
   10.0000  3.6679891E-02  5.5995388E-02  4.5080187E-02
   10.2500  3.9368391E-02  5.8869299E-02  4.7281766E-02
   10.5000  4.1606861E-02  6.0401887E-02  4.8806370E-02
   10.7500  4.3263958E-02  6.0440614E-02  4.9599806E-02
   11.0000  4.4279563E-02  5.9068852E-02  4.9684505E-02
   11.2500  4.4669509E-02  5.6563020E-02  4.9146144E-02
   11.5000  4.4516264E-02  5.3298219E-02  4.8108787E-02
   11.7500  4.3949372E-02  4.9648959E-02  4.6710306E-02
   12.0000  4.3118216E-02  4.5921104E-02  4.5085934E-02
   12.2500  4.2165314E-02  4.2326605E-02  4.3355825E-02
   12.5000  4.1207954E-02  3.8990220E-02  4.1615512E-02
   12.7500  4.0331395E-02  3.5970528E-02  3.9934861E-02
   13.0000  3.9590411E-02  3.3282396E-02  3.8363996E-02
   13.2500  3.9014372E-02  3.0915366E-02  3.6939681E-02
   13.5000  3.8612758E-02  2.8846706E-02  3.5687482E-02
   13.7500  3.8380149E-02  2.7049400E-02  3.4621386E-02
   14.0000  3.8300781E-02  2.5496089E-02  3.3745128E-02
   14.2500  3.8352243E-02  2.4160685E-02  3.3054837E-02
   14.5000  3.8507956E-02  2.3018999E-02  3.2541082E-02
   14.7500  3.8738690E-02  2.2049016E-02  3.2190055E-02
   15.0000  3.9013601E-02  2.1231009E-02  3.1984327E-02
   15.2500  3.9301215E-02  2.0547532E-02  3.1903502E-02
   15.5000  3.9570609E-02  1.9983340E-02  3.1924907E-02
   15.7500  3.9792887E-02  1.9525243E-02  3.2024389E-02
   16.0000  3.9942924E-02  1.9161915E-02  3.2177261E-02
   16.2500  4.0001184E-02  1.8883688E-02  3.2359385E-02
   16.5000  3.9955321E-02  1.8682337E-02  3.2548327E-02
   16.7500  3.9801258E-02  1.8550875E-02  3.2724489E-02
   17.0000  3.9543461E-02  1.8483360E-02  3.2872062E-02
   17.2500  3.9194268E-02  1.8474726E-02  3.2979680E-02
   17.5000  3.8772335E-02  1.8520636E-02  3.3040646E-02
   17.7500  3.8300426E-02  1.8617360E-02  3.3052728E-02
   18.0000  3.7802912E-02  1.8761676E-02  3.3017564E-02
   18.2500  3.7303386E-02  1.8950791E-02  3.2939795E-02
   18.5000  3.6822685E-02  1.9182288E-02  3.2826091E-02
   18.7500  3.6377539E-02  1.9454088E-02  3.2684182E-02
   19.0000  3.5979866E-02  1.9764443E-02  3.2522018E-02
   19.2500  3.5636656E-02  2.0111957E-02  3.2347083E-02
   19.5000  3.5350287E-02  2.0495608E-02  3.2165907E-02
   19.7500  3.5119095E-02  2.0914721E-02  3.1983765E-02
   20.0000  3.4938026E-02  2.1368742E-02  3.1804617E-02
   21.0000  3.4535361E-02  2.3507662E-02  3.1161912E-02
   22.0000  3.4156318E-02  2.6051815E-02  3.0646069E-02
   23.0000  3.3287136E-02  2.8785102E-02  3.0156095E-02
   24.0000  3.1769821E-02  3.1450799E-02  2.9572500E-02
   25.0000  2.9823732E-02  3.3752445E-02  2.8832525E-02
   26.0000  2.7847133E-02  3.5418187E-02  2.7961161E-02
   27.0000  2.6174116E-02  3.6306829E-02  2.7052984E-02
   28.0000  2.4960330E-02  3.6455506E-02  2.6218848E-02
   29.0000  2.4197819E-02  3.6038745E-02  2.5538757E-02
   30.0000  2.3784115E-02  3.5275115E-02  2.5038375E-02
   31.0000  2.3589540E-02  3.4346167E-02  2.4689982E-02
   32.0000  2.3498476E-02  3.3364564E-02  2.4431544E-02
   33.0000  2.3425012E-02  3.2381029E-02  2.4191377E-02
   34.0000  2.3313982E-02  3.1406435E-02  2.3907756E-02
   35.0000  2.3137161E-02  3.0433812E-02  2.3539729E-02
   36.0000  2.2889526E-02  2.9455020E-02  2.3072516E-02
   37.0000  2.2585730E-02  2.8472967E-02  2.2522052E-02
   38.0000  2.2255563E-02  2.7511978E-02  2.1937597E-02
   39.0000  2.1938495E-02  2.6628059E-02  2.1393604E-02
   40.0000  2.1676590E-02  2.5908373E-02  2.0961515E-02
