    Energy   (100,001)      (010,001)      (001,110)   
  -25.0000  1.7605910E-04  1.7829656E-04  1.8308061E-04
  -24.0000  1.8219725E-04  1.8535299E-04  1.8948334E-04
  -23.0000  1.8874080E-04  1.9293334E-04  1.9631475E-04
  -22.0000  1.9573037E-04  2.0109615E-04  2.0361859E-04
  -21.0000  2.0321209E-04  2.0990883E-04  2.1144471E-04
  -20.0000  2.1123865E-04  2.1944941E-04  2.1985019E-04
  -19.0000  2.1987048E-04  2.2980868E-04  2.2890067E-04
  -18.0000  2.2917719E-04  2.4109283E-04  2.3867206E-04
  -17.0000  2.3923946E-04  2.5342689E-04  2.4925255E-04
  -16.0000  2.5015126E-04  2.6695897E-04  2.6074529E-04
  -15.0000  2.6202274E-04  2.8186579E-04  2.7327165E-04
  -14.0000  2.7498390E-04  2.9835986E-04  2.8697543E-04
  -13.0000  2.8918924E-04  3.1669880E-04  3.0202837E-04
  -12.0000  3.0482393E-04  3.3719789E-04  3.1863727E-04
  -11.0000  3.2211181E-04  3.6024683E-04  3.3705349E-04
  -10.0000  3.4132620E-04  3.8633269E-04  3.5758574E-04
  -9.00000  3.6280450E-04  4.1607194E-04  3.8061765E-04
  -8.00000  3.8696847E-04  4.5025563E-04  4.0663224E-04
  -7.00000  4.1435281E-04  4.8991493E-04  4.3624700E-04
  -6.00000  4.4564660E-04  5.3641828E-04  4.7026520E-04
  -5.00000  4.8175480E-04  5.9161926E-04  5.0975352E-04
  -4.00000  5.2389282E-04  6.5808957E-04  5.5616345E-04
  -3.00000  5.7373748E-04  7.3949983E-04  6.1152984E-04
  -2.00000  6.3367960E-04  8.4127192E-04  6.7881336E-04
  -1.00000  7.0727265E-04  9.7176272E-04  7.6253238E-04
   0.00000  8.0009191E-04  1.1445773E-03  8.7003675E-04
   1.00000  9.2155728E-04  1.3835631E-03  1.0144009E-03
   2.00000  1.0894010E-03  1.7352367E-03  1.2221985E-03
   3.00000  1.3433128E-03  2.3072264E-03  1.5603420E-03
   4.00000  1.8044059E-03  3.4378002E-03  2.2719761E-03
   5.00000  2.9819056E-03  6.5693725E-03  4.4789180E-03
   5.20000  3.3507381E-03  7.5596530E-03  5.0992234E-03
   5.40000  3.7307212E-03  8.5688996E-03  5.6206114E-03
   5.60000  4.1148676E-03  9.5779810E-03  6.0232478E-03
   5.80000  4.5097056E-03  1.0607500E-02  6.3387418E-03
   6.00000  4.9267894E-03  1.1691231E-02  6.6117678E-03
   6.20000  5.3786376E-03  1.2862915E-02  6.8819970E-03
   6.40000  5.8778620E-03  1.4152633E-02  7.1802075E-03
   6.60000  6.4370691E-03  1.5586267E-02  7.5293094E-03
   6.80000  7.0685607E-03  1.7185806E-02  7.9465994E-03
   7.00000  7.7835590E-03  1.8970120E-02  8.4457572E-03
   7.20000  8.5908058E-03  2.0955844E-02  9.0378692E-03
   7.40000  9.4944360E-03  2.3157590E-02  9.7313539E-03
   7.60000  1.0491165E-02  2.5587677E-02  1.0530878E-02
   7.80000  1.1567113E-02  2.8256102E-02  1.1435474E-02
   8.00000  1.2695050E-02  3.1170873E-02  1.2436324E-02
   8.20000  1.3833442E-02  3.4337927E-02  1.3514967E-02
   8.40000  1.4928974E-02  3.7758670E-02  1.4642997E-02
   8.60000  1.5923764E-02  4.1422281E-02  1.5784396E-02
   8.80000  1.6766842E-02  4.5290739E-02  1.6901182E-02
   9.00000  1.7427101E-02  4.9278468E-02  1.7961782E-02
   9.20000  1.7903198E-02  5.3234949E-02  1.8949774E-02
   9.40000  1.8225903E-02  5.6943109E-02  1.9869244E-02
   9.60000  1.8450949E-02  6.0142699E-02  2.0743502E-02
   9.80000  1.8644667E-02  6.2575931E-02  2.1607022E-02
   10.0000  1.8868281E-02  6.4040264E-02  2.2494271E-02
   10.2500  1.9256600E-02  6.4357243E-02  2.3673983E-02
   10.5000  1.9804773E-02  6.3043629E-02  2.4949606E-02
   10.7500  2.0514117E-02  6.0379826E-02  2.6311912E-02
   11.0000  2.1357095E-02  5.6785942E-02  2.7732292E-02
   11.2500  2.2293184E-02  5.2704812E-02  2.9174984E-02
   11.5000  2.3280877E-02  4.8513031E-02  3.0605438E-02
   11.7500  2.4284574E-02  4.4478292E-02  3.1991228E-02
   12.0000  2.5278942E-02  4.0757834E-02  3.3298337E-02
   12.2500  2.6248825E-02  3.7423235E-02  3.4490729E-02
   12.5000  2.7186263E-02  3.4491640E-02  3.5533920E-02
   12.7500  2.8089532E-02  3.1947904E-02  3.6398273E-02
   13.0000  2.8962985E-02  2.9758489E-02  3.7063047E-02
   13.2500  2.9815152E-02  2.7882208E-02  3.7521751E-02
   13.5000  3.0655765E-02  2.6278002E-02  3.7785356E-02
   13.7500  3.1493286E-02  2.4908783E-02  3.7880651E-02
   14.0000  3.2333086E-02  2.3742491E-02  3.7844853E-02
   14.2500  3.3175990E-02  2.2752011E-02  3.7719032E-02
   14.5000  3.4017334E-02  2.1914722E-02  3.7542215E-02
   14.7500  3.4846746E-02  2.1211892E-02  3.7347099E-02
   15.0000  3.5648743E-02  2.0628059E-02  3.7157579E-02
   15.2500  3.6404064E-02  2.0150441E-02  3.6987942E-02
   15.5000  3.7091650E-02  1.9768412E-02  3.6843387E-02
   15.7500  3.7691061E-02  1.9473074E-02  3.6721550E-02
   16.0000  3.8185016E-02  1.9256881E-02  3.6614716E-02
   16.2500  3.8561685E-02  1.9113353E-02  3.6512379E-02
   16.5000  3.8816338E-02  1.9036826E-02  3.6403776E-02
   16.7500  3.8952030E-02  1.9022263E-02  3.6280025E-02
   17.0000  3.8979206E-02  1.9065110E-02  3.6135563E-02
   17.2500  3.8914329E-02  1.9161188E-02  3.5968731E-02
   17.5000  3.8777856E-02  1.9306627E-02  3.5781567E-02
   17.7500  3.8591983E-02  1.9497822E-02  3.5578993E-02
   18.0000  3.8378539E-02  1.9731408E-02  3.5367697E-02
   18.2500  3.8157331E-02  2.0004252E-02  3.5154976E-02
   18.5000  3.7945039E-02  2.0313445E-02  3.4947739E-02
   18.7500  3.7754669E-02  2.0656320E-02  3.4751801E-02
   19.0000  3.7595463E-02  2.1030481E-02  3.4571465E-02
   19.2500  3.7473135E-02  2.1433859E-02  3.4409376E-02
   19.5000  3.7390304E-02  2.1864775E-02  3.4266569E-02
   19.7500  3.7346974E-02  2.2321935E-02  3.4142643E-02
   20.0000  3.7340995E-02  2.2804212E-02  3.4036011E-02
   21.0000  3.7595599E-02  2.4948469E-02  3.3725597E-02
   22.0000  3.8009469E-02  2.7329818E-02  3.3448908E-02
   23.0000  3.8209425E-02  2.9768538E-02  3.3047169E-02
   24.0000  3.7907177E-02  3.1994867E-02  3.2452600E-02
   25.0000  3.6964772E-02  3.3703739E-02  3.1687407E-02
   26.0000  3.5441053E-02  3.4680831E-02  3.0839788E-02
   27.0000  3.3577592E-02  3.4892898E-02  3.0027914E-02
   28.0000  3.1694860E-02  3.4470747E-02  2.9357246E-02
   29.0000  3.0055617E-02  3.3617676E-02  2.8885261E-02
   30.0000  2.8789606E-02  3.2530076E-02  2.8612607E-02
   31.0000  2.7900113E-02  3.1357483E-02  2.8496699E-02
   32.0000  2.7312557E-02  3.0181779E-02  2.8471784E-02
   33.0000  2.6933358E-02  2.9034836E-02  2.8475151E-02
   34.0000  2.6681179E-02  2.7922888E-02  2.8460237E-02
   35.0000  2.6492970E-02  2.6842278E-02  2.8395514E-02
   36.0000  2.6321574E-02  2.5790728E-02  2.8259790E-02
   37.0000  2.6134338E-02  2.4775456E-02  2.8042628E-02
   38.0000  2.5916718E-02  2.3819735E-02  2.7753017E-02
   39.0000  2.5679683E-02  2.2969396E-02  2.7430128E-02
   40.0000  2.5462419E-02  2.2290456E-02  2.7141020E-02
