    Energy   (100,001)      (010,001)      (001,110)   
  -25.0000  1.6514015E-04  1.8591665E-04  1.8324158E-04
  -24.0000  1.7110504E-04  1.9294201E-04  1.8982880E-04
  -23.0000  1.7746820E-04  2.0047390E-04  1.9686624E-04
  -22.0000  1.8426936E-04  2.0856782E-04  2.0440063E-04
  -21.0000  1.9155358E-04  2.1728757E-04  2.1248528E-04
  -20.0000  1.9937225E-04  2.2670684E-04  2.2118135E-04
  -19.0000  2.0778419E-04  2.3691119E-04  2.3055932E-04
  -18.0000  2.1685700E-04  2.4800055E-04  2.4070086E-04
  -17.0000  2.2666884E-04  2.6009226E-04  2.5170107E-04
  -16.0000  2.3731047E-04  2.7332506E-04  2.6367142E-04
  -15.0000  2.4888799E-04  2.8786414E-04  2.7674343E-04
  -14.0000  2.6152613E-04  3.0390766E-04  2.9107334E-04
  -13.0000  2.7537257E-04  3.2169530E-04  3.0684826E-04
  -12.0000  2.9060350E-04  3.4151967E-04  3.2429424E-04
  -11.0000  3.0743085E-04  3.6374153E-04  3.4368695E-04
  -10.0000  3.2611195E-04  3.8881068E-04  3.6536622E-04
  -9.00000  3.4696242E-04  4.1729485E-04  3.8975605E-04
  -8.00000  3.7037401E-04  4.4992064E-04  4.1739267E-04
  -7.00000  3.9683938E-04  4.8763263E-04  4.4896496E-04
  -6.00000  4.2698764E-04  5.3168091E-04  4.8537394E-04
  -5.00000  4.6163663E-04  5.8375425E-04  5.2782325E-04
  -4.00000  5.0187222E-04  6.4618977E-04  5.7796174E-04
  -3.00000  5.4917355E-04  7.2231573E-04  6.3811795E-04
  -2.00000  6.0562057E-04  8.1704001E-04  7.1170708E-04
  -1.00000  6.7425966E-04  9.3792149E-04  8.0398548E-04
   0.00000  7.5980210E-04  1.0972773E-03  9.2357533E-04
   1.00000  8.7011370E-04  1.3167796E-03  1.0859208E-03
   2.00000  1.0199352E-03  1.6390753E-03  1.3224855E-03
   3.00000  1.2426852E-03  2.1645478E-03  1.7117844E-03
   4.00000  1.6450257E-03  3.2179097E-03  2.5303538E-03
   5.00000  2.6909511E-03  6.2221155E-03  5.0611715E-03
   5.20000  3.0053119E-03  7.1750080E-03  5.8480659E-03
   5.40000  3.3115571E-03  8.1361740E-03  6.6011017E-03
   5.60000  3.6014296E-03  9.0802733E-03  7.2905389E-03
   5.80000  3.8810315E-03  1.0018759E-02  7.9226085E-03
   6.00000  4.1603076E-03  1.0972853E-02  8.5103779E-03
   6.20000  4.4483786E-03  1.1961322E-02  9.0628911E-03
   6.40000  4.7528532E-03  1.2998859E-02  9.5860113E-03
   6.60000  5.0801625E-03  1.4097767E-02  1.0085558E-02
   6.80000  5.4357862E-03  1.5270144E-02  1.0569277E-02
   7.00000  5.8242397E-03  1.6529898E-02  1.1047557E-02
   7.20000  6.2490258E-03  1.7894686E-02  1.1533645E-02
   7.40000  6.7127373E-03  1.9387464E-02  1.2043685E-02
   7.60000  7.2173142E-03  2.1036771E-02  1.2596293E-02
   7.80000  7.7643530E-03  2.2875695E-02  1.3211291E-02
   8.00000  8.3553772E-03  2.4939885E-02  1.3907688E-02
   8.20000  8.9920591E-03  2.7264574E-02  1.4701488E-02
   8.40000  9.6764135E-03  2.9880191E-02  1.5603867E-02
   8.60000  1.0410947E-02  3.2805876E-02  1.6619910E-02
   8.80000  1.1198693E-02  3.6040396E-02  1.7747861E-02
   9.00000  1.2043026E-02  3.9550727E-02  1.8978971E-02
   9.20000  1.2947179E-02  4.3260338E-02  2.0298252E-02
   9.40000  1.3913474E-02  4.7041298E-02  2.1686273E-02
   9.60000  1.4942439E-02  5.0715328E-02  2.3121591E-02
   9.80000  1.6032025E-02  5.4067466E-02  2.4582717E-02
   10.0000  1.7177039E-02  5.6872204E-02  2.6048455E-02
   10.2500  1.8672799E-02  5.9305186E-02  2.7852783E-02
   10.5000  2.0218204E-02  6.0310440E-02  2.9579246E-02
   10.7500  2.1786025E-02  5.9840453E-02  3.1173139E-02
   11.0000  2.3347413E-02  5.8067917E-02  3.2582674E-02
   11.2500  2.4871667E-02  5.5321771E-02  3.3765759E-02
   11.5000  2.6325323E-02  5.1984166E-02  3.4693421E-02
   11.7500  2.7673975E-02  4.8398730E-02  3.5352234E-02
   12.0000  2.8887279E-02  4.4823218E-02  3.5748046E-02
   12.2500  2.9944902E-02  4.1424870E-02  3.5907456E-02
   12.5000  3.0841457E-02  3.8297149E-02  3.5873434E-02
   12.7500  3.1587994E-02  3.5480823E-02  3.5698041E-02
   13.0000  3.2209215E-02  3.2982294E-02  3.5435622E-02
   13.2500  3.2737980E-02  3.0787561E-02  3.5137341E-02
   13.5000  3.3208647E-02  2.8872264E-02  3.4847595E-02
   13.7500  3.3651064E-02  2.7208300E-02  3.4602508E-02
   14.0000  3.4087537E-02  2.5767551E-02  3.4429746E-02
   14.2500  3.4532799E-02  2.4523736E-02  3.4348956E-02
   14.5000  3.4995472E-02  2.3453269E-02  3.4372539E-02
   14.7500  3.5479830E-02  2.2535548E-02  3.4506468E-02
   15.0000  3.5987255E-02  2.1752883E-02  3.4751002E-02
   15.2500  3.6517160E-02  2.1090235E-02  3.5101182E-02
   15.5000  3.7067367E-02  2.0534851E-02  3.5547128E-02
   15.7500  3.7634075E-02  2.0075901E-02  3.6074221E-02
   16.0000  3.8211631E-02  1.9704141E-02  3.6663314E-02
   16.2500  3.8792324E-02  1.9411641E-02  3.7291142E-02
   16.5000  3.9366416E-02  1.9191567E-02  3.7931101E-02
   16.7500  3.9922502E-02  1.9038027E-02  3.8554500E-02
   17.0000  4.0448264E-02  1.8945949E-02  3.9132312E-02
   17.2500  4.0931528E-02  1.8910997E-02  3.9637284E-02
   17.5000  4.1361472E-02  1.8929497E-02  4.0046149E-02
   17.7500  4.1729761E-02  1.8998371E-02  4.0341550E-02
   18.0000  4.2031422E-02  1.9115073E-02  4.0513332E-02
   18.2500  4.2265278E-02  1.9277517E-02  4.0558953E-02
   18.5000  4.2433922E-02  1.9484002E-02  4.0482965E-02
   18.7500  4.2543263E-02  1.9733133E-02  4.0295748E-02
   19.0000  4.2601767E-02  2.0023758E-02  4.0011768E-02
   19.2500  4.2619498E-02  2.0354916E-02  3.9647677E-02
   19.5000  4.2607106E-02  2.0725799E-02  3.9220540E-02
   19.7500  4.2574871E-02  2.1135653E-02  3.8746482E-02
   20.0000  4.2531958E-02  2.1583508E-02  3.8240039E-02
   21.0000  4.2380420E-02  2.3709951E-02  3.6135853E-02
   22.0000  4.2313298E-02  2.6218991E-02  3.4286290E-02
   23.0000  4.1990769E-02  2.8859197E-02  3.2853499E-02
   24.0000  4.0919485E-02  3.1329165E-02  3.1783723E-02
   25.0000  3.8903229E-02  3.3341683E-02  3.0949734E-02
   26.0000  3.6215099E-02  3.4701139E-02  3.0227620E-02
   27.0000  3.3403531E-02  3.5352269E-02  2.9550337E-02
   28.0000  3.0947947E-02  3.5380593E-02  2.8924442E-02
   29.0000  2.9025007E-02  3.4958132E-02  2.8389387E-02
   30.0000  2.7599500E-02  3.4262025E-02  2.7980683E-02
   31.0000  2.6563402E-02  3.3428479E-02  2.7706901E-02
   32.0000  2.5800750E-02  3.2543362E-02  2.7545214E-02
   33.0000  2.5211079E-02  3.1649138E-02  2.7453231E-02
   34.0000  2.4714604E-02  3.0757725E-02  2.7383634E-02
   35.0000  2.4251994E-02  2.9864401E-02  2.7293505E-02
   36.0000  2.3784242E-02  2.8960800E-02  2.7148496E-02
   37.0000  2.3294060E-02  2.8046937E-02  2.6926299E-02
   38.0000  2.2788705E-02  2.7142925E-02  2.6623959E-02
   39.0000  2.2302942E-02  2.6301465E-02  2.6271606E-02
   40.0000  2.1894113E-02  2.5610040E-02  2.5941980E-02
