    Energy   (100,001)      (010,001)      (001,110)   
  -25.0000  1.7286428E-04  1.8873897E-04  1.8698529E-04
  -24.0000  1.7883916E-04  1.9574477E-04  1.9343983E-04
  -23.0000  1.8520284E-04  2.0324893E-04  2.0032190E-04
  -22.0000  1.9199356E-04  2.1130542E-04  2.0767480E-04
  -21.0000  1.9925467E-04  2.1997621E-04  2.1554785E-04
  -20.0000  2.0703557E-04  2.2933280E-04  2.2399750E-04
  -19.0000  2.1539275E-04  2.3945807E-04  2.3308869E-04
  -18.0000  2.2439112E-04  2.5044861E-04  2.4289644E-04
  -17.0000  2.3410568E-04  2.6241773E-04  2.5350796E-04
  -16.0000  2.4462350E-04  2.7549912E-04  2.6502525E-04
  -15.0000  2.5604631E-04  2.8985162E-04  2.7756835E-04
  -14.0000  2.6849369E-04  3.0566538E-04  2.9127963E-04
  -13.0000  2.8210727E-04  3.2316993E-04  3.0632922E-04
  -12.0000  2.9705600E-04  3.4264474E-04  3.2292231E-04
  -11.0000  3.1354325E-04  3.6443348E-04  3.4130874E-04
  -10.0000  3.3181606E-04  3.8896342E-04  3.6179619E-04
  -9.00000  3.5217783E-04  4.1677219E-04  3.8476825E-04
  -8.00000  3.7500563E-04  4.4854550E-04  4.1071012E-04
  -7.00000  4.0077461E-04  4.8517153E-04  4.4024565E-04
  -6.00000  4.3009308E-04  5.2782089E-04  4.7419261E-04
  -5.00000  4.6375442E-04  5.7806799E-04  5.1364765E-04
  -4.00000  5.0281646E-04  6.3808095E-04  5.6012225E-04
  -3.00000  5.4872791E-04  7.1093086E-04  6.1577085E-04
  -2.00000  6.0353976E-04  8.0111965E-04  6.8379628E-04
  -1.00000  6.7028171E-04  9.1553704E-04  7.6922441E-04
   0.00000  7.5368892E-04  1.0653350E-03  8.8052792E-04
   1.00000  8.6176744E-04  1.2700065E-03  1.0334717E-03
   2.00000  1.0097276E-03  1.5677031E-03  1.2618863E-03
   3.00000  1.2324308E-03  2.0480617E-03  1.6561916E-03
   4.00000  1.6409245E-03  3.0028708E-03  2.5624832E-03
   5.00000  2.7230459E-03  5.7158078E-03  5.6563232E-03
   5.20000  3.0657696E-03  6.5609273E-03  6.5804817E-03
   5.40000  3.4167642E-03  7.3946542E-03  7.3864137E-03
   5.60000  3.7668820E-03  8.1901647E-03  8.0269263E-03
   5.80000  4.1183668E-03  8.9573612E-03  8.5216723E-03
   6.00000  4.4764111E-03  9.7179966E-03  8.9066664E-03
   6.20000  4.8449896E-03  1.0494961E-02  9.2086239E-03
   6.40000  5.2256793E-03  1.1310983E-02  9.4415573E-03
   6.60000  5.6174314E-03  1.2189080E-02  9.6138454E-03
   6.80000  6.0167782E-03  1.3151808E-02  9.7371739E-03
   7.00000  6.4186524E-03  1.4219450E-02  9.8308882E-03
   7.20000  6.8180049E-03  1.5408850E-02  9.9198088E-03
   7.40000  7.2119098E-03  1.6734259E-02  1.0028870E-02
   7.60000  7.6012717E-03  1.8209778E-02  1.0179056E-02
   7.80000  7.9913113E-03  1.9851832E-02  1.0386181E-02
   8.00000  8.3907865E-03  2.1680407E-02  1.0661480E-02
   8.20000  8.8106218E-03  2.3718757E-02  1.1012571E-02
   8.40000  9.2626682E-03  2.5991955E-02  1.1444138E-02
   8.60000  9.7588779E-03  2.8524359E-02  1.1958389E-02
   8.80000  1.0310791E-02  3.1335289E-02  1.2555672E-02
   9.00000  1.0929171E-02  3.4432418E-02  1.3235239E-02
   9.20000  1.1623702E-02  3.7802744E-02  1.3995915E-02
   9.40000  1.2402576E-02  4.1401777E-02  1.4836290E-02
   9.60000  1.3271816E-02  4.5143151E-02  1.5754039E-02
   9.80000  1.4234651E-02  4.8892005E-02  1.6744669E-02
   10.0000  1.5291281E-02  5.2465567E-02  1.7800606E-02
   10.2500  1.6738579E-02  5.6349319E-02  1.9195672E-02
   10.5000  1.8310801E-02  5.9168044E-02  2.0649667E-02
   10.7500  1.9979639E-02  6.0569035E-02  2.2135035E-02
   11.0000  2.1705513E-02  6.0416963E-02  2.3626769E-02
   11.2500  2.3439582E-02  5.8840893E-02  2.5102743E-02
   11.5000  2.5126453E-02  5.6173985E-02  2.6539525E-02
   11.7500  2.6708420E-02  5.2830972E-02  2.7908508E-02
   12.0000  2.8131864E-02  4.9195416E-02  2.9177883E-02
   12.2500  2.9354496E-02  4.5558569E-02  3.0319091E-02
   12.5000  3.0351118E-02  4.2108874E-02  3.1311703E-02
   12.7500  3.1116241E-02  3.8949420E-02  3.2145842E-02
   13.0000  3.1663380E-02  3.6123000E-02  3.2822929E-02
   13.2500  3.2022104E-02  3.3634428E-02  3.3353935E-02
   13.5000  3.2233296E-02  3.1466820E-02  3.3756351E-02
   13.7500  3.2342351E-02  2.9592186E-02  3.4052728E-02
   14.0000  3.2392105E-02  2.7978383E-02  3.4270560E-02
   14.2500  3.2418488E-02  2.6593614E-02  3.4440971E-02
   14.5000  3.2449429E-02  2.5408615E-02  3.4595860E-02
   14.7500  3.2505388E-02  2.4397300E-02  3.4764978E-02
   15.0000  3.2600165E-02  2.3536810E-02  3.4973827E-02
   15.2500  3.2741630E-02  2.2807389E-02  3.5242362E-02
   15.5000  3.2932412E-02  2.2192169E-02  3.5584221E-02
   15.7500  3.3170607E-02  2.1676887E-02  3.6006273E-02
   16.0000  3.3450526E-02  2.1249576E-02  3.6508376E-02
   16.2500  3.3763523E-02  2.0900253E-02  3.7083317E-02
   16.5000  3.4098906E-02  2.0620620E-02  3.7716984E-02
   16.7500  3.4444927E-02  2.0403806E-02  3.8388881E-02
   17.0000  3.4789805E-02  2.0244143E-02  3.9073122E-02
   17.2500  3.5122723E-02  2.0136976E-02  3.9740024E-02
   17.5000  3.5434710E-02  2.0078511E-02  4.0358292E-02
   17.7500  3.5719330E-02  2.0065683E-02  4.0897690E-02
   18.0000  3.5973107E-02  2.0096041E-02  4.1331863E-02
   18.2500  3.6195649E-02  2.0167635E-02  4.1640886E-02
   18.5000  3.6389464E-02  2.0278917E-02  4.1813079E-02
   18.7500  3.6559529E-02  2.0428646E-02  4.1845745E-02
   19.0000  3.6712669E-02  2.0615815E-02  4.1744689E-02
   19.2500  3.6856830E-02  2.0839607E-02  4.1522658E-02
   19.5000  3.7000328E-02  2.1099359E-02  4.1197065E-02
   19.7500  3.7151148E-02  2.1394503E-02  4.0787575E-02
   20.0000  3.7316358E-02  2.1724385E-02  4.0314270E-02
   21.0000  3.8215632E-02  2.3362793E-02  3.8158776E-02
   22.0000  3.9546021E-02  2.5420211E-02  3.6192459E-02
   23.0000  4.1058192E-02  2.7742144E-02  3.4683029E-02
   24.0000  4.2217156E-02  3.0102634E-02  3.3565626E-02
   25.0000  4.2416480E-02  3.2224140E-02  3.2694567E-02
   26.0000  4.1289624E-02  3.3853350E-02  3.1940015E-02
   27.0000  3.8969799E-02  3.4848170E-02  3.1221796E-02
   28.0000  3.6034887E-02  3.5214576E-02  3.0524194E-02
   29.0000  3.3146360E-02  3.5070561E-02  2.9888866E-02
   30.0000  3.0732103E-02  3.4575513E-02  2.9377897E-02
   31.0000  2.8926111E-02  3.3871532E-02  2.9029290E-02
   32.0000  2.7673183E-02  3.3056960E-02  2.8837381E-02
   33.0000  2.6841282E-02  3.2195272E-02  2.8762190E-02
   34.0000  2.6290371E-02  3.1329197E-02  2.8749399E-02
   35.0000  2.5915257E-02  3.0470859E-02  2.8747005E-02
   36.0000  2.5645029E-02  2.9619853E-02  2.8714106E-02
   37.0000  2.5429100E-02  2.8782125E-02  2.8623753E-02
   38.0000  2.5231354E-02  2.7976913E-02  2.8466516E-02
   39.0000  2.5035388E-02  2.7244773E-02  2.8259635E-02
   40.0000  2.4855069E-02  2.6651374E-02  2.8054831E-02
