    Energy   (100,001)      (010,001)      (001,110)   
  -25.0000  1.6903946E-04  1.8797304E-04  1.7959901E-04
  -24.0000  1.7524725E-04  1.9500211E-04  1.8620342E-04
  -23.0000  1.8187839E-04  2.0253440E-04  1.9326697E-04
  -22.0000  1.8897609E-04  2.1062476E-04  2.0083790E-04
  -21.0000  1.9658950E-04  2.1933619E-04  2.0897136E-04
  -20.0000  2.0477481E-04  2.2874144E-04  2.1773068E-04
  -19.0000  2.1359651E-04  2.3892491E-04  2.2718893E-04
  -18.0000  2.2312900E-04  2.4998507E-04  2.3743085E-04
  -17.0000  2.3345857E-04  2.6203753E-04  2.4855531E-04
  -16.0000  2.4468577E-04  2.7521884E-04  2.6067826E-04
  -15.0000  2.5692857E-04  2.8969143E-04  2.7393672E-04
  -14.0000  2.7032621E-04  3.0565000E-04  2.8849360E-04
  -13.0000  2.8504425E-04  3.2332980E-04  3.0454425E-04
  -12.0000  3.0128105E-04  3.4301775E-04  3.2232484E-04
  -11.0000  3.1927632E-04  3.6506717E-04  3.4212362E-04
  -10.0000  3.3932248E-04  3.8991801E-04  3.6429614E-04
  -9.00000  3.6178012E-04  4.1812486E-04  3.8928607E-04
  -8.00000  3.8709908E-04  4.5039636E-04  4.1765448E-04
  -7.00000  4.1584831E-04  4.8765221E-04  4.5012154E-04
  -6.00000  4.4875852E-04  5.3110722E-04  4.8762777E-04
  -5.00000  4.8678527E-04  5.8239901E-04  5.3142628E-04
  -4.00000  5.3120495E-04  6.4378831E-04  5.8322646E-04
  -3.00000  5.8376656E-04  7.1848552E-04  6.4542707E-04
  -2.00000  6.4694334E-04  8.1120902E-04  7.2151292E-04
  -1.00000  7.2437519E-04  9.2919725E-04  8.1677213E-04
   0.00000  8.2170967E-04  1.0841888E-03  9.3969791E-04
   1.00000  9.4837885E-04  1.2967137E-03  1.1050277E-03
   2.00000  1.1219684E-03  1.6068557E-03  1.3413639E-03
   3.00000  1.3817515E-03  2.1079583E-03  1.7149317E-03
   4.00000  1.8492649E-03  3.0975323E-03  2.4342513E-03
   5.00000  3.0432619E-03  5.8647293E-03  4.4058029E-03
   5.20000  3.4116943E-03  6.7441682E-03  5.0567274E-03
   5.40000  3.7855120E-03  7.6414073E-03  5.7517489E-03
   5.60000  4.1577330E-03  8.5382671E-03  6.4808976E-03
   5.80000  4.5340629E-03  9.4487577E-03  7.2489637E-03
   6.00000  4.9219758E-03  1.0393606E-02  8.0594816E-03
   6.20000  5.3261832E-03  1.1387819E-02  8.9062851E-03
   6.40000  5.7487626E-03  1.2438259E-02  9.7720707E-03
   6.60000  6.1908039E-03  1.3545968E-02  1.0632586E-02
   6.80000  6.6540241E-03  1.4711438E-02  1.1466048E-02
   7.00000  7.1417747E-03  1.5940948E-02  1.2264303E-02
   7.20000  7.6593552E-03  1.7250889E-02  1.3039154E-02
   7.40000  8.2137447E-03  1.8667918E-02  1.3819717E-02
   7.60000  8.8129645E-03  2.0225516E-02  1.4643187E-02
   7.80000  9.4653229E-03  2.1959018E-02  1.5544621E-02
   8.00000  1.0178608E-02  2.3900484E-02  1.6549301E-02
   8.20000  1.0959339E-02  2.6074303E-02  1.7668126E-02
   8.40000  1.1812539E-02  2.8494083E-02  1.8895297E-02
   8.60000  1.2742338E-02  3.1160794E-02  2.0208396E-02
   8.80000  1.3753193E-02  3.4061600E-02  2.1571944E-02
   9.00000  1.4851200E-02  3.7168515E-02  2.2944956E-02
   9.20000  1.6044784E-02  4.0436272E-02  2.4290913E-02
   9.40000  1.7344076E-02  4.3799240E-02  2.5586501E-02
   9.60000  1.8758687E-02  4.7167951E-02  2.6825736E-02
   9.80000  2.0294113E-02  5.0426706E-02  2.8018906E-02
   10.0000  2.1947356E-02  5.3434245E-02  2.9188453E-02
   10.2500  2.4153970E-02  5.6594300E-02  3.0660169E-02
   10.5000  2.6453419E-02  5.8789358E-02  3.2182231E-02
   10.7500  2.8744867E-02  5.9762428E-02  3.3758984E-02
   11.0000  3.0906625E-02  5.9405482E-02  3.5350182E-02
   11.2500  3.2821935E-02  5.7806128E-02  3.6880212E-02
   11.5000  3.4406924E-02  5.5221230E-02  3.8253849E-02
   11.7500  3.5627768E-02  5.1993213E-02  3.9377015E-02
   12.0000  3.6500746E-02  4.8457850E-02  4.0175058E-02
   12.2500  3.7079094E-02  4.4883719E-02  4.0606741E-02
   12.5000  3.7434950E-02  4.1453973E-02  4.0674664E-02
   12.7500  3.7642572E-02  3.8276145E-02  4.0426207E-02
   13.0000  3.7766507E-02  3.5401074E-02  3.9940151E-02
   13.2500  3.7856254E-02  3.2841691E-02  3.9305320E-02
   13.5000  3.7945896E-02  3.0588453E-02  3.8602458E-02
   13.7500  3.8056285E-02  2.8620168E-02  3.7895824E-02
   14.0000  3.8198100E-02  2.6910782E-02  3.7232285E-02
   14.2500  3.8374807E-02  2.5433344E-02  3.6643275E-02
   14.5000  3.8585053E-02  2.4162153E-02  3.6147385E-02
   14.7500  3.8824394E-02  2.3073773E-02  3.5752898E-02
   15.0000  3.9086411E-02  2.2147383E-02  3.5460021E-02
   15.2500  3.9363358E-02  2.1364765E-02  3.5262763E-02
   15.5000  3.9646524E-02  2.0710112E-02  3.5150473E-02
   15.7500  3.9926458E-02  2.0169762E-02  3.5109161E-02
   16.0000  4.0193162E-02  1.9731911E-02  3.5122689E-02
   16.2500  4.0436330E-02  1.9386344E-02  3.5173912E-02
   16.5000  4.0645660E-02  1.9124201E-02  3.5245793E-02
   16.7500  4.0811250E-02  1.8937766E-02  3.5322457E-02
   17.0000  4.0924083E-02  1.8820304E-02  3.5390117E-02
   17.2500  4.0976575E-02  1.8765915E-02  3.5437783E-02
   17.5000  4.0963160E-02  1.8769421E-02  3.5457676E-02
   17.7500  4.0880824E-02  1.8826271E-02  3.5445312E-02
   18.0000  4.0729530E-02  1.8932455E-02  3.5399290E-02
   18.2500  4.0512422E-02  1.9084438E-02  3.5320824E-02
   18.5000  4.0235753E-02  1.9279100E-02  3.5213141E-02
   18.7500  3.9908494E-02  1.9513695E-02  3.5080816E-02
   19.0000  3.9541663E-02  1.9785826E-02  3.4929119E-02
   19.2500  3.9147431E-02  2.0093448E-02  3.4763446E-02
   19.5000  3.8738114E-02  2.0434875E-02  3.4588836E-02
   19.7500  3.8325271E-02  2.0808737E-02  3.4409635E-02
   20.0000  3.7919173E-02  2.1213769E-02  3.4229369E-02
   21.0000  3.6526332E-02  2.3107673E-02  3.3545531E-02
   22.0000  3.5704630E-02  2.5335811E-02  3.2960141E-02
   23.0000  3.5372675E-02  2.7750021E-02  3.2419747E-02
   24.0000  3.5192404E-02  3.0153210E-02  3.1833514E-02
   25.0000  3.4753153E-02  3.2304591E-02  3.1138242E-02
   26.0000  3.3808322E-02  3.3965885E-02  3.0331149E-02
   27.0000  3.2425869E-02  3.4985261E-02  2.9475647E-02
   28.0000  3.0837800E-02  3.5377237E-02  2.8657421E-02
   29.0000  2.9258982E-02  3.5268293E-02  2.7958359E-02
   30.0000  2.7828765E-02  3.4816435E-02  2.7433823E-02
   31.0000  2.6623399E-02  3.4161103E-02  2.7095809E-02
   32.0000  2.5664046E-02  3.3399333E-02  2.6913925E-02
   33.0000  2.4923246E-02  3.2583780E-02  2.6828554E-02
   34.0000  2.4345573E-02  3.1733713E-02  2.6767207E-02
   35.0000  2.3871259E-02  3.0850651E-02  2.6659237E-02
   36.0000  2.3451681E-02  2.9933422E-02  2.6448870E-02
   37.0000  2.3056158E-02  2.8990809E-02  2.6108135E-02
   38.0000  2.2674480E-02  2.8052440E-02  2.5649753E-02
   39.0000  2.2318859E-02  2.7179508E-02  2.5136675E-02
   40.0000  2.2021554E-02  2.6464926E-02  2.4675066E-02
