    Energy   (100,001)      (010,001)      (001,110)   
  -25.0000  1.6899461E-04  1.7404511E-04  1.7755247E-04
  -24.0000  1.7507648E-04  1.8094979E-04  1.8379014E-04
  -23.0000  1.8156918E-04  1.8836727E-04  1.9044414E-04
  -22.0000  1.8851457E-04  1.9635482E-04  1.9755656E-04
  -21.0000  1.9596036E-04  2.0497838E-04  2.0517533E-04
  -20.0000  2.0396110E-04  2.1431427E-04  2.1335524E-04
  -19.0000  2.1257952E-04  2.2445127E-04  2.2215915E-04
  -18.0000  2.2188804E-04  2.3549326E-04  2.3165963E-04
  -17.0000  2.3197080E-04  2.4756248E-04  2.4194081E-04
  -16.0000  2.4292606E-04  2.6080379E-04  2.5310082E-04
  -15.0000  2.5486934E-04  2.7539000E-04  2.6525483E-04
  -14.0000  2.6793738E-04  2.9152892E-04  2.7853891E-04
  -13.0000  2.8229329E-04  3.0947254E-04  2.9311499E-04
  -12.0000  2.9813321E-04  3.2952925E-04  3.0917733E-04
  -11.0000  3.1569525E-04  3.5208032E-04  3.2696111E-04
  -10.0000  3.3527144E-04  3.7760246E-04  3.4675379E-04
  -9.00000  3.5722408E-04  4.0669926E-04  3.6891077E-04
  -8.00000  3.8200860E-04  4.4014570E-04  3.9387687E-04
  -7.00000  4.1020607E-04  4.7895283E-04  4.2221696E-04
  -6.00000  4.4257074E-04  5.2446373E-04  4.5466029E-04
  -5.00000  4.8010152E-04  5.7850019E-04  4.9216676E-04
  -4.00000  5.2415330E-04  6.4359445E-04  5.3602935E-04
  -3.00000  5.7661744E-04  7.2336959E-04  5.8803938E-04
  -2.00000  6.4022958E-04  8.2319494E-04  6.5076691E-04
  -1.00000  7.1912910E-04  9.5138341E-04  7.2806906E-04
   0.00000  8.1996174E-04  1.1215526E-03  8.2609374E-04
   1.00000  9.5430554E-04  1.3577831E-03  9.5550559E-04
   2.00000  1.1449021E-03  1.7076572E-03  1.1373040E-03
   3.00000  1.4458657E-03  2.2834468E-03  1.4222752E-03
   4.00000  2.0373211E-03  3.4485409E-03  1.9861883E-03
   5.00000  3.7197107E-03  6.7801740E-03  3.6092839E-03
   5.20000  4.2339762E-03  7.8197923E-03  4.0692455E-03
   5.40000  4.7309180E-03  8.8544916E-03  4.4852875E-03
   5.60000  5.1968504E-03  9.8628150E-03  4.8588695E-03
   5.80000  5.6453632E-03  1.0869727E-02  5.2173477E-03
   6.00000  6.0986708E-03  1.1912879E-02  5.5852710E-03
   6.20000  6.5773853E-03  1.3027468E-02  5.9751138E-03
   6.40000  7.0963843E-03  1.4244460E-02  6.3887695E-03
   6.60000  7.6634731E-03  1.5592821E-02  6.8218216E-03
   6.80000  8.2805973E-03  1.7100987E-02  7.2680578E-03
   7.00000  8.9474671E-03  1.8796110E-02  7.7232994E-03
   7.20000  9.6658454E-03  2.0701855E-02  8.1876819E-03
   7.40000  1.0442019E-02  2.2836406E-02  8.6659778E-03
   7.60000  1.1286107E-02  2.5211502E-02  9.1663662E-03
   7.80000  1.2208537E-02  2.7832066E-02  9.6985190E-03
   8.00000  1.3214774E-02  3.0695334E-02  1.0271783E-02
   8.20000  1.4299327E-02  3.3788664E-02  1.0893877E-02
   8.40000  1.5440275E-02  3.7085703E-02  1.1570297E-02
   8.60000  1.6596589E-02  4.0540943E-02  1.2304580E-02
   8.80000  1.7711505E-02  4.4083175E-02  1.3099475E-02
   9.00000  1.8724170E-02  4.7609326E-02  1.3958686E-02
   9.20000  1.9587337E-02  5.0981519E-02  1.4888334E-02
   9.40000  2.0283195E-02  5.4030895E-02  1.5897139E-02
   9.60000  2.0828483E-02  5.6571038E-02  1.6994971E-02
   9.80000  2.1266519E-02  5.8422669E-02  1.8190235E-02
   10.0000  2.1651853E-02  5.9446675E-02  1.9486851E-02
   10.2500  2.2135839E-02  5.9466561E-02  2.1244362E-02
   10.5000  2.2685230E-02  5.8146994E-02  2.3128826E-02
   10.7500  2.3327300E-02  5.5727775E-02  2.5093277E-02
   11.0000  2.4051224E-02  5.2555598E-02  2.7072987E-02
   11.2500  2.4819842E-02  4.8989831E-02  2.8992245E-02
   11.5000  2.5586221E-02  4.5333462E-02  3.0773268E-02
   11.7500  2.6309818E-02  4.1804081E-02  3.2346736E-02
   12.0000  2.6965572E-02  3.8536216E-02  3.3663444E-02
   12.2500  2.7546017E-02  3.5598106E-02  3.4702654E-02
   12.5000  2.8059608E-02  3.3011041E-02  3.5473246E-02
   12.7500  2.8526753E-02  3.0766196E-02  3.6008063E-02
   13.0000  2.8973141E-02  2.8837494E-02  3.6355049E-02
   13.2500  2.9421685E-02  2.7191243E-02  3.6568967E-02
   13.5000  2.9887892E-02  2.5792927E-02  3.6704766E-02
   13.7500  3.0380744E-02  2.4610799E-02  3.6812433E-02
   14.0000  3.0905500E-02  2.3617111E-02  3.6933699E-02
   14.2500  3.1465094E-02  2.2788121E-02  3.7100384E-02
   14.5000  3.2060100E-02  2.2103626E-02  3.7333864E-02
   14.7500  3.2688233E-02  2.1546450E-02  3.7645235E-02
   15.0000  3.3343852E-02  2.1101979E-02  3.8035777E-02
   15.2500  3.4017639E-02  2.0757739E-02  3.8497465E-02
   15.5000  3.4696582E-02  2.0503035E-02  3.9013576E-02
   15.7500  3.5364374E-02  2.0328649E-02  3.9559610E-02
   16.0000  3.6002258E-02  2.0226614E-02  4.0104828E-02
   16.2500  3.6590336E-02  2.0190057E-02  4.0614610E-02
   16.5000  3.7109206E-02  2.0213087E-02  4.1053650E-02
   16.7500  3.7541749E-02  2.0290702E-02  4.1389684E-02
   17.0000  3.7874805E-02  2.0418683E-02  4.1597139E-02
   17.2500  3.8100518E-02  2.0593455E-02  4.1660003E-02
   17.5000  3.8217182E-02  2.0811916E-02  4.1573300E-02
   17.7500  3.8229476E-02  2.1071261E-02  4.1342916E-02
   18.0000  3.8148099E-02  2.1368812E-02  4.0983924E-02
   18.2500  3.7988857E-02  2.1701895E-02  4.0517909E-02
   18.5000  3.7771327E-02  2.2067770E-02  3.9969927E-02
   18.7500  3.7517268E-02  2.2463620E-02  3.9365658E-02
   19.0000  3.7248972E-02  2.2886599E-02  3.8729126E-02
   19.2500  3.6987710E-02  2.3333926E-02  3.8081118E-02
   19.5000  3.6752419E-02  2.3803007E-02  3.7438289E-02
   19.7500  3.6558719E-02  2.4291476E-02  3.6812916E-02
   20.0000  3.6418404E-02  2.4797015E-02  3.6213306E-02
   21.0000  3.6505483E-02  2.6925556E-02  3.4155808E-02
   22.0000  3.7547929E-02  2.9054379E-02  3.2670722E-02
   23.0000  3.8889683E-02  3.0972283E-02  3.1614641E-02
   24.0000  3.9547945E-02  3.2475283E-02  3.0808853E-02
   25.0000  3.8829931E-02  3.3410787E-02  3.0126754E-02
   26.0000  3.6825245E-02  3.3725384E-02  2.9510925E-02
   27.0000  3.4222764E-02  3.3472824E-02  2.8959699E-02
   28.0000  3.1706657E-02  3.2783349E-02  2.8495457E-02
   29.0000  2.9625947E-02  3.1813443E-02  2.8132734E-02
   30.0000  2.8042779E-02  3.0700894E-02  2.7863677E-02
   31.0000  2.6880452E-02  2.9548144E-02  2.7662915E-02
   32.0000  2.6024438E-02  2.8421902E-02  2.7500011E-02
   33.0000  2.5380056E-02  2.7346834E-02  2.7348622E-02
   34.0000  2.4878981E-02  2.6323182E-02  2.7189757E-02
   35.0000  2.4471586E-02  2.5345113E-02  2.7010590E-02
   36.0000  2.4122265E-02  2.4409101E-02  2.6802085E-02
   37.0000  2.3805689E-02  2.3519521E-02  2.6558978E-02
   38.0000  2.3506325E-02  2.2693876E-02  2.6284268E-02
   39.0000  2.3224456E-02  2.1967702E-02  2.5998636E-02
   40.0000  2.2982800E-02  2.1391614E-02  2.5746595E-02
