    Energy   (100,001)      (010,001)      (001,110)   
  -25.0000  1.7014462E-04  1.8335206E-04  1.7451054E-04
  -24.0000  1.7631467E-04  1.9037895E-04  1.8086919E-04
  -23.0000  1.8290324E-04  1.9791724E-04  1.8766278E-04
  -22.0000  1.8995304E-04  2.0602330E-04  1.9493609E-04
  -21.0000  1.9751272E-04  2.1476195E-04  2.0274021E-04
  -20.0000  2.0563794E-04  2.2420810E-04  2.1113360E-04
  -19.0000  2.1439266E-04  2.3444877E-04  2.2018356E-04
  -18.0000  2.2385072E-04  2.4558563E-04  2.2996784E-04
  -17.0000  2.3409788E-04  2.5773813E-04  2.4057686E-04
  -16.0000  2.4523426E-04  2.7104756E-04  2.5211632E-04
  -15.0000  2.5737752E-04  2.8568222E-04  2.6471056E-04
  -14.0000  2.7066685E-04  3.0184407E-04  2.7850688E-04
  -13.0000  2.8526815E-04  3.1977753E-04  2.9368111E-04
  -12.0000  3.0138082E-04  3.3978104E-04  3.1044484E-04
  -11.0000  3.1924666E-04  3.6222274E-04  3.2905504E-04
  -10.0000  3.3916195E-04  3.8756169E-04  3.4982703E-04
  -9.00000  3.6149378E-04  4.1637751E-04  3.7315212E-04
  -8.00000  3.8670298E-04  4.4941209E-04  3.9952229E-04
  -7.00000  4.1537656E-04  4.8762996E-04  4.2956527E-04
  -6.00000  4.4827514E-04  5.3230751E-04  4.6409578E-04
  -5.00000  4.8640419E-04  5.8516862E-04  5.0419258E-04
  -4.00000  5.3112476E-04  6.4859779E-04  5.5131835E-04
  -3.00000  5.8433330E-04  7.2598802E-04  6.0751434E-04
  -2.00000  6.4876904E-04  8.2233608E-04  6.7573273E-04
  -1.00000  7.2857529E-04  9.4532264E-04  7.6044255E-04
   0.00000  8.3041632E-04  1.1074265E-03  8.6882960E-04
   1.00000  9.6597163E-04  1.3305085E-03  1.0134538E-03
   2.00000  1.1584905E-03  1.6573104E-03  1.2191244E-03
   3.00000  1.4647264E-03  2.1875077E-03  1.5452848E-03
   4.00000  2.0814992E-03  3.2395530E-03  2.1900480E-03
   5.00000  3.9110490E-03  6.1996577E-03  4.0646766E-03
   5.20000  4.4664725E-03  7.1414511E-03  4.6873772E-03
   5.40000  4.9894587E-03  8.0966954E-03  5.3325554E-03
   5.60000  5.4609251E-03  9.0376164E-03  5.9699626E-03
   5.80000  5.8906734E-03  9.9704971E-03  6.5805820E-03
   6.00000  6.2931311E-03  1.0912579E-02  7.1471954E-03
   6.20000  6.6764769E-03  1.1882384E-02  7.6570834E-03
   6.40000  7.0436802E-03  1.2898627E-02  8.1110098E-03
   6.60000  7.3986237E-03  1.3980934E-02  8.5255682E-03
   6.80000  7.7506440E-03  1.5150684E-02  8.9236653E-03
   7.00000  8.1143760E-03  1.6432182E-02  9.3221314E-03
   7.20000  8.5068995E-03  1.7854240E-02  9.7285708E-03
   7.40000  8.9451292E-03  1.9451457E-02  1.0148990E-02
   7.60000  9.4443012E-03  2.1264013E-02  1.0597601E-02
   7.80000  1.0017276E-02  2.3335426E-02  1.1099850E-02
   8.00000  1.0674459E-02  2.5708857E-02  1.1687071E-02
   8.20000  1.1424135E-02  2.8422479E-02  1.2387576E-02
   8.40000  1.2272818E-02  3.1503274E-02  1.3219258E-02
   8.60000  1.3225242E-02  3.4958301E-02  1.4185630E-02
   8.80000  1.4283864E-02  3.8763476E-02  1.5275232E-02
   9.00000  1.5447932E-02  4.2851853E-02  1.6464337E-02
   9.20000  1.6712400E-02  4.7105170E-02  1.7722926E-02
   9.40000  1.8067102E-02  5.1352383E-02  1.9022696E-02
   9.60000  1.9496391E-02  5.5376892E-02  2.0343860E-02
   9.80000  2.0978953E-02  5.8931862E-02  2.1677160E-02
   10.0000  2.2487816E-02  6.1762917E-02  2.3020106E-02
   10.2500  2.4362009E-02  6.3937832E-02  2.4707901E-02
   10.5000  2.6159308E-02  6.4328603E-02  2.6387590E-02
   10.7500  2.7812958E-02  6.2910105E-02  2.8021519E-02
   11.0000  2.9264673E-02  5.9959028E-02  2.9560338E-02
   11.2500  3.0472376E-02  5.5963813E-02  3.0957628E-02
   11.5000  3.1419646E-02  5.1465453E-02  3.2183514E-02
   11.7500  3.2120163E-02  4.6919317E-02  3.3231004E-02
   12.0000  3.2611249E-02  4.2633759E-02  3.4113748E-02
   12.2500  3.2940983E-02  3.8775611E-02  3.4857869E-02
   12.5000  3.3158484E-02  3.5406166E-02  3.5492893E-02
   12.7500  3.3308806E-02  3.2521018E-02  3.6045423E-02
   13.0000  3.3429759E-02  3.0081812E-02  3.6536693E-02
   13.2500  3.3550295E-02  2.8036914E-02  3.6982935E-02
   13.5000  3.3690871E-02  2.6332681E-02  3.7396585E-02
   13.7500  3.3864884E-02  2.4918851E-02  3.7787588E-02
   14.0000  3.4080170E-02  2.3750885E-02  3.8165052E-02
   14.2500  3.4340052E-02  2.2790706E-02  3.8538332E-02
   14.5000  3.4643702E-02  2.2006494E-02  3.8916387E-02
   14.7500  3.4986183E-02  2.1372011E-02  3.9306039E-02
   15.0000  3.5358609E-02  2.0865807E-02  3.9710286E-02
   15.2500  3.5748639E-02  2.0470427E-02  4.0127155E-02
   15.5000  3.6141317E-02  2.0171693E-02  4.0549188E-02
   15.7500  3.6520212E-02  1.9958053E-02  4.0963593E-02
   16.0000  3.6868738E-02  1.9820031E-02  4.1353138E-02
   16.2500  3.7171561E-02  1.9749764E-02  4.1697752E-02
   16.5000  3.7415904E-02  1.9740639E-02  4.1976725E-02
   16.7500  3.7592646E-02  1.9787004E-02  4.2171193E-02
   17.0000  3.7697081E-02  1.9883964E-02  4.2266519E-02
   17.2500  3.7729266E-02  2.0027233E-02  4.2254106E-02
   17.5000  3.7693917E-02  2.0213028E-02  4.2132317E-02
   17.7500  3.7599886E-02  2.0437999E-02  4.1906350E-02
   18.0000  3.7459259E-02  2.0699174E-02  4.1587182E-02
   18.2500  3.7286229E-02  2.0993910E-02  4.1189878E-02
   18.5000  3.7095858E-02  2.1319852E-02  4.0731660E-02
   18.7500  3.6902904E-02  2.1674886E-02  4.0230085E-02
   19.0000  3.6720828E-02  2.2057117E-02  3.9701562E-02
   19.2500  3.6561053E-02  2.2464860E-02  3.9160319E-02
   19.5000  3.6432497E-02  2.2896645E-02  3.8617801E-02
   19.7500  3.6341353E-02  2.3351155E-02  3.8082514E-02
   20.0000  3.6291096E-02  2.3826965E-02  3.7560362E-02
   21.0000  3.6490982E-02  2.5891017E-02  3.5671746E-02
   22.0000  3.7145612E-02  2.8050528E-02  3.4158615E-02
   23.0000  3.7823840E-02  3.0081566E-02  3.2962689E-02
   24.0000  3.8046854E-02  3.1773436E-02  3.1972937E-02
   25.0000  3.7490840E-02  3.2975315E-02  3.1084083E-02
   26.0000  3.6125315E-02  3.3623439E-02  3.0228669E-02
   27.0000  3.4202069E-02  3.3742714E-02  2.9394512E-02
   28.0000  3.2097594E-02  3.3426629E-02  2.8617012E-02
   29.0000  3.0145613E-02  3.2808475E-02  2.7949458E-02
   30.0000  2.8544262E-02  3.2026560E-02  2.7424376E-02
   31.0000  2.7326087E-02  3.1179796E-02  2.7025294E-02
   32.0000  2.6430206E-02  3.0324144E-02  2.6706481E-02
   33.0000  2.5770728E-02  2.9484919E-02  2.6419429E-02
   34.0000  2.5265186E-02  2.8667516E-02  2.6124456E-02
   35.0000  2.4844004E-02  2.7867916E-02  2.5793496E-02
   36.0000  2.4453092E-02  2.7081597E-02  2.5411124E-02
   37.0000  2.4057730E-02  2.6310481E-02  2.4978232E-02
   38.0000  2.3649876E-02  2.5569213E-02  2.4516700E-02
   39.0000  2.3253870E-02  2.4893547E-02  2.4070557E-02
   40.0000  2.2918702E-02  2.4343727E-02  2.3698584E-02
