    Energy   (100,001)      (010,001)      (001,110)   
  -25.0000  1.7748308E-04  1.7969050E-04  1.7375356E-04
  -24.0000  1.8388619E-04  1.8663779E-04  1.8009899E-04
  -23.0000  1.9072721E-04  1.9409194E-04  1.8688084E-04
  -22.0000  1.9805150E-04  2.0210876E-04  1.9414439E-04
  -21.0000  2.0591086E-04  2.1075246E-04  2.0194132E-04
  -20.0000  2.1436465E-04  2.2009723E-04  2.1033090E-04
  -19.0000  2.2348126E-04  2.3022921E-04  2.1938136E-04
  -18.0000  2.3333989E-04  2.4124901E-04  2.2917172E-04
  -17.0000  2.4403275E-04  2.5327483E-04  2.3979395E-04
  -16.0000  2.5566781E-04  2.6644643E-04  2.5135575E-04
  -15.0000  2.6837239E-04  2.8093020E-04  2.6398404E-04
  -14.0000  2.8229761E-04  2.9692576E-04  2.7782949E-04
  -13.0000  2.9762428E-04  3.1467460E-04  2.9307225E-04
  -12.0000  3.1457055E-04  3.3447145E-04  3.0992965E-04
  -11.0000  3.3340212E-04  3.5667970E-04  3.2866627E-04
  -10.0000  3.5444596E-04  3.8175230E-04  3.4960760E-04
  -9.00000  3.7810923E-04  4.1026080E-04  3.7315880E-04
  -8.00000  4.0490561E-04  4.4293645E-04  3.9983085E-04
  -7.00000  4.3549304E-04  4.8072939E-04  4.3027795E-04
  -6.00000  4.7072887E-04  5.2489629E-04  4.6535238E-04
  -5.00000  5.1175314E-04  5.7713355E-04  5.0618706E-04
  -4.00000  5.6011833E-04  6.3978658E-04  5.5432452E-04
  -3.00000  6.1800028E-04  7.1619158E-04  6.1192644E-04
  -2.00000  6.8855849E-04  8.1126100E-04  6.8213163E-04
  -1.00000  7.7659143E-04  9.3254736E-04  7.6970704E-04
   0.00000  8.8982950E-04  1.0923311E-03  8.8232985E-04
   1.00000  1.0417801E-03  1.3121655E-03  1.0333963E-03
   2.00000  1.2590304E-03  1.6343531E-03  1.2491612E-03
   3.00000  1.6048689E-03  2.1583041E-03  1.5913715E-03
   4.00000  2.2892418E-03  3.2063613E-03  2.2588428E-03
   5.00000  4.2503905E-03  6.1855874E-03  4.1407857E-03
   5.20000  4.8649441E-03  7.1102391E-03  4.7715841E-03
   5.40000  5.4729674E-03  8.0212817E-03  5.4399378E-03
   5.60000  6.0534638E-03  8.8931059E-03  6.1201333E-03
   5.80000  6.6100489E-03  9.7435082E-03  6.7983738E-03
   6.00000  7.1558155E-03  1.0605417E-02  7.4678744E-03
   6.20000  7.7077541E-03  1.1512712E-02  8.1289334E-03
   6.40000  8.2842520E-03  1.2495856E-02  8.7893358E-03
   6.60000  8.9023392E-03  1.3581020E-02  9.4631319E-03
   6.80000  9.5756237E-03  1.4790759E-02  1.0167907E-02
   7.00000  1.0313296E-02  1.6145553E-02  1.0919821E-02
   7.20000  1.1119825E-02  1.7665390E-02  1.1726395E-02
   7.40000  1.1995288E-02  1.9370563E-02  1.2579906E-02
   7.60000  1.2936807E-02  2.1281154E-02  1.3456549E-02
   7.80000  1.3940978E-02  2.3414746E-02  1.4324503E-02
   8.00000  1.5005735E-02  2.5782185E-02  1.5157668E-02
   8.20000  1.6129527E-02  2.8382411E-02  1.5946962E-02
   8.40000  1.7307038E-02  3.1198428E-02  1.6702212E-02
   8.60000  1.8523626E-02  3.4196724E-02  1.7444712E-02
   8.80000  1.9752957E-02  3.7331773E-02  1.8197088E-02
   9.00000  2.0961317E-02  4.0554272E-02  1.8977253E-02
   9.20000  2.2117768E-02  4.3817496E-02  1.9798231E-02
   9.40000  2.3204716E-02  4.7074690E-02  2.0670704E-02
   9.60000  2.4222226E-02  5.0265550E-02  2.1603992E-02
   9.80000  2.5183167E-02  5.3298340E-02  2.2603652E-02
   10.0000  2.6103336E-02  5.6038680E-02  2.3667423E-02
   10.2500  2.7211806E-02  5.8788495E-02  2.5066833E-02
   10.5000  2.8274959E-02  6.0457753E-02  2.6499078E-02
   10.7500  2.9275814E-02  6.0789131E-02  2.7902663E-02
   11.0000  3.0187017E-02  5.9725727E-02  2.9215031E-02
   11.2500  3.0983231E-02  5.7434177E-02  3.0386195E-02
   11.5000  3.1651786E-02  5.4243060E-02  3.1388393E-02
   11.7500  3.2196556E-02  5.0537181E-02  3.2217504E-02
   12.0000  3.2636499E-02  4.6663734E-02  3.2885854E-02
   12.2500  3.3002153E-02  4.2883351E-02  3.3413315E-02
   12.5000  3.3329252E-02  3.9362174E-02  3.3822534E-02
   12.7500  3.3651455E-02  3.6186905E-02  3.4137189E-02
   13.0000  3.3995471E-02  3.3387479E-02  3.4381157E-02
   13.2500  3.4379006E-02  3.0958120E-02  3.4577938E-02
   13.5000  3.4810366E-02  2.8873097E-02  3.4750030E-02
   13.7500  3.5289178E-02  2.7097322E-02  3.4918598E-02
   14.0000  3.5808129E-02  2.5593300E-02  3.5103830E-02
   14.2500  3.6354884E-02  2.4325370E-02  3.5324901E-02
   14.5000  3.6913377E-02  2.3261747E-02  3.5598321E-02
   14.7500  3.7464652E-02  2.2375121E-02  3.5935664E-02
   15.0000  3.7987892E-02  2.1642471E-02  3.6342481E-02
   15.2500  3.8461684E-02  2.1044573E-02  3.6818282E-02
   15.5000  3.8865315E-02  2.0565408E-02  3.7356718E-02
   15.7500  3.9180018E-02  2.0191602E-02  3.7945731E-02
   16.0000  3.9390165E-02  1.9911926E-02  3.8567849E-02
   16.2500  3.9484344E-02  1.9716875E-02  3.9200865E-02
   16.5000  3.9456178E-02  1.9598321E-02  3.9819035E-02
   16.7500  3.9304779E-02  1.9549238E-02  4.0394830E-02
   17.0000  3.9034764E-02  1.9563478E-02  4.0901118E-02
   17.2500  3.8655834E-02  1.9635603E-02  4.1313549E-02
   17.5000  3.8181973E-02  1.9760742E-02  4.1612783E-02
   17.7500  3.7630382E-02  1.9934492E-02  4.1786183E-02
   18.0000  3.7020288E-02  2.0152836E-02  4.1828681E-02
   18.2500  3.6371739E-02  2.0412086E-02  4.1742692E-02
   18.5000  3.5704520E-02  2.0708851E-02  4.1537149E-02
   18.7500  3.5037228E-02  2.1040020E-02  4.1225921E-02
   19.0000  3.4386565E-02  2.1402768E-02  4.0825910E-02
   19.2500  3.3766814E-02  2.1794596E-02  4.0355148E-02
   19.5000  3.3189505E-02  2.2213370E-02  3.9831128E-02
   19.7500  3.2663286E-02  2.2657300E-02  3.9269617E-02
   20.0000  3.2194146E-02  2.3124715E-02  3.8684221E-02
   21.0000  3.0951089E-02  2.5180444E-02  3.6322119E-02
   22.0000  3.0726761E-02  2.7398538E-02  3.4246136E-02
   23.0000  3.1292263E-02  2.9589947E-02  3.2564550E-02
   24.0000  3.2220042E-02  3.1530535E-02  3.1206006E-02
   25.0000  3.2975586E-02  3.3004599E-02  3.0064579E-02
   26.0000  3.3127165E-02  3.3889294E-02  2.9067111E-02
   27.0000  3.2587216E-02  3.4197583E-02  2.8189420E-02
   28.0000  3.1582643E-02  3.4039680E-02  2.7441881E-02
   29.0000  3.0404295E-02  3.3550238E-02  2.6845224E-02
   30.0000  2.9255240E-02  3.2841711E-02  2.6406830E-02
   31.0000  2.8244420E-02  3.1993809E-02  2.6108812E-02
   32.0000  2.7410323E-02  3.1064910E-02  2.5908773E-02
   33.0000  2.6742381E-02  3.0099506E-02  2.5750333E-02
   34.0000  2.6213337E-02  2.9116375E-02  2.5581406E-02
   35.0000  2.5793196E-02  2.8119278E-02  2.5361501E-02
   36.0000  2.5453772E-02  2.7112082E-02  2.5067078E-02
   37.0000  2.5172034E-02  2.6107411E-02  2.4699925E-02
   38.0000  2.4931590E-02  2.5134731E-02  2.4292349E-02
   39.0000  2.4725489E-02  2.4249632E-02  2.3901091E-02
   40.0000  2.4559159E-02  2.3533622E-02  2.3584534E-02
