    Energy   (100,001)      (010,001)      (001,110)   
  -25.0000  1.7088438E-04  1.7904487E-04  1.7127723E-04
  -24.0000  1.7732563E-04  1.8595092E-04  1.7776123E-04
  -23.0000  1.8421910E-04  1.9336040E-04  1.8470320E-04
  -22.0000  1.9161239E-04  2.0132878E-04  1.9215160E-04
  -21.0000  1.9955988E-04  2.0991985E-04  2.0016188E-04
  -20.0000  2.0812402E-04  2.1920734E-04  2.0879769E-04
  -19.0000  2.1737680E-04  2.2927690E-04  2.1813248E-04
  -18.0000  2.2740170E-04  2.4022858E-04  2.2825146E-04
  -17.0000  2.3829601E-04  2.5217995E-04  2.3925400E-04
  -16.0000  2.5017378E-04  2.6527006E-04  2.5125667E-04
  -15.0000  2.6316963E-04  2.7966455E-04  2.6439709E-04
  -14.0000  2.7744350E-04  2.9556224E-04  2.7883890E-04
  -13.0000  2.9318693E-04  3.1320374E-04  2.9477811E-04
  -12.0000  3.1063117E-04  3.3288293E-04  3.1245154E-04
  -11.0000  3.3005806E-04  3.5496241E-04  3.3214785E-04
  -10.0000  3.5181459E-04  3.7989451E-04  3.5422260E-04
  -9.00000  3.7633294E-04  4.0825064E-04  3.7911863E-04
  -8.00000  4.0415830E-04  4.4076265E-04  4.0739467E-04
  -7.00000  4.3598865E-04  4.7838285E-04  4.3976583E-04
  -6.00000  4.7273264E-04  5.2237284E-04  4.7716269E-04
  -5.00000  5.1559651E-04  5.7443899E-04  5.2081959E-04
  -4.00000  5.6621874E-04  6.3694600E-04  5.7241110E-04
  -3.00000  6.2688711E-04  7.1326689E-04  6.3427103E-04
  -2.00000  7.0090571E-04  8.0838481E-04  7.0976106E-04
  -1.00000  7.9325387E-04  9.2999143E-04  8.0392877E-04
   0.00000  9.1186497E-04  1.0906518E-03  9.2477691E-04
   1.00000  1.0703816E-03  1.3125349E-03  1.0859819E-03
   2.00000  1.2950396E-03  1.6393806E-03  1.3136636E-03
   3.00000  1.6461888E-03  2.1742927E-03  1.6676380E-03
   4.00000  2.3144562E-03  3.2500316E-03  2.3382570E-03
   5.00000  4.1283747E-03  6.3257610E-03  4.1333310E-03
   5.20000  4.7086019E-03  7.3140515E-03  4.6657684E-03
   5.40000  5.3060554E-03  8.3247960E-03  5.1834062E-03
   5.60000  5.9054030E-03  9.3330444E-03  5.6843020E-03
   5.80000  6.5103079E-03  1.0348017E-02  6.1907357E-03
   6.00000  7.1297054E-03  1.1386710E-02  6.7259935E-03
   6.20000  7.7716617E-03  1.2462480E-02  7.3063525E-03
   6.40000  8.4427844E-03  1.3584353E-02  7.9421848E-03
   6.60000  9.1491843E-03  1.4759515E-02  8.6412477E-03
   6.80000  9.8973398E-03  1.5996082E-02  9.4115706E-03
   7.00000  1.0694390E-02  1.7305527E-02  1.0263178E-02
   7.20000  1.1547847E-02  1.8704368E-02  1.1208308E-02
   7.40000  1.2465000E-02  2.0214569E-02  1.2259858E-02
   7.60000  1.3452301E-02  2.1862882E-02  1.3428151E-02
   7.80000  1.4514814E-02  2.3679595E-02  1.4717039E-02
   8.00000  1.5655706E-02  2.5696606E-02  1.6121571E-02
   8.20000  1.6875834E-02  2.7944370E-02  1.7629856E-02
   8.40000  1.8173899E-02  3.0447526E-02  1.9229710E-02
   8.60000  1.9547391E-02  3.3219400E-02  2.0916087E-02
   8.80000  2.0993607E-02  3.6255640E-02  2.2692992E-02
   9.00000  2.2509539E-02  3.9527245E-02  2.4567297E-02
   9.20000  2.4090041E-02  4.2973251E-02  2.6537553E-02
   9.40000  2.5724616E-02  4.6493983E-02  2.8583140E-02
   9.60000  2.7393805E-02  4.9947013E-02  3.0658154E-02
   9.80000  2.9066434E-02  5.3149375E-02  3.2692825E-02
   10.0000  3.0699005E-02  5.5889895E-02  3.4603342E-02
   10.2500  3.2602967E-02  5.8341589E-02  3.6693290E-02
   10.5000  3.4260091E-02  5.9404117E-02  3.8344392E-02
   10.7500  3.5597421E-02  5.8944274E-02  3.9511065E-02
   11.0000  3.6590193E-02  5.7088103E-02  4.0217326E-02
   11.2500  3.7261336E-02  5.4172053E-02  4.0528720E-02
   11.5000  3.7665679E-02  5.0621169E-02  4.0522113E-02
   11.7500  3.7870447E-02  4.6830447E-02  4.0269318E-02
   12.0000  3.7940929E-02  4.3098262E-02  3.9831961E-02
   12.2500  3.7932404E-02  3.9613435E-02  3.9263936E-02
   12.5000  3.7887048E-02  3.6473246E-02  3.8618580E-02
   12.7500  3.7834979E-02  3.3710906E-02  3.7950724E-02
   13.0000  3.7796798E-02  3.1320557E-02  3.7312794E-02
   13.2500  3.7785471E-02  2.9275614E-02  3.6750267E-02
   13.5000  3.7807422E-02  2.7540607E-02  3.6298720E-02
   13.7500  3.7863423E-02  2.6078064E-02  3.5982271E-02
   14.0000  3.7949631E-02  2.4852096E-02  3.5812970E-02
   14.2500  3.8058598E-02  2.3830036E-02  3.5791443E-02
   14.5000  3.8179955E-02  2.2983081E-02  3.5909234E-02
   14.7500  3.8300970E-02  2.2286392E-02  3.6151506E-02
   15.0000  3.8407423E-02  2.1718830E-02  3.6498239E-02
   15.2500  3.8484745E-02  2.1262539E-02  3.6924403E-02
   15.5000  3.8519139E-02  2.0902568E-02  3.7400401E-02
   15.7500  3.8498626E-02  2.0626545E-02  3.7893326E-02
   16.0000  3.8414003E-02  2.0424409E-02  3.8368955E-02
   16.2500  3.8259625E-02  2.0288143E-02  3.8794268E-02
   16.5000  3.8033905E-02  2.0211489E-02  3.9140146E-02
   16.7500  3.7739431E-02  2.0189631E-02  3.9383841E-02
   17.0000  3.7382677E-02  2.0218853E-02  3.9510759E-02
   17.2500  3.6973376E-02  2.0296206E-02  3.9515235E-02
   17.5000  3.6523688E-02  2.0419197E-02  3.9400183E-02
   17.7500  3.6047279E-02  2.0585550E-02  3.9175751E-02
   18.0000  3.5558437E-02  2.0793027E-02  3.8857328E-02
   18.2500  3.5071292E-02  2.1039343E-02  3.8463309E-02
   18.5000  3.4599172E-02  2.1322134E-02  3.8013002E-02
   18.7500  3.4154091E-02  2.1638992E-02  3.7524932E-02
   19.0000  3.3746381E-02  2.1987533E-02  3.7015645E-02
   19.2500  3.3384418E-02  2.2365499E-02  3.6498986E-02
   19.5000  3.3074441E-02  2.2770859E-02  3.5985782E-02
   19.7500  3.2820459E-02  2.3201838E-02  3.5483864E-02
   20.0000  3.2624281E-02  2.3656725E-02  3.4998482E-02
   21.0000  3.2393518E-02  2.5665357E-02  3.3277576E-02
   22.0000  3.2847973E-02  2.7837688E-02  3.1930606E-02
   23.0000  3.3529628E-02  2.9979781E-02  3.0848826E-02
   24.0000  3.3918882E-02  3.1868214E-02  2.9881626E-02
   25.0000  3.3682462E-02  3.3280893E-02  2.8928316E-02
   26.0000  3.2826849E-02  3.4070395E-02  2.7976891E-02
   27.0000  3.1583424E-02  3.4244358E-02  2.7076319E-02
   28.0000  3.0204174E-02  3.3921755E-02  2.6301107E-02
   29.0000  2.8862089E-02  3.3261802E-02  2.5707899E-02
   30.0000  2.7657121E-02  3.2412774E-02  2.5303964E-02
   31.0000  2.6633209E-02  3.1483214E-02  2.5048605E-02
   32.0000  2.5786328E-02  3.0536954E-02  2.4876337E-02
   33.0000  2.5080999E-02  2.9601383E-02  2.4720063E-02
   34.0000  2.4471533E-02  2.8679743E-02  2.4524605E-02
   35.0000  2.3918332E-02  2.7763661E-02  2.4252393E-02
   36.0000  2.3396920E-02  2.6844574E-02  2.3886222E-02
   37.0000  2.2900397E-02  2.5923949E-02  2.3431759E-02
   38.0000  2.2437254E-02  2.5023203E-02  2.2920279E-02
   39.0000  2.2028036E-02  2.4193951E-02  2.2410576E-02
   40.0000  2.1700859E-02  2.3517439E-02  2.1980430E-02
