    Energy   (100,001)      (010,001)      (001,110)   
  -25.0000  1.6636091E-04  1.8733949E-04  1.7183544E-04
  -24.0000  1.7264259E-04  1.9417069E-04  1.7831289E-04
  -23.0000  1.7936432E-04  2.0148090E-04  1.8524602E-04
  -22.0000  1.8657222E-04  2.0932140E-04  1.9268287E-04
  -21.0000  1.9431896E-04  2.1775100E-04  2.0067834E-04
  -20.0000  2.0266494E-04  2.2683743E-04  2.0929546E-04
  -19.0000  2.1167979E-04  2.3665910E-04  2.1860693E-04
  -18.0000  2.2144413E-04  2.4730730E-04  2.2869701E-04
  -17.0000  2.3205187E-04  2.5888891E-04  2.3966393E-04
  -16.0000  2.4361299E-04  2.7152983E-04  2.5162284E-04
  -15.0000  2.5625714E-04  2.8537944E-04  2.6470964E-04
  -14.0000  2.7013820E-04  3.0061623E-04  2.7908577E-04
  -13.0000  2.8544020E-04  3.1745521E-04  2.9494454E-04
  -12.0000  3.0238504E-04  3.3615768E-04  3.1251929E-04
  -11.0000  3.2124272E-04  3.5704431E-04  3.3209432E-04
  -10.0000  3.4234512E-04  3.8051283E-04  3.5401952E-04
  -9.00000  3.6610478E-04  4.0706252E-04  3.7873044E-04
  -8.00000  3.9304102E-04  4.3732850E-04  4.0677616E-04
  -7.00000  4.2381710E-04  4.7213105E-04  4.3885902E-04
  -6.00000  4.5929407E-04  5.1254798E-04  4.7589227E-04
  -5.00000  5.0061131E-04  5.6002384E-04  5.1908639E-04
  -4.00000  5.4931060E-04  6.1654019E-04  5.7008212E-04
  -3.00000  6.0753486E-04  6.8489143E-04  6.3116359E-04
  -2.00000  6.7836145E-04  7.6915258E-04  7.0561555E-04
  -1.00000  7.6639468E-04  8.7552083E-04  7.9835673E-04
   0.00000  8.7890052E-04  1.0139478E-03  9.1714665E-04
   1.00000  1.0282093E-03  1.2016453E-03  1.0751153E-03
   2.00000  1.2375781E-03  1.4717971E-03  1.2968238E-03
   3.00000  1.5589363E-03  1.9005990E-03  1.6360205E-03
   4.00000  2.1489800E-03  2.7273954E-03  2.2477894E-03
   5.00000  3.6613961E-03  4.9820418E-03  3.7592187E-03
   5.20000  4.1452387E-03  5.6974774E-03  4.2604651E-03
   5.40000  4.6579326E-03  6.4293144E-03  4.8179623E-03
   5.60000  5.1953517E-03  7.1602940E-03  5.4311715E-03
   5.80000  5.7673319E-03  7.8986294E-03  6.1082800E-03
   6.00000  6.3864643E-03  8.6600770E-03  6.8586197E-03
   6.20000  7.0625377E-03  9.4596212E-03  7.6882933E-03
   6.40000  7.8008124E-03  1.0309901E-02  8.5980683E-03
   6.60000  8.6014326E-03  1.1221497E-02  9.5822806E-03
   6.80000  9.4593074E-03  1.2203449E-02  1.0629387E-02
   7.00000  1.0364732E-02  1.3264006E-02  1.1725355E-02
   7.20000  1.1305032E-02  1.4411724E-02  1.2859388E-02
   7.40000  1.2267001E-02  1.5656589E-02  1.4028366E-02
   7.60000  1.3239382E-02  1.7010609E-02  1.5235109E-02
   7.80000  1.4214413E-02  1.8487249E-02  1.6479123E-02
   8.00000  1.5188155E-02  2.0099598E-02  1.7744864E-02
   8.20000  1.6160710E-02  2.1858332E-02  1.8996354E-02
   8.40000  1.7137963E-02  2.3771349E-02  2.0185033E-02
   8.60000  1.8134806E-02  2.5845971E-02  2.1270116E-02
   8.80000  1.9176986E-02  2.8092056E-02  2.2240833E-02
   9.00000  2.0297969E-02  3.0522423E-02  2.3125849E-02
   9.20000  2.1530687E-02  3.3148155E-02  2.3983550E-02
   9.40000  2.2898903E-02  3.5969745E-02  2.4881134E-02
   9.60000  2.4412887E-02  3.8967038E-02  2.5875764E-02
   9.80000  2.6068557E-02  4.2089861E-02  2.7003211E-02
   10.0000  2.7845032E-02  4.5249524E-02  2.8270582E-02
   10.2500  3.0170692E-02  4.9045370E-02  3.0011676E-02
   10.5000  3.2498133E-02  5.2350910E-02  3.1829907E-02
   10.7500  3.4680204E-02  5.4800788E-02  3.3595141E-02
   11.0000  3.6568626E-02  5.6100520E-02  3.5180082E-02
   11.2500  3.8040852E-02  5.6118276E-02  3.6486697E-02
   11.5000  3.9024106E-02  5.4923283E-02  3.7464212E-02
   11.7500  3.9508584E-02  5.2751898E-02  3.8111125E-02
   12.0000  3.9544969E-02  4.9924621E-02  3.8461996E-02
   12.2500  3.9227475E-02  4.6758927E-02  3.8570370E-02
   12.5000  3.8669950E-02  4.3513486E-02  3.8497104E-02
   12.7500  3.7983921E-02  4.0370308E-02  3.8303252E-02
   13.0000  3.7264258E-02  3.7441176E-02  3.8044658E-02
   13.2500  3.6582955E-02  3.4783439E-02  3.7768404E-02
   13.5000  3.5988718E-02  3.2416692E-02  3.7511937E-02
   13.7500  3.5509943E-02  3.0336822E-02  3.7303973E-02
   14.0000  3.5159096E-02  2.8526422E-02  3.7165840E-02
   14.2500  3.4937036E-02  2.6961846E-02  3.7112600E-02
   14.5000  3.4836529E-02  2.5617672E-02  3.7153773E-02
   14.7500  3.4844761E-02  2.4469280E-02  3.7293628E-02
   15.0000  3.4944980E-02  2.3494187E-02  3.7531119E-02
   15.2500  3.5117532E-02  2.2672566E-02  3.7859624E-02
   15.5000  3.5340596E-02  2.1987279E-02  3.8266667E-02
   15.7500  3.5590904E-02  2.1423647E-02  3.8733869E-02
   16.0000  3.5844646E-02  2.0969109E-02  3.9237380E-02
   16.2500  3.6078685E-02  2.0612853E-02  3.9749004E-02
   16.5000  3.6272071E-02  2.0345478E-02  4.0238114E-02
   16.7500  3.6407708E-02  2.0158696E-02  4.0674256E-02
   17.0000  3.6473931E-02  2.0045096E-02  4.1030104E-02
   17.2500  3.6465657E-02  1.9997963E-02  4.1284217E-02
   17.5000  3.6384842E-02  2.0011137E-02  4.1423041E-02
   17.7500  3.6240071E-02  2.0078929E-02  4.1441728E-02
   18.0000  3.6045328E-02  2.0196058E-02  4.1343678E-02
   18.2500  3.5818152E-02  2.0357621E-02  4.1139023E-02
   18.5000  3.5577553E-02  2.0559085E-02  4.0842501E-02
   18.7500  3.5342020E-02  2.0796291E-02  4.0471197E-02
   19.0000  3.5127921E-02  2.1065493E-02  4.0042531E-02
   19.2500  3.4948418E-02  2.1363405E-02  3.9572700E-02
   19.5000  3.4812901E-02  2.1687267E-02  3.9075629E-02
   19.7500  3.4726833E-02  2.2034848E-02  3.8562478E-02
   20.0000  3.4691873E-02  2.2404293E-02  3.8041740E-02
   21.0000  3.4989585E-02  2.4061432E-02  3.5996028E-02
   22.0000  3.5621442E-02  2.5927277E-02  3.4133798E-02
   23.0000  3.6000210E-02  2.7932167E-02  3.2442719E-02
   24.0000  3.5701924E-02  2.9988488E-02  3.0855435E-02
   25.0000  3.4668921E-02  3.1927556E-02  2.9347735E-02
   26.0000  3.3140620E-02  3.3516703E-02  2.7960849E-02
   27.0000  3.1386935E-02  3.4602069E-02  2.6746748E-02
   28.0000  2.9589784E-02  3.5124446E-02  2.5740487E-02
   29.0000  2.7883623E-02  3.5120114E-02  2.4951185E-02
   30.0000  2.6381742E-02  3.4711410E-02  2.4362216E-02
   31.0000  2.5150663E-02  3.4051137E-02  2.3938645E-02
   32.0000  2.4194916E-02  3.3266293E-02  2.3636631E-02
   33.0000  2.3472898E-02  3.2436553E-02  2.3411676E-02
   34.0000  2.2922396E-02  3.1601333E-02  2.3222513E-02
   35.0000  2.2480161E-02  3.0775862E-02  2.3033297E-02
   36.0000  2.2094064E-02  2.9965276E-02  2.2818498E-02
   37.0000  2.1730310E-02  2.9174410E-02  2.2569354E-02
   38.0000  2.1377334E-02  2.8416156E-02  2.2296958E-02
   39.0000  2.1047092E-02  2.7723733E-02  2.2029618E-02
   40.0000  2.0770370E-02  2.7159052E-02  2.1804487E-02
