    Energy   (100,001)      (010,001)      (001,110)   
  -25.0000  1.6327631E-04  1.7719819E-04  1.7803384E-04
  -24.0000  1.6926528E-04  1.8424228E-04  1.8456311E-04
  -23.0000  1.7565938E-04  1.9181070E-04  1.9154415E-04
  -22.0000  1.8249950E-04  1.9996211E-04  1.9902416E-04
  -21.0000  1.8983213E-04  2.0876408E-04  2.0705707E-04
  -20.0000  1.9771030E-04  2.1829483E-04  2.1570478E-04
  -19.0000  2.0619484E-04  2.2864537E-04  2.2503862E-04
  -18.0000  2.1535575E-04  2.3992215E-04  2.3514129E-04
  -17.0000  2.2527412E-04  2.5225054E-04  2.4610917E-04
  -16.0000  2.3604426E-04  2.6577904E-04  2.5805524E-04
  -15.0000  2.4777661E-04  2.8068485E-04  2.7111282E-04
  -14.0000  2.6060127E-04  2.9718105E-04  2.8544038E-04
  -13.0000  2.7467261E-04  3.1552600E-04  3.0122772E-04
  -12.0000  2.9017513E-04  3.3603583E-04  3.1870413E-04
  -11.0000  3.0733132E-04  3.5910128E-04  3.3814924E-04
  -10.0000  3.2641188E-04  3.8521074E-04  3.5990770E-04
  -9.00000  3.4774968E-04  4.1498219E-04  3.8440937E-04
  -8.00000  3.7175887E-04  4.4920856E-04  4.1219761E-04
  -7.00000  3.9896162E-04  4.8892320E-04  4.4396985E-04
  -6.00000  4.3002645E-04  5.3549694E-04  4.8063734E-04
  -5.00000  4.6582463E-04  5.9078587E-04  5.2341558E-04
  -4.00000  5.0751587E-04  6.5736367E-04  5.7396665E-04
  -3.00000  5.5668356E-04  7.3890111E-04  6.3463248E-04
  -2.00000  6.1555865E-04  8.4081527E-04  7.0883876E-04
  -1.00000  6.8741334E-04  9.7144606E-04  8.0184218E-04
   0.00000  7.7731075E-04  1.1443525E-03  9.2223956E-04
   1.00000  8.9369651E-04  1.3832664E-03  1.0853928E-03
   2.00000  1.0523487E-03  1.7344242E-03  1.3225851E-03
   3.00000  1.2888077E-03  2.3048246E-03  1.7121907E-03
   4.00000  1.7152541E-03  3.4320442E-03  2.5333392E-03
   5.00000  2.8200518E-03  6.5650651E-03  5.0971275E-03
   5.20000  3.1582147E-03  7.5541035E-03  5.8885504E-03
   5.40000  3.4928178E-03  8.5542846E-03  6.6267557E-03
   5.60000  3.8124034E-03  9.5392695E-03  7.2699321E-03
   5.80000  4.1196174E-03  1.0522007E-02  7.8199231E-03
   6.00000  4.4222697E-03  1.1529256E-02  8.2943838E-03
   6.20000  4.7288491E-03  1.2589813E-02  8.7137920E-03
   6.40000  5.0471377E-03  1.3732650E-02  9.0991332E-03
   6.60000  5.3839302E-03  1.4987881E-02  9.4714964E-03
   6.80000  5.7452878E-03  1.6387958E-02  9.8504363E-03
   7.00000  6.1370467E-03  1.7968640E-02  1.0251991E-02
   7.20000  6.5652998E-03  1.9770084E-02  1.0688472E-02
   7.40000  7.0366399E-03  2.1837728E-02  1.1170172E-02
   7.60000  7.5580683E-03  2.4221668E-02  1.1707082E-02
   7.80000  8.1366160E-03  2.6973801E-02  1.2310042E-02
   8.00000  8.7787602E-03  3.0142255E-02  1.2991778E-02
   8.20000  9.4897144E-03  3.3762186E-02  1.3767752E-02
   8.40000  1.0272812E-02  3.7842117E-02  1.4656351E-02
   8.60000  1.1129437E-02  4.2346089E-02  1.5677871E-02
   8.80000  1.2059933E-02  4.7173951E-02  1.6851837E-02
   9.00000  1.3065353E-02  5.2145027E-02  1.8192933E-02
   9.20000  1.4149042E-02  5.6993563E-02  1.9706914E-02
   9.40000  1.5316897E-02  6.1385726E-02  2.1388308E-02
   9.60000  1.6575978E-02  6.4964082E-02  2.3220739E-02
   9.80000  1.7932016E-02  6.7414028E-02  2.5178760E-02
   10.0000  1.9386325E-02  6.8531621E-02  2.7229032E-02
   10.2500  2.1331289E-02  6.7993358E-02  2.9856926E-02
   10.5000  2.3380500E-02  6.5546141E-02  3.2459797E-02
   10.7500  2.5464425E-02  6.1704632E-02  3.4911950E-02
   11.0000  2.7487965E-02  5.7079174E-02  3.7075096E-02
   11.2500  2.9348685E-02  5.2210705E-02  3.8824773E-02
   11.5000  3.0962672E-02  4.7484748E-02  4.0085283E-02
   11.7500  3.2286054E-02  4.3125388E-02  4.0850064E-02
   12.0000  3.3319491E-02  3.9233106E-02  4.1174341E-02
   12.2500  3.4095735E-02  3.5830120E-02  4.1148852E-02
   12.5000  3.4663566E-02  3.2894722E-02  4.0873621E-02
   12.7500  3.5075633E-02  3.0383660E-02  4.0440964E-02
   13.0000  3.5380491E-02  2.8246193E-02  3.9926310E-02
   13.2500  3.5618462E-02  2.6432152E-02  3.9385236E-02
   13.5000  3.5820732E-02  2.4895872E-02  3.8856197E-02
   13.7500  3.6010171E-02  2.3597639E-02  3.8365301E-02
   14.0000  3.6202550E-02  2.2503758E-02  3.7929891E-02
   14.2500  3.6407664E-02  2.1585990E-02  3.7560513E-02
   14.5000  3.6630335E-02  2.0820783E-02  3.7261969E-02
   14.7500  3.6871387E-02  2.0188521E-02  3.7033978E-02
   15.0000  3.7128593E-02  1.9672871E-02  3.6871790E-02
   15.2500  3.7397543E-02  1.9260265E-02  3.6766869E-02
   15.5000  3.7672398E-02  1.8939475E-02  3.6707725E-02
   15.7500  3.7946476E-02  1.8701282E-02  3.6680913E-02
   16.0000  3.8212679E-02  1.8538190E-02  3.6672156E-02
   16.2500  3.8463803E-02  1.8444164E-02  3.6667511E-02
   16.5000  3.8692799E-02  1.8414368E-02  3.6654449E-02
   16.7500  3.8893056E-02  1.8444911E-02  3.6622734E-02
   17.0000  3.9058743E-02  1.8532591E-02  3.6564998E-02
   17.2500  3.9185226E-02  1.8674666E-02  3.6476959E-02
   17.5000  3.9269492E-02  1.8868661E-02  3.6357299E-02
   17.7500  3.9310527E-02  1.9112222E-02  3.6207264E-02
   18.0000  3.9309553E-02  1.9403022E-02  3.6030082E-02
   18.2500  3.9270081E-02  1.9738718E-02  3.5830313E-02
   18.5000  3.9197738E-02  2.0116935E-02  3.5613207E-02
   18.7500  3.9099884E-02  2.0535295E-02  3.5384157E-02
   19.0000  3.8985032E-02  2.0991465E-02  3.5148251E-02
   19.2500  3.8862147E-02  2.1483238E-02  3.4909962E-02
   19.5000  3.8739880E-02  2.2008609E-02  3.4672938E-02
   19.7500  3.8625853E-02  2.2565750E-02  3.4439921E-02
   20.0000  3.8526120E-02  2.3152730E-02  3.4212821E-02
   21.0000  3.8330033E-02  2.5731987E-02  3.3385761E-02
   22.0000  3.8399456E-02  2.8469003E-02  3.2698121E-02
   23.0000  3.8383944E-02  3.1035656E-02  3.2098687E-02
   24.0000  3.7870312E-02  3.3079122E-02  3.1508274E-02
   25.0000  3.6664466E-02  3.4340713E-02  3.0861524E-02
   26.0000  3.4927573E-02  3.4756803E-02  3.0148578E-02
   27.0000  3.3049384E-02  3.4464269E-02  2.9430456E-02
   28.0000  3.1339877E-02  3.3705138E-02  2.8793572E-02
   29.0000  2.9929693E-02  3.2708790E-02  2.8306255E-02
   30.0000  2.8814760E-02  3.1632042E-02  2.7988130E-02
   31.0000  2.7923824E-02  3.0555544E-02  2.7805373E-02
   32.0000  2.7170851E-02  2.9505529E-02  2.7692493E-02
   33.0000  2.6480996E-02  2.8479024E-02  2.7579269E-02
   34.0000  2.5797921E-02  2.7463326E-02  2.7407489E-02
   35.0000  2.5084998E-02  2.6448435E-02  2.7137165E-02
   36.0000  2.4327116E-02  2.5434112E-02  2.6748534E-02
   37.0000  2.3533815E-02  2.4433935E-02  2.6244878E-02
   38.0000  2.2741423E-02  2.3479065E-02  2.5657531E-02
   39.0000  2.2011681E-02  2.2623103E-02  2.5052959E-02
   40.0000  2.1419999E-02  2.1938055E-02  2.4530733E-02
