    Energy   (100,001)      (010,001)      (001,110)   
  -25.0000  1.7447467E-04  1.7360890E-04  1.7540320E-04
  -24.0000  1.8103270E-04  1.8057499E-04  1.8216431E-04
  -23.0000  1.8805408E-04  1.8806393E-04  1.8941530E-04
  -22.0000  1.9558806E-04  1.9613467E-04  1.9720956E-04
  -21.0000  2.0369097E-04  2.0485522E-04  2.0560842E-04
  -20.0000  2.1242760E-04  2.1430438E-04  2.1468263E-04
  -19.0000  2.2187276E-04  2.2457395E-04  2.2451420E-04
  -18.0000  2.3211330E-04  2.3577151E-04  2.3519875E-04
  -17.0000  2.4325063E-04  2.4802386E-04  2.4684840E-04
  -16.0000  2.5540385E-04  2.6148150E-04  2.5959547E-04
  -15.0000  2.6871374E-04  2.7632432E-04  2.7359718E-04
  -14.0000  2.8334793E-04  2.9276905E-04  2.8904177E-04
  -13.0000  2.9950751E-04  3.1107901E-04  3.0615646E-04
  -12.0000  3.1743581E-04  3.3157718E-04  3.2521804E-04
  -11.0000  3.3743000E-04  3.5466381E-04  3.4656704E-04
  -10.0000  3.5985680E-04  3.8084056E-04  3.7062710E-04
  -9.00000  3.8517395E-04  4.1074425E-04  3.9793185E-04
  -8.00000  4.1396030E-04  4.4519486E-04  4.2916300E-04
  -7.00000  4.4695861E-04  4.8526525E-04  4.6520536E-04
  -6.00000  4.8513808E-04  5.3238507E-04  5.0722861E-04
  -5.00000  5.2978808E-04  5.8849981E-04  5.5681237E-04
  -4.00000  5.8266332E-04  6.5632264E-04  6.1614410E-04
  -3.00000  6.4621722E-04  7.3974853E-04  6.8834572E-04
  -2.00000  7.2399485E-04  8.4456802E-04  7.7804041E-04
  -1.00000  8.2133355E-04  9.7977082E-04  8.9240004E-04
   0.00000  9.4670746E-04  1.1601091E-03  1.0432434E-03
   1.00000  1.1145757E-03  1.4116631E-03  1.2517159E-03
   2.00000  1.3523183E-03  1.7857466E-03  1.5604212E-03
   3.00000  1.7211212E-03  2.4019534E-03  2.0727833E-03
   4.00000  2.4047172E-03  3.6370656E-03  3.1349316E-03
   5.00000  4.1671156E-03  7.1051550E-03  6.3041325E-03
   5.20000  4.7367503E-03  8.2215250E-03  7.3279661E-03
   5.40000  5.3453648E-03  9.3747974E-03  8.3671495E-03
   5.60000  5.9868485E-03  1.0541376E-02  9.3952019E-03
   5.80000  6.6694990E-03  1.1737716E-02  1.0426033E-02
   6.00000  7.4052344E-03  1.2993494E-02  1.1484759E-02
   6.20000  8.2052833E-03  1.4338780E-02  1.2591831E-02
   6.40000  9.0794616E-03  1.5801800E-02  1.3755675E-02
   6.60000  1.0035452E-02  1.7410437E-02  1.4967541E-02
   6.80000  1.1076734E-02  1.9194732E-02  1.6198754E-02
   7.00000  1.2199130E-02  2.1189190E-02  1.7404069E-02
   7.20000  1.3387364E-02  2.3433427E-02  1.8534747E-02
   7.40000  1.4614756E-02  2.5969519E-02  1.9560149E-02
   7.60000  1.5849756E-02  2.8836219E-02  2.0488304E-02
   7.80000  1.7069499E-02  3.2063049E-02  2.1371104E-02
   8.00000  1.8273459E-02  3.5666317E-02  2.2287337E-02
   8.20000  1.9487273E-02  3.9642846E-02  2.3313551E-02
   8.40000  2.0753937E-02  4.3953519E-02  2.4501278E-02
   8.60000  2.2119441E-02  4.8494946E-02  2.5870444E-02
   8.80000  2.3621477E-02  5.3069220E-02  2.7415089E-02
   9.00000  2.5283744E-02  5.7370543E-02  2.9112456E-02
   9.20000  2.7113138E-02  6.1009673E-02  3.0929520E-02
   9.40000  2.9096378E-02  6.3587448E-02  3.2825352E-02
   9.60000  3.1195038E-02  6.4802344E-02  3.4750514E-02
   9.80000  3.3341245E-02  6.4546002E-02  3.6645899E-02
   10.0000  3.5438018E-02  6.2935694E-02  3.8443220E-02
   10.2500  3.7809751E-02  5.9479159E-02  4.0438747E-02
   10.5000  3.9694346E-02  5.5104671E-02  4.2024597E-02
   10.7500  4.0938045E-02  5.0463125E-02  4.3094562E-02
   11.0000  4.1506545E-02  4.5995063E-02  4.3605421E-02
   11.2500  4.1480841E-02  4.1932631E-02  4.3585715E-02
   11.5000  4.1013563E-02  3.8358979E-02  4.3120614E-02
   11.7500  4.0275936E-02  3.5271227E-02  4.2325109E-02
   12.0000  3.9419886E-02  3.2626286E-02  4.1319099E-02
   12.2500  3.8561074E-02  3.0368172E-02  4.0210918E-02
   12.5000  3.7777368E-02  2.8441833E-02  3.9089431E-02
   12.7500  3.7115515E-02  2.6798615E-02  3.8021799E-02
   13.0000  3.6599368E-02  2.5397463E-02  3.7054351E-02
   13.2500  3.6236326E-02  2.4204279E-02  3.6214943E-02
   13.5000  3.6022097E-02  2.3190567E-02  3.5516965E-02
   13.7500  3.5944285E-02  2.2332222E-02  3.4964256E-02
   14.0000  3.5984424E-02  2.1608834E-02  3.4554147E-02
   14.2500  3.6118966E-02  2.1003282E-02  3.4278486E-02
   14.5000  3.6320375E-02  2.0501355E-02  3.4124350E-02
   14.7500  3.6558602E-02  2.0091390E-02  3.4074886E-02
   15.0000  3.6802662E-02  1.9763924E-02  3.4110052E-02
   15.2500  3.7022286E-02  1.9511389E-02  3.4207337E-02
   15.5000  3.7189689E-02  1.9327813E-02  3.4342648E-02
   15.7500  3.7281421E-02  1.9208538E-02  3.4491504E-02
   16.0000  3.7280143E-02  1.9149951E-02  3.4630501E-02
   16.2500  3.7176054E-02  1.9149216E-02  3.4738888E-02
   16.5000  3.6967676E-02  1.9204022E-02  3.4800007E-02
   16.7500  3.6661786E-02  1.9312355E-02  3.4802347E-02
   17.0000  3.6272452E-02  1.9472290E-02  3.4740017E-02
   17.2500  3.5819294E-02  1.9681837E-02  3.4612600E-02
   17.5000  3.5325291E-02  1.9938824E-02  3.4424424E-02
   17.7500  3.4814475E-02  2.0240840E-02  3.4183459E-02
   18.0000  3.4309860E-02  2.0585230E-02  3.3900013E-02
   18.2500  3.3831818E-02  2.0969123E-02  3.3585468E-02
   18.5000  3.3397019E-02  2.1389496E-02  3.3251177E-02
   18.7500  3.3017915E-02  2.1843264E-02  3.2907629E-02
   19.0000  3.2702673E-02  2.2327385E-02  3.2563877E-02
   19.2500  3.2455440E-02  2.2838981E-02  3.2227213E-02
   19.5000  3.2276799E-02  2.3375465E-02  3.1903037E-02
   19.7500  3.2164272E-02  2.3934543E-02  3.1594895E-02
   20.0000  3.2112739E-02  2.4513959E-02  3.1304718E-02
   21.0000  3.2344988E-02  2.6966310E-02  3.0328836E-02
   22.0000  3.2787881E-02  2.9429155E-02  2.9594090E-02
   23.0000  3.2843511E-02  3.1603106E-02  2.8964864E-02
   24.0000  3.2202752E-02  3.3184059E-02  2.8324080E-02
   25.0000  3.0961229E-02  3.3975559E-02  2.7632315E-02
   26.0000  2.9459248E-02  3.3975668E-02  2.6933405E-02
   27.0000  2.8013184E-02  3.3358486E-02  2.6313398E-02
   28.0000  2.6785108E-02  3.2366334E-02  2.5834741E-02
   29.0000  2.5818503E-02  3.1213782E-02  2.5512727E-02
   30.0000  2.5092526E-02  3.0046021E-02  2.5319409E-02
   31.0000  2.4555864E-02  2.8936575E-02  2.5199314E-02
   32.0000  2.4152199E-02  2.7903745E-02  2.5089632E-02
   33.0000  2.3835951E-02  2.6932723E-02  2.4936514E-02
   34.0000  2.3577028E-02  2.5996341E-02  2.4704638E-02
   35.0000  2.3357763E-02  2.5071405E-02  2.4380759E-02
   36.0000  2.3166396E-02  2.4149328E-02  2.3972949E-02
   37.0000  2.2991326E-02  2.3241641E-02  2.3507715E-02
   38.0000  2.2821374E-02  2.2381382E-02  2.3027641E-02
   39.0000  2.2654435E-02  2.1620648E-02  2.2587585E-02
   40.0000  2.2506445E-02  2.1019529E-02  2.2239747E-02
