    Energy   (100,001)      (010,001)      (001,110)   
  -25.0000  1.6617034E-04  1.7804837E-04  1.8238540E-04
  -24.0000  1.7203733E-04  1.8510341E-04  1.8887363E-04
  -23.0000  1.7828846E-04  1.9268299E-04  1.9580099E-04
  -22.0000  1.8496140E-04  2.0084579E-04  2.0321261E-04
  -21.0000  1.9209878E-04  2.0965940E-04  2.1115999E-04
  -20.0000  1.9974909E-04  2.1920207E-04  2.1970213E-04
  -19.0000  2.0796772E-04  2.2956486E-04  2.2890694E-04
  -18.0000  2.1681822E-04  2.4085431E-04  2.3885302E-04
  -17.0000  2.2637381E-04  2.5319587E-04  2.4963181E-04
  -16.0000  2.3671936E-04  2.6673819E-04  2.6135034E-04
  -15.0000  2.4795376E-04  2.8165871E-04  2.7413472E-04
  -14.0000  2.6019291E-04  2.9817082E-04  2.8813456E-04
  -13.0000  2.7357363E-04  3.1653334E-04  3.0352881E-04
  -12.0000  2.8825853E-04  3.3706311E-04  3.2053327E-04
  -11.0000  3.0444251E-04  3.6015191E-04  3.3941074E-04
  -10.0000  3.2236121E-04  3.8628972E-04  3.6048463E-04
  -9.00000  3.4230239E-04  4.1609696E-04  3.8415772E-04
  -8.00000  3.6462145E-04  4.5037034E-04  4.1093843E-04
  -7.00000  3.8976299E-04  4.9014925E-04  4.4147855E-04
  -6.00000  4.1829141E-04  5.3681432E-04  4.7662863E-04
  -5.00000  4.5093573E-04  5.9223787E-04  5.1752195E-04
  -4.00000  4.8865710E-04  6.5902137E-04  5.6570620E-04
  -3.00000  5.3275463E-04  7.4088466E-04  6.2335887E-04
  -2.00000  5.8503978E-04  8.4333504E-04  6.9365780E-04
  -1.00000  6.4814172E-04  9.7488646E-04  7.8146001E-04
   0.00000  7.2608811E-04  1.1494539E-03  8.9464883E-04
   1.00000  8.2554110E-04  1.3915534E-03  1.0471042E-03
   2.00000  9.5888728E-04  1.7493267E-03  1.2662755E-03
   3.00000  1.1540939E-03  2.3350776E-03  1.6170752E-03
   4.00000  1.5007222E-03  3.5046034E-03  2.3071503E-03
   5.00000  2.3882299E-03  6.7860180E-03  4.2633489E-03
   5.20000  2.6503025E-03  7.8351241E-03  4.9414311E-03
   5.40000  2.9022813E-03  8.9150459E-03  5.6875343E-03
   5.60000  3.1383165E-03  1.0008528E-02  6.4847982E-03
   5.80000  3.3653273E-03  1.1136715E-02  7.3246880E-03
   6.00000  3.5930824E-03  1.2331230E-02  8.1981701E-03
   6.20000  3.8297512E-03  1.3621455E-02  9.0920183E-03
   6.40000  4.0811313E-03  1.5031129E-02  9.9884674E-03
   6.60000  4.3509585E-03  1.6576276E-02  1.0865640E-02
   6.80000  4.6414014E-03  1.8262968E-02  1.1698652E-02
   7.00000  4.9535784E-03  2.0086518E-02  1.2462484E-02
   7.20000  5.2880895E-03  2.2033886E-02  1.3137161E-02
   7.40000  5.6456020E-03  2.4090125E-02  1.3714058E-02
   7.60000  6.0274845E-03  2.6247311E-02  1.4200309E-02
   7.80000  6.4363392E-03  2.8512139E-02  1.4618320E-02
   8.00000  6.8761944E-03  3.0908630E-02  1.4999988E-02
   8.20000  7.3521877E-03  3.3474574E-02  1.5378133E-02
   8.40000  7.8697721E-03  3.6252279E-02  1.5778696E-02
   8.60000  8.4337351E-03  3.9274907E-02  1.6216190E-02
   8.80000  9.0474872E-03  4.2550265E-02  1.6693259E-02
   9.00000  9.7129953E-03  4.6044919E-02  1.7204148E-02
   9.20000  1.0431367E-02  4.9672330E-02  1.7740956E-02
   9.40000  1.1203706E-02  5.3288769E-02  1.8300580E-02
   9.60000  1.2031723E-02  5.6700582E-02  1.8889311E-02
   9.80000  1.2917719E-02  5.9685055E-02  1.9522372E-02
   10.0000  1.3863711E-02  6.2020868E-02  2.0218350E-02
   10.2500  1.5130535E-02  6.3743665E-02  2.1198915E-02
   10.5000  1.6484263E-02  6.3922843E-02  2.2311961E-02
   10.7500  1.7909610E-02  6.2537302E-02  2.3546327E-02
   11.0000  1.9384963E-02  5.9797158E-02  2.4871661E-02
   11.2500  2.0885514E-02  5.6075357E-02  2.6247263E-02
   11.5000  2.2384393E-02  5.1801439E-02  2.7632471E-02
   11.7500  2.3852021E-02  4.7368659E-02  2.8992870E-02
   12.0000  2.5258197E-02  4.3077905E-02  3.0300773E-02
   12.2500  2.6577620E-02  3.9121338E-02  3.1532967E-02
   12.5000  2.7795763E-02  3.5595268E-02  3.2669517E-02
   12.7500  2.8911919E-02  3.2526769E-02  3.3695156E-02
   13.0000  2.9938574E-02  2.9900532E-02  3.4601849E-02
   13.2500  3.0898072E-02  2.7678947E-02  3.5390797E-02
   13.5000  3.1817264E-02  2.5815382E-02  3.6073099E-02
   13.7500  3.2721357E-02  2.4262323E-02  3.6668073E-02
   14.0000  3.3629294E-02  2.2975564E-02  3.7199168E-02
   14.2500  3.4551885E-02  2.1915969E-02  3.7689391E-02
   14.5000  3.5491974E-02  2.1049986E-02  3.8157803E-02
   14.7500  3.6445549E-02  2.0349483E-02  3.8617359E-02
   15.0000  3.7403194E-02  1.9791219E-02  3.9073924E-02
   15.2500  3.8351595E-02  1.9356184E-02  3.9526277E-02
   15.5000  3.9274949E-02  1.9028914E-02  3.9966889E-02
   15.7500  4.0156219E-02  1.8796857E-02  4.0383262E-02
   16.0000  4.0978198E-02  1.8649792E-02  4.0759669E-02
   16.2500  4.1724417E-02  1.8579333E-02  4.1079106E-02
   16.5000  4.2379906E-02  1.8578504E-02  4.1325276E-02
   16.7500  4.2931851E-02  1.8641381E-02  4.1484395E-02
   17.0000  4.3370150E-02  1.8762808E-02  4.1546655E-02
   17.2500  4.3687931E-02  1.8938187E-02  4.1507179E-02
   17.5000  4.3881989E-02  1.9163321E-02  4.1366389E-02
   17.7500  4.3953162E-02  1.9434324E-02  4.1129789E-02
   18.0000  4.3906540E-02  1.9747577E-02  4.0807248E-02
   18.2500  4.3751430E-02  2.0099709E-02  4.0411913E-02
   18.5000  4.3500986E-02  2.0487608E-02  3.9958949E-02
   18.7500  4.3171480E-02  2.0908435E-02  3.9464250E-02
   19.0000  4.2781231E-02  2.1359654E-02  3.8943267E-02
   19.2500  4.2349320E-02  2.1839068E-02  3.8410036E-02
   19.5000  4.1894232E-02  2.2344845E-02  3.7876448E-02
   19.7500  4.1432677E-02  2.2875454E-02  3.7351851E-02
   20.0000  4.0978956E-02  2.3429351E-02  3.6843118E-02
   21.0000  3.9453045E-02  2.5821971E-02  3.5049922E-02
   22.0000  3.8601188E-02  2.8319010E-02  3.3700097E-02
   23.0000  3.8226824E-02  3.0652417E-02  3.2693086E-02
   24.0000  3.7864614E-02  3.2541017E-02  3.1885018E-02
   25.0000  3.7125719E-02  3.3772163E-02  3.1176747E-02
   26.0000  3.5915775E-02  3.4274761E-02  3.0522611E-02
   27.0000  3.4430070E-02  3.4127468E-02  2.9918523E-02
   28.0000  3.2953475E-02  3.3500267E-02  2.9387710E-02
   29.0000  3.1667780E-02  3.2584228E-02  2.8963536E-02
   30.0000  3.0610180E-02  3.1541288E-02  2.8665022E-02
   31.0000  2.9737733E-02  3.0467735E-02  2.8474204E-02
   32.0000  2.8990126E-02  2.9404033E-02  2.8348168E-02
   33.0000  2.8310480E-02  2.8359766E-02  2.8239801E-02
   34.0000  2.7648053E-02  2.7332505E-02  2.8108770E-02
   35.0000  2.6961846E-02  2.6320911E-02  2.7925229E-02
   36.0000  2.6227802E-02  2.5332013E-02  2.7671437E-02
   37.0000  2.5446741E-02  2.4383236E-02  2.7344286E-02
   38.0000  2.4649988E-02  2.3502292E-02  2.6959693E-02
   39.0000  2.3901007E-02  2.2729780E-02  2.6558977E-02
   40.0000  2.3285297E-02  2.2118659E-02  2.6209281E-02
