    Energy   (100,001)      (010,001)      (001,110)   
  -25.0000  1.7604903E-04  1.7992918E-04  1.8362832E-04
  -24.0000  1.8245776E-04  1.8696470E-04  1.9025734E-04
  -23.0000  1.8930662E-04  1.9451814E-04  1.9734406E-04
  -22.0000  1.9664127E-04  2.0264697E-04  2.0493654E-04
  -21.0000  2.0451384E-04  2.1141736E-04  2.1308975E-04
  -20.0000  2.1298407E-04  2.2090582E-04  2.2186682E-04
  -19.0000  2.2212080E-04  2.3120128E-04  2.3134066E-04
  -18.0000  2.3200372E-04  2.4240773E-04  2.4159583E-04
  -17.0000  2.4272559E-04  2.5464742E-04  2.5273106E-04
  -16.0000  2.5439503E-04  2.6806510E-04  2.6486223E-04
  -15.0000  2.6714007E-04  2.8283327E-04  2.7812632E-04
  -14.0000  2.8111261E-04  2.9915915E-04  2.9268641E-04
  -13.0000  2.9649431E-04  3.1729369E-04  3.0873815E-04
  -12.0000  3.1350423E-04  3.3754359E-04  3.2651834E-04
  -11.0000  3.3240895E-04  3.6028750E-04  3.4631631E-04
  -10.0000  3.5353621E-04  3.8599802E-04  3.6848936E-04
  -9.00000  3.7729364E-04  4.1527238E-04  3.9348392E-04
  -8.00000  4.0419466E-04  4.4887571E-04  4.2186527E-04
  -7.00000  4.3489556E-04  4.8780368E-04  4.5436007E-04
  -6.00000  4.7024928E-04  5.3337495E-04  4.9191863E-04
  -5.00000  5.1138598E-04  5.8737196E-04  5.3580886E-04
  -4.00000  5.5983760E-04  6.5226177E-04  5.8776255E-04
  -3.00000  6.1773770E-04  7.3155626E-04  6.5021208E-04
  -2.00000  6.8815767E-04  8.3042715E-04  7.2669220E-04
  -1.00000  7.7570586E-04  9.5681787E-04  8.2256260E-04
   0.00000  8.8767786E-04  1.1236073E-03  9.4640879E-04
   1.00000  1.0364968E-03  1.3532571E-03  1.1130436E-03
   2.00000  1.2456779E-03  1.6893022E-03  1.3509141E-03
   3.00000  1.5679151E-03  2.2316020E-03  1.7247610E-03
   4.00000  2.1629305E-03  3.2901505E-03  2.4338682E-03
   5.00000  3.6985048E-03  6.1767875E-03  4.3144363E-03
   5.20000  4.1867161E-03  7.0945804E-03  4.9107290E-03
   5.40000  4.6977488E-03  8.0405389E-03  5.5313888E-03
   5.60000  5.2242730E-03  8.9983113E-03  6.1706081E-03
   5.80000  5.7746744E-03  9.9849181E-03  6.8434981E-03
   6.00000  6.3623026E-03  1.1028058E-02  7.5715127E-03
   6.20000  7.0004365E-03  1.2155700E-02  8.3763740E-03
   6.40000  7.7012998E-03  1.3394087E-02  9.2790532E-03
   6.60000  8.4761172E-03  1.4767947E-02  1.0299011E-02
   6.80000  9.3350034E-03  1.6300702E-02  1.1451678E-02
   7.00000  1.0286413E-02  1.8013833E-02  1.2743751E-02
   7.20000  1.1336105E-02  1.9924947E-02  1.4167085E-02
   7.40000  1.2485659E-02  2.2045102E-02  1.5693438E-02
   7.60000  1.3730815E-02  2.4376745E-02  1.7273648E-02
   7.80000  1.5060167E-02  2.6913880E-02  1.8844717E-02
   8.00000  1.6454564E-02  2.9645223E-02  2.0345083E-02
   8.20000  1.7887237E-02  3.2558897E-02  2.1732525E-02
   8.40000  1.9324591E-02  3.5644725E-02  2.2995444E-02
   8.60000  2.0728255E-02  3.8890091E-02  2.4151154E-02
   8.80000  2.2059460E-02  4.2268544E-02  2.5232507E-02
   9.00000  2.3285608E-02  4.5725188E-02  2.6270232E-02
   9.20000  2.4386566E-02  4.9166153E-02  2.7279244E-02
   9.40000  2.5357579E-02  5.2458578E-02  2.8254117E-02
   9.60000  2.6208004E-02  5.5442664E-02  2.9174233E-02
   9.80000  2.6957645E-02  5.7952238E-02  3.0014637E-02
   10.0000  2.7632535E-02  5.9838127E-02  3.0756640E-02
   10.2500  2.8413468E-02  6.1153883E-02  3.1537090E-02
   10.5000  2.9168810E-02  6.1227320E-02  3.2168508E-02
   10.7500  2.9926109E-02  6.0106854E-02  3.2683620E-02
   11.0000  3.0683877E-02  5.7967567E-02  3.3118582E-02
   11.2500  3.1414363E-02  5.5064865E-02  3.3501620E-02
   11.5000  3.2077136E-02  5.1681268E-02  3.3849299E-02
   11.7500  3.2635261E-02  4.8079759E-02  3.4169528E-02
   12.0000  3.3068832E-02  4.4471945E-02  3.4465600E-02
   12.2500  3.3382589E-02  4.1007111E-02  3.4736799E-02
   12.5000  3.3601885E-02  3.7779339E-02  3.4976743E-02
   12.7500  3.3761440E-02  3.4841944E-02  3.5173953E-02
   13.0000  3.3896538E-02  3.2219115E-02  3.5316218E-02
   13.2500  3.4038159E-02  2.9913750E-02  3.5394986E-02
   13.5000  3.4209698E-02  2.7913967E-02  3.5407951E-02
   13.7500  3.4425330E-02  2.6198626E-02  3.5360537E-02
   14.0000  3.4690318E-02  2.4741582E-02  3.5265612E-02
   14.2500  3.5002538E-02  2.3514803E-02  3.5141075E-02
   14.5000  3.5354385E-02  2.2490569E-02  3.5006397E-02
   14.7500  3.5734602E-02  2.1642904E-02  3.4879377E-02
   15.0000  3.6129794E-02  2.0948403E-02  3.4773835E-02
   15.2500  3.6525603E-02  2.0386609E-02  3.4698410E-02
   15.5000  3.6907523E-02  1.9940053E-02  3.4656338E-02
   15.7500  3.7261450E-02  1.9594092E-02  3.4645971E-02
   16.0000  3.7574053E-02  1.9336621E-02  3.4661780E-02
   16.2500  3.7833080E-02  1.9157718E-02  3.4695626E-02
   16.5000  3.8027653E-02  1.9049275E-02  3.4738090E-02
   16.7500  3.8148640E-02  1.9004635E-02  3.4779700E-02
   17.0000  3.8189101E-02  1.9018265E-02  3.4811929E-02
   17.2500  3.8144823E-02  1.9085476E-02  3.4827901E-02
   17.5000  3.8014859E-02  1.9202200E-02  3.4822775E-02
   17.7500  3.7801977E-02  1.9364823E-02  3.4793853E-02
   18.0000  3.7512863E-02  1.9570079E-02  3.4740470E-02
   18.2500  3.7157960E-02  1.9814982E-02  3.4663722E-02
   18.5000  3.6750883E-02  2.0096797E-02  3.4566089E-02
   18.7500  3.6307446E-02  2.0413038E-02  3.4451007E-02
   19.0000  3.5844438E-02  2.0761496E-02  3.4322403E-02
   19.2500  3.5378300E-02  2.1140280E-02  3.4184258E-02
   19.5000  3.4923920E-02  2.1547871E-02  3.4040204E-02
   19.7500  3.4493719E-02  2.1983103E-02  3.3893226E-02
   20.0000  3.4097280E-02  2.2444946E-02  3.3745517E-02
   21.0000  3.2961756E-02  2.4523962E-02  3.3167874E-02
   22.0000  3.2590165E-02  2.6870372E-02  3.2596712E-02
   23.0000  3.2716598E-02  2.9313469E-02  3.1951483E-02
   24.0000  3.2893190E-02  3.1596868E-02  3.1171198E-02
   25.0000  3.2737919E-02  3.3420998E-02  3.0269674E-02
   26.0000  3.2144773E-02  3.4562210E-02  2.9332955E-02
   27.0000  3.1286102E-02  3.4965584E-02  2.8480029E-02
   28.0000  3.0399689E-02  3.4737959E-02  2.7810667E-02
   29.0000  2.9615380E-02  3.4066821E-02  2.7366113E-02
   30.0000  2.8955478E-02  3.3136977E-02  2.7123043E-02
   31.0000  2.8399191E-02  3.2091455E-02  2.7018902E-02
   32.0000  2.7912925E-02  3.1022272E-02  2.6983039E-02
   33.0000  2.7460813E-02  2.9962215E-02  2.6954528E-02
   34.0000  2.7010595E-02  2.8909984E-02  2.6891261E-02
   35.0000  2.6540346E-02  2.7856564E-02  2.6772793E-02
   36.0000  2.6043872E-02  2.6799213E-02  2.6600342E-02
   37.0000  2.5531165E-02  2.5750541E-02  2.6394208E-02
   38.0000  2.5025796E-02  2.4744546E-02  2.6185622E-02
   39.0000  2.4563402E-02  2.3840412E-02  2.6004210E-02
   40.0000  2.4188762E-02  2.3116593E-02  2.5867596E-02
