    Energy   (100,001)      (010,001)      (001,110)   
  -25.0000  1.7075744E-04  1.7704884E-04  1.7650812E-04
  -24.0000  1.7712934E-04  1.8404385E-04  1.8319356E-04
  -23.0000  1.8394575E-04  1.9155808E-04  1.9035664E-04
  -22.0000  1.9125317E-04  1.9964957E-04  1.9804886E-04
  -21.0000  1.9910474E-04  2.0838516E-04  2.0632927E-04
  -20.0000  2.0756138E-04  2.1784220E-04  2.1526590E-04
  -19.0000  2.1669332E-04  2.2811073E-04  2.2493752E-04
  -18.0000  2.2658185E-04  2.3929607E-04  2.3543585E-04
  -17.0000  2.3732164E-04  2.5152221E-04  2.4686827E-04
  -16.0000  2.4902355E-04  2.6493607E-04  2.5936137E-04
  -15.0000  2.6181820E-04  2.7971300E-04  2.7306530E-04
  -14.0000  2.7586061E-04  2.9606382E-04  2.8815959E-04
  -13.0000  2.9133605E-04  3.1424425E-04  3.0486063E-04
  -12.0000  3.0846778E-04  3.3456720E-04  3.2343159E-04
  -11.0000  3.2752731E-04  3.5741959E-04  3.4419573E-04
  -10.0000  3.4884803E-04  3.8328512E-04  3.6755461E-04
  -9.00000  3.7284394E-04  4.1277612E-04  3.9401323E-04
  -8.00000  4.0003549E-04  4.4667857E-04  4.2421570E-04
  -7.00000  4.3108618E-04  4.8601736E-04  4.5899682E-04
  -6.00000  4.6685555E-04  5.3215299E-04  4.9945859E-04
  -5.00000  5.0847782E-04  5.8692899E-04  5.4708734E-04
  -4.00000  5.5748229E-04  6.5290397E-04  6.0393918E-04
  -3.00000  6.1598474E-04  7.3373120E-04  6.7294632E-04
  -2.00000  6.8700514E-04  8.3480873E-04  7.5844963E-04
  -1.00000  7.7502534E-04  9.6445898E-04  8.6718478E-04
   0.00000  8.8704036E-04  1.1362328E-03  1.0102632E-03
   1.00000  1.0347394E-03  1.3738799E-03  1.2076054E-03
   2.00000  1.2396918E-03  1.7237001E-03  1.4994745E-03
   3.00000  1.5485421E-03  2.2926691E-03  1.9840274E-03
   4.00000  2.0957497E-03  3.4160218E-03  2.9912172E-03
   5.00000  3.4219383E-03  6.5233159E-03  6.0143922E-03
   5.20000  3.8454458E-03  7.5118755E-03  6.9957737E-03
   5.40000  4.3029863E-03  8.5255959E-03  7.9902549E-03
   5.60000  4.7925744E-03  9.5438834E-03  8.9668597E-03
   5.80000  5.3202202E-03  1.0582141E-02  9.9354908E-03
   6.00000  5.8925970E-03  1.1666768E-02  1.0921620E-02
   6.20000  6.5159812E-03  1.2824208E-02  1.1951301E-02
   6.40000  7.1978183E-03  1.4079903E-02  1.3044223E-02
   6.60000  7.9470126E-03  1.5460103E-02  1.4209378E-02
   6.80000  8.7720465E-03  1.6993681E-02  1.5441028E-02
   7.00000  9.6776080E-03  1.8712843E-02  1.6714080E-02
   7.20000  1.0660824E-02  2.0651724E-02  1.7980306E-02
   7.40000  1.1708885E-02  2.2842396E-02  1.9170473E-02
   7.60000  1.2800790E-02  2.5309777E-02  2.0209362E-02
   7.80000  1.3914949E-02  2.8068844E-02  2.1044768E-02
   8.00000  1.5040336E-02  3.1126904E-02  2.1677476E-02
   8.20000  1.6184535E-02  3.4488794E-02  2.2170694E-02
   8.40000  1.7372882E-02  3.8156802E-02  2.2629757E-02
   8.60000  1.8639388E-02  4.2117753E-02  2.3165644E-02
   8.80000  2.0015520E-02  4.6318100E-02  2.3864117E-02
   9.00000  2.1522008E-02  5.0636834E-02  2.4771606E-02
   9.20000  2.3164723E-02  5.4870371E-02  2.5895489E-02
   9.40000  2.4933042E-02  5.8742755E-02  2.7211443E-02
   9.60000  2.6799564E-02  6.1946254E-02  2.8672695E-02
   9.80000  2.8721359E-02  6.4202187E-02  3.0219426E-02
   10.0000  3.0642312E-02  6.5320088E-02  3.1787569E-02
   10.2500  3.2939753E-02  6.5028298E-02  3.3685247E-02
   10.5000  3.4988120E-02  6.3005998E-02  3.5420428E-02
   10.7500  3.6655383E-02  5.9622217E-02  3.6920992E-02
   11.0000  3.7853947E-02  5.5359080E-02  3.8143201E-02
   11.2500  3.8564999E-02  5.0701850E-02  3.9066899E-02
   11.5000  3.8838004E-02  4.6055802E-02  3.9692052E-02
   11.7500  3.8768987E-02  4.1702462E-02  4.0033030E-02
   12.0000  3.8472727E-02  3.7797219E-02  4.0111596E-02
   12.2500  3.8059497E-02  3.4396329E-02  3.9956491E-02
   12.5000  3.7621439E-02  3.1492486E-02  3.9606472E-02
   12.7500  3.7228106E-02  2.9044650E-02  3.9110137E-02
   13.0000  3.6927035E-02  2.6998213E-02  3.8521850E-02
   13.2500  3.6746526E-02  2.5296745E-02  3.7896165E-02
   13.5000  3.6699059E-02  2.3887929E-02  3.7282361E-02
   13.7500  3.6784052E-02  2.2726057E-02  3.6719450E-02
   14.0000  3.6989919E-02  2.1772603E-02  3.6233124E-02
   14.2500  3.7296127E-02  2.0995755E-02  3.5836212E-02
   14.5000  3.7675231E-02  2.0369490E-02  3.5531249E-02
   14.7500  3.8094706E-02  1.9872599E-02  3.5313165E-02
   15.0000  3.8518726E-02  1.9487810E-02  3.5171449E-02
   15.2500  3.8910215E-02  1.9201058E-02  3.5091924E-02
   15.5000  3.9233311E-02  1.9000871E-02  3.5058303E-02
   15.7500  3.9456174E-02  1.8877868E-02  3.5053637E-02
   16.0000  3.9553860E-02  1.8824346E-02  3.5061655E-02
   16.2500  3.9510810E-02  1.8833928E-02  3.5067948E-02
   16.5000  3.9322487E-02  1.8901276E-02  3.5060891E-02
   16.7500  3.8995748E-02  1.9021851E-02  3.5032192E-02
   17.0000  3.8547833E-02  1.9191712E-02  3.4977028E-02
   17.2500  3.8004118E-02  1.9407362E-02  3.4893769E-02
   17.5000  3.7395071E-02  1.9665631E-02  3.4783405E-02
   17.7500  3.6752969E-02  1.9963591E-02  3.4648806E-02
   18.0000  3.6108910E-02  2.0298512E-02  3.4493964E-02
   18.2500  3.5490481E-02  2.0667825E-02  3.4323327E-02
   18.5000  3.4920262E-02  2.1069125E-02  3.4141280E-02
   18.7500  3.4415119E-02  2.1500169E-02  3.3951789E-02
   19.0000  3.3986170E-02  2.1958909E-02  3.3758184E-02
   19.2500  3.3639194E-02  2.2443534E-02  3.3563047E-02
   19.5000  3.3375304E-02  2.2952512E-02  3.3368170E-02
   19.7500  3.3191668E-02  2.3484549E-02  3.3174588E-02
   20.0000  3.3082124E-02  2.4038301E-02  3.2982682E-02
   21.0000  3.3177916E-02  2.6418444E-02  3.2227363E-02
   22.0000  3.3534401E-02  2.8892174E-02  3.1455918E-02
   23.0000  3.3432715E-02  3.1191260E-02  3.0607926E-02
   24.0000  3.2544779E-02  3.3007838E-02  2.9665756E-02
   25.0000  3.1083671E-02  3.4090387E-02  2.8677492E-02
   26.0000  2.9540298E-02  3.4356409E-02  2.7735271E-02
   27.0000  2.8269744E-02  3.3926985E-02  2.6938872E-02
   28.0000  2.7340392E-02  3.3048110E-02  2.6356664E-02
   29.0000  2.6658373E-02  3.1957829E-02  2.5992315E-02
   30.0000  2.6125784E-02  3.0820263E-02  2.5792804E-02
   31.0000  2.5682658E-02  2.9722623E-02  2.5676416E-02
   32.0000  2.5289734E-02  2.8695155E-02  2.5561109E-02
   33.0000  2.4915917E-02  2.7734548E-02  2.5385571E-02
   34.0000  2.4537326E-02  2.6822606E-02  2.5119266E-02
   35.0000  2.4140108E-02  2.5939131E-02  2.4763594E-02
   36.0000  2.3722404E-02  2.5071191E-02  2.4346523E-02
   37.0000  2.3294340E-02  2.4220434E-02  2.3911222E-02
   38.0000  2.2876443E-02  2.3408608E-02  2.3502051E-02
   39.0000  2.2498245E-02  2.2680588E-02  2.3154933E-02
   40.0000  2.2194291E-02  2.2097727E-02  2.2892391E-02
