    Energy   (100,001)      (010,001)      (001,110)   
  -25.0000  1.7240702E-04  1.8915239E-04  1.8311079E-04
  -24.0000  1.7846652E-04  1.9612048E-04  1.8950912E-04
  -23.0000  1.8492664E-04  2.0358176E-04  1.9633572E-04
  -22.0000  1.9182738E-04  2.1158948E-04  2.0363431E-04
  -21.0000  1.9921424E-04  2.2020474E-04  2.1145476E-04
  -20.0000  2.0713914E-04  2.2949798E-04  2.1985418E-04
  -19.0000  2.1566158E-04  2.3955085E-04  2.2889825E-04
  -18.0000  2.2485014E-04  2.5045851E-04  2.3866298E-04
  -17.0000  2.3478422E-04  2.6233248E-04  2.4923675E-04
  -16.0000  2.4555628E-04  2.7530432E-04  2.6072298E-04
  -15.0000  2.5727470E-04  2.8953030E-04  2.7324347E-04
  -14.0000  2.7006731E-04  3.0519742E-04  2.8694270E-04
  -13.0000  2.8408604E-04  3.2253125E-04  3.0199345E-04
  -12.0000  2.9951288E-04  3.4180640E-04  3.1860408E-04
  -11.0000  3.1656787E-04  3.6336041E-04  3.3702833E-04
  -10.0000  3.3551965E-04  3.8761275E-04  3.5757860E-04
  -9.00000  3.5669989E-04  4.1509102E-04  3.8064416E-04
  -8.00000  3.8052334E-04  4.4646794E-04  4.0671691E-04
  -7.00000  4.0751615E-04  4.8261450E-04  4.3642840E-04
  -6.00000  4.3835699E-04  5.2467837E-04  4.7060463E-04
  -5.00000  4.7393853E-04  5.7420271E-04  5.1034980E-04
  -4.00000  5.1546231E-04  6.3331240E-04  5.5717912E-04
  -3.00000  5.6459140E-04  7.0501734E-04  6.1323919E-04
  -2.00000  6.2370858E-04  7.9373099E-04  6.8169451E-04
  -1.00000  6.9638111E-04  9.0621203E-04  7.6745425E-04
   0.00000  7.8826914E-04  1.0534138E-03  8.7866558E-04
   1.00000  9.0910890E-04  1.2545253E-03  1.0301661E-03
   2.00000  1.0777840E-03  1.5472543E-03  1.2528724E-03
   3.00000  1.3388047E-03  2.0208592E-03  1.6261218E-03
   4.00000  1.8404272E-03  2.9698810E-03  2.4372951E-03
   5.00000  3.2366741E-03  5.6935893E-03  5.0755457E-03
   5.20000  3.6466214E-03  6.5231212E-03  5.9373423E-03
   5.40000  4.0271202E-03  7.3186732E-03  6.7753191E-03
   5.60000  4.3676701E-03  8.0555036E-03  7.5257727E-03
   5.80000  4.6833471E-03  8.7539021E-03  8.1599455E-03
   6.00000  4.9970123E-03  9.4488069E-03  8.6743509E-03
   6.20000  5.3301863E-03  1.0173404E-02  9.0836388E-03
   6.40000  5.7004706E-03  1.0954276E-02  9.4096843E-03
   6.60000  6.1216434E-03  1.1811981E-02  9.6706793E-03
   6.80000  6.6045246E-03  1.2763707E-02  9.8779776E-03
   7.00000  7.1577360E-03  1.3825970E-02  1.0041131E-02
   7.20000  7.7881510E-03  1.5016408E-02  1.0175488E-02
   7.40000  8.5011096E-03  1.6354442E-02  1.0306310E-02
   7.60000  9.3004018E-03  1.7860999E-02  1.0466931E-02
   7.80000  1.0187843E-02  1.9557633E-02  1.0692884E-02
   8.00000  1.1162226E-02  2.1465248E-02  1.1015780E-02
   8.20000  1.2217571E-02  2.3602254E-02  1.1459606E-02
   8.40000  1.3340930E-02  2.5981737E-02  1.2039800E-02
   8.60000  1.4510371E-02  2.8607221E-02  1.2764069E-02
   8.80000  1.5694002E-02  3.1466622E-02  1.3633606E-02
   9.00000  1.6851045E-02  3.4524532E-02  1.4643757E-02
   9.20000  1.7936305E-02  3.7714707E-02  1.5783738E-02
   9.40000  1.8908672E-02  4.0936855E-02  1.7035786E-02
   9.60000  1.9741926E-02  4.4062835E-02  1.8374696E-02
   9.80000  2.0433316E-02  4.6954518E-02  1.9768624E-02
   10.0000  2.1004572E-02  4.9488337E-02  2.1181159E-02
   10.2500  2.1607660E-02  5.2020853E-02  2.2915067E-02
   10.5000  2.2156897E-02  5.3773703E-02  2.4548099E-02
   10.7500  2.2697782E-02  5.4737911E-02  2.6020282E-02
   11.0000  2.3236247E-02  5.4940280E-02  2.7288828E-02
   11.2500  2.3748601E-02  5.4417909E-02  2.8338560E-02
   11.5000  2.4200757E-02  5.3220086E-02  2.9187471E-02
   11.7500  2.4568481E-02  5.1428565E-02  2.9878438E-02
   12.0000  2.4849593E-02  4.9169221E-02  3.0466049E-02
   12.2500  2.5063557E-02  4.6599292E-02  3.1004011E-02
   12.5000  2.5242215E-02  4.3879136E-02  3.1532434E-02
   12.7500  2.5418649E-02  4.1146050E-02  3.2069476E-02
   13.0000  2.5619083E-02  3.8501314E-02  3.2611797E-02
   13.2500  2.5860480E-02  3.6011059E-02  3.3143742E-02
   13.5000  2.6153589E-02  3.3713991E-02  3.3649269E-02
   13.7500  2.6506896E-02  3.1629245E-02  3.4119592E-02
   14.0000  2.6927366E-02  2.9762464E-02  3.4555774E-02
   14.2500  2.7419306E-02  2.8110224E-02  3.4967989E-02
   14.5000  2.7984527E-02  2.6663066E-02  3.5372469E-02
   14.7500  2.8623335E-02  2.5407651E-02  3.5787416E-02
   15.0000  2.9334866E-02  2.4328480E-02  3.6229174E-02
   15.2500  3.0116719E-02  2.3409263E-02  3.6709231E-02
   15.5000  3.0964350E-02  2.2633913E-02  3.7232154E-02
   15.7500  3.1870547E-02  2.1987211E-02  3.7794369E-02
   16.0000  3.2825056E-02  2.1455179E-02  3.8383718E-02
   16.2500  3.3814415E-02  2.1025270E-02  3.8979850E-02
   16.5000  3.4822056E-02  2.0686421E-02  3.9555514E-02
   16.7500  3.5828736E-02  2.0429037E-02  4.0078878E-02
   17.0000  3.6813373E-02  2.0244916E-02  4.0516795E-02
   17.2500  3.7754282E-02  2.0127149E-02  4.0838711E-02
   17.5000  3.8630724E-02  2.0069978E-02  4.1020610E-02
   17.7500  3.9424572E-02  2.0068645E-02  4.1048249E-02
   18.0000  4.0121828E-02  2.0119200E-02  4.0918954E-02
   18.2500  4.0713726E-02  2.0218321E-02  4.0641603E-02
   18.5000  4.1197238E-02  2.0363123E-02  4.0234859E-02
   18.7500  4.1574924E-02  2.0551011E-02  3.9724163E-02
   19.0000  4.1854182E-02  2.0779581E-02  3.9138202E-02
   19.2500  4.2046065E-02  2.1046582E-02  3.8505539E-02
   19.5000  4.2163866E-02  2.1349927E-02  3.7851914E-02
   19.7500  4.2221720E-02  2.1687678E-02  3.7198534E-02
   20.0000  4.2233508E-02  2.2057883E-02  3.6561574E-02
   21.0000  4.2058419E-02  2.3810381E-02  3.4371571E-02
   22.0000  4.1848244E-02  2.5864878E-02  3.2904097E-02
   23.0000  4.1574382E-02  2.8055646E-02  3.2018090E-02
   24.0000  4.0921630E-02  3.0187251E-02  3.1463911E-02
   25.0000  3.9627521E-02  3.2033033E-02  3.1034346E-02
   26.0000  3.7676398E-02  3.3395227E-02  3.0604969E-02
   27.0000  3.5309292E-02  3.4179391E-02  3.0134915E-02
   28.0000  3.2899588E-02  3.4419321E-02  2.9640802E-02
   29.0000  3.0775812E-02  3.4240405E-02  2.9159254E-02
   30.0000  2.9103244E-02  3.3795873E-02  2.8723373E-02
   31.0000  2.7886630E-02  3.3213359E-02  2.8358954E-02
   32.0000  2.7043824E-02  3.2571533E-02  2.8081773E-02
   33.0000  2.6466952E-02  3.1910056E-02  2.7889655E-02
   34.0000  2.6054357E-02  3.1245374E-02  2.7760664E-02
   35.0000  2.5734994E-02  3.0567315E-02  2.7662418E-02
   36.0000  2.5460872E-02  2.9859336E-02  2.7563481E-02
   37.0000  2.5194762E-02  2.9119448E-02  2.7441111E-02
   38.0000  2.4912183E-02  2.8369775E-02  2.7286514E-02
   39.0000  2.4615137E-02  2.7663161E-02  2.7110412E-02
   40.0000  2.4343538E-02  2.7080770E-02  2.6946382E-02
