    Energy   (100,001)      (010,001)      (001,110)   
  -25.0000  1.6374904E-04  1.7811706E-04  1.7365433E-04
  -24.0000  1.6982891E-04  1.8518060E-04  1.8012594E-04
  -23.0000  1.7632459E-04  1.9277075E-04  1.8705019E-04
  -22.0000  1.8327842E-04  2.0094665E-04  1.9447473E-04
  -21.0000  1.9073858E-04  2.0977645E-04  2.0245401E-04
  -20.0000  1.9876008E-04  2.1933907E-04  2.1105058E-04
  -19.0000  2.0740606E-04  2.2972643E-04  2.2033658E-04
  -18.0000  2.1674927E-04  2.4104613E-04  2.3039567E-04
  -17.0000  2.2687399E-04  2.5342494E-04  2.4132542E-04
  -16.0000  2.3787839E-04  2.6701320E-04  2.5324027E-04
  -15.0000  2.4987749E-04  2.8199047E-04  2.6627533E-04
  -14.0000  2.6300688E-04  2.9857289E-04  2.8059127E-04
  -13.0000  2.7742754E-04  3.1702280E-04  2.9638059E-04
  -12.0000  2.9333206E-04  3.3766164E-04  3.1387593E-04
  -11.0000  3.1095273E-04  3.6088721E-04  3.3336107E-04
  -10.0000  3.3057234E-04  3.8719748E-04  3.5518578E-04
  -9.00000  3.5253874E-04  4.1722357E-04  3.7978622E-04
  -8.00000  3.7728468E-04  4.5177668E-04  4.0771348E-04
  -7.00000  4.0535569E-04  4.9191605E-04  4.3967438E-04
  -6.00000  4.3744970E-04  5.3904986E-04  4.7659119E-04
  -5.00000  4.7447523E-04  5.9508920E-04  5.1969182E-04
  -4.00000  5.1763911E-04  6.6269071E-04  5.7065052E-04
  -3.00000  5.6858385E-04  7.4565376E-04  6.3181702E-04
  -2.00000  6.2961259E-04  8.4960104E-04  7.0660910E-04
  -1.00000  7.0407864E-04  9.8321302E-04  8.0023074E-04
   0.00000  7.9711261E-04  1.1606357E-03  9.2110243E-04
   1.00000  9.1712396E-04  1.4066566E-03  1.0840593E-03
   2.00000  1.0793923E-03  1.7694786E-03  1.3187758E-03
   3.00000  1.3168381E-03  2.3596770E-03  1.6981289E-03
   4.00000  1.7266521E-03  3.5183033E-03  2.4775839E-03
   5.00000  2.7080107E-03  6.6799093E-03  4.8431494E-03
   5.20000  3.0072799E-03  7.6935796E-03  5.5565790E-03
   5.40000  3.3151151E-03  8.7480094E-03  6.2036954E-03
   5.60000  3.6276795E-03  9.8257491E-03  6.7391537E-03
   5.80000  3.9500391E-03  1.0944811E-02  7.1641799E-03
   6.00000  4.2886078E-03  1.2136458E-02  7.5064387E-03
   6.20000  4.6487979E-03  1.3435242E-02  7.8069673E-03
   6.40000  5.0356891E-03  1.4877077E-02  8.1105123E-03
   6.60000  5.4550042E-03  1.6499042E-02  8.4577411E-03
   6.80000  5.9134753E-03  1.8338733E-02  8.8814392E-03
   7.00000  6.4186211E-03  2.0432538E-02  9.4065482E-03
   7.20000  6.9780881E-03  2.2812004E-02  1.0051776E-02
   7.40000  7.5985002E-03  2.5497146E-02  1.0830744E-02
   7.60000  8.2836141E-03  2.8486199E-02  1.1751796E-02
   7.80000  9.0317840E-03  3.1743568E-02  1.2816692E-02
   8.00000  9.8335934E-03  3.5192463E-02  1.4019490E-02
   8.20000  1.0671935E-02  3.8723665E-02  1.5348084E-02
   8.40000  1.1527307E-02  4.2228382E-02  1.6790417E-02
   8.60000  1.2388081E-02  4.5642507E-02  1.8343617E-02
   8.80000  1.3259749E-02  4.8965526E-02  2.0019108E-02
   9.00000  1.4165634E-02  5.2226831E-02  2.1837440E-02
   9.20000  1.5138468E-02  5.5418038E-02  2.3814789E-02
   9.40000  1.6209568E-02  5.8439558E-02  2.5949206E-02
   9.60000  1.7401761E-02  6.1093788E-02  2.8212226E-02
   9.80000  1.8727072E-02  6.3125139E-02  3.0546103E-02
   10.0000  2.0186888E-02  6.4286877E-02  3.2864902E-02
   10.2500  2.2186628E-02  6.4265893E-02  3.5574543E-02
   10.5000  2.4344439E-02  6.2558723E-02  3.7857111E-02
   10.7500  2.6600499E-02  5.9406629E-02  3.9519990E-02
   11.0000  2.8872595E-02  5.5267289E-02  4.0477505E-02
   11.2500  3.1061052E-02  5.0658774E-02  4.0778746E-02
   11.5000  3.3065277E-02  4.6025176E-02  4.0576850E-02
   11.7500  3.4804375E-02  4.1671088E-02  4.0064912E-02
   12.0000  3.6231905E-02  3.7760401E-02  3.9418493E-02
   12.2500  3.7340494E-02  3.4350681E-02  3.8764520E-02
   12.5000  3.8155824E-02  3.1433856E-02  3.8176060E-02
   12.7500  3.8724335E-02  2.8968045E-02  3.7682649E-02
   13.0000  3.9100771E-02  2.6898507E-02  3.7285714E-02
   13.2500  3.9339028E-02  2.5169650E-02  3.6972918E-02
   13.5000  3.9487544E-02  2.3730396E-02  3.6728847E-02
   13.7500  3.9587769E-02  2.2535884E-02  3.6541246E-02
   14.0000  3.9673339E-02  2.1547859E-02  3.6402912E-02
   14.2500  3.9769446E-02  2.0734480E-02  3.6310702E-02
   14.5000  3.9892899E-02  2.0069638E-02  3.6263723E-02
   14.7500  4.0052579E-02  1.9532134E-02  3.6261806E-02
   15.0000  4.0249933E-02  1.9104941E-02  3.6304030E-02
   15.2500  4.0479561E-02  1.8774490E-02  3.6386998E-02
   15.5000  4.0730017E-02  1.8529968E-02  3.6503370E-02
   15.7500  4.0984823E-02  1.8362712E-02  3.6641308E-02
   16.0000  4.1223814E-02  1.8265709E-02  3.6784974E-02
   16.2500  4.1424876E-02  1.8233189E-02  3.6915911E-02
   16.5000  4.1566098E-02  1.8260303E-02  3.7015047E-02
   16.7500  4.1628186E-02  1.8342866E-02  3.7064951E-02
   17.0000  4.1596864E-02  1.8477173E-02  3.7051957E-02
   17.2500  4.1464870E-02  1.8659857E-02  3.6967744E-02
   17.5000  4.1233133E-02  1.8887808E-02  3.6810092E-02
   17.7500  4.0910846E-02  1.9158109E-02  3.6582708E-02
   18.0000  4.0514368E-02  1.9468006E-02  3.6294253E-02
   18.2500  4.0065174E-02  1.9814895E-02  3.5956831E-02
   18.5000  3.9587282E-02  2.0196313E-02  3.5584308E-02
   18.7500  3.9104652E-02  2.0609953E-02  3.5190761E-02
   19.0000  3.8638985E-02  2.1053688E-02  3.4789236E-02
   19.2500  3.8208185E-02  2.1525619E-02  3.4390902E-02
   19.5000  3.7825521E-02  2.2024127E-02  3.4004567E-02
   19.7500  3.7499438E-02  2.2547840E-02  3.3636540E-02
   20.0000  3.7233890E-02  2.3095376E-02  3.3290828E-02
   21.0000  3.6745304E-02  2.5473356E-02  3.2160611E-02
   22.0000  3.6889992E-02  2.7992759E-02  3.1397749E-02
   23.0000  3.7067180E-02  3.0405642E-02  3.0844686E-02
   24.0000  3.6623557E-02  3.2416124E-02  3.0339897E-02
   25.0000  3.5236617E-02  3.3767433E-02  2.9785275E-02
   26.0000  3.3168692E-02  3.4350999E-02  2.9163010E-02
   27.0000  3.1007088E-02  3.4236182E-02  2.8525325E-02
   28.0000  2.9160725E-02  3.3602094E-02  2.7948100E-02
   29.0000  2.7747984E-02  3.2648712E-02  2.7497481E-02
   30.0000  2.6719092E-02  3.1545726E-02  2.7200767E-02
   31.0000  2.5964906E-02  3.0408128E-02  2.7031878E-02
   32.0000  2.5372722E-02  2.9294037E-02  2.6925659E-02
   33.0000  2.4847793E-02  2.8220925E-02  2.6806348E-02
   34.0000  2.4320639E-02  2.7186801E-02  2.6610006E-02
   35.0000  2.3751246E-02  2.6186887E-02  2.6294417E-02
   36.0000  2.3131914E-02  2.5223203E-02  2.5841337E-02
   37.0000  2.2485267E-02  2.4308294E-02  2.5258494E-02
   38.0000  2.1855044E-02  2.3466024E-02  2.4585340E-02
   39.0000  2.1293534E-02  2.2732990E-02  2.3900460E-02
   40.0000  2.0849192E-02  2.2156136E-02  2.3315034E-02
