    Energy   (100,001)      (010,001)      (001,110)   
  -25.0000  1.6798536E-04  1.8472227E-04  1.8401940E-04
  -24.0000  1.7411257E-04  1.9171357E-04  1.9075876E-04
  -23.0000  1.8065496E-04  1.9920873E-04  1.9796791E-04
  -22.0000  1.8765468E-04  2.0726287E-04  2.0569656E-04
  -21.0000  1.9515966E-04  2.1593930E-04  2.1400165E-04
  -20.0000  2.0322468E-04  2.2531117E-04  2.2294862E-04
  -19.0000  2.1191260E-04  2.3546337E-04  2.3261314E-04
  -18.0000  2.2129589E-04  2.4649496E-04  2.4308311E-04
  -17.0000  2.3145856E-04  2.5852225E-04  2.5446128E-04
  -16.0000  2.4249854E-04  2.7168268E-04  2.6686847E-04
  -15.0000  2.5453064E-04  2.8613976E-04  2.8044775E-04
  -14.0000  2.6769037E-04  3.0208952E-04  2.9536978E-04
  -13.0000  2.8213885E-04  3.1976891E-04  3.1183979E-04
  -12.0000  2.9806913E-04  3.3946689E-04  3.3010680E-04
  -11.0000  3.1571454E-04  3.6153941E-04  3.5047600E-04
  -10.0000  3.3535989E-04  3.8642973E-04  3.7332549E-04
  -9.00000  3.5735653E-04  4.1469661E-04  3.9912959E-04
  -8.00000  3.8214329E-04  4.4705405E-04  4.2849159E-04
  -7.00000  4.1027594E-04  4.8442858E-04  4.6219113E-04
  -6.00000  4.4246973E-04  5.2804379E-04  5.0125423E-04
  -5.00000  4.7966260E-04  5.7954849E-04  5.4706005E-04
  -4.00000  5.2311221E-04  6.4121754E-04  6.0150920E-04
  -3.00000  5.7455105E-04  7.1627856E-04  6.6730038E-04
  -2.00000  6.3644714E-04  8.0946919E-04  7.4840784E-04
  -1.00000  7.1247061E-04  9.2804427E-04  8.5095797E-04
   0.00000  8.0840085E-04  1.0837390E-03  9.8496999E-04
   1.00000  9.3409992E-04  1.2970066E-03  1.1681930E-03
   2.00000  1.1085454E-03  1.6076031E-03  1.4358945E-03
   3.00000  1.3761218E-03  2.1076632E-03  1.8719720E-03
   4.00000  1.8830324E-03  3.0901281E-03  2.7494253E-03
   5.00000  3.2886424E-03  5.8208281E-03  5.2622698E-03
   5.20000  3.7278924E-03  6.6764380E-03  6.0616348E-03
   5.40000  4.1590017E-03  7.5329778E-03  6.8717874E-03
   5.60000  4.5610334E-03  8.3661854E-03  7.6775462E-03
   5.80000  4.9325579E-03  9.1888927E-03  8.5006191E-03
   6.00000  5.2816085E-03  1.0028273E-02  9.3773449E-03
   6.20000  5.6196942E-03  1.0914122E-02  1.0346757E-02
   6.40000  5.9589112E-03  1.1875216E-02  1.1445772E-02
   6.60000  6.3101963E-03  1.2938093E-02  1.2704642E-02
   6.80000  6.6822167E-03  1.4126026E-02  1.4138781E-02
   7.00000  7.0808491E-03  1.5457607E-02  1.5735861E-02
   7.20000  7.5094639E-03  1.6945442E-02  1.7442241E-02
   7.40000  7.9704313E-03  1.8596688E-02  1.9160392E-02
   7.60000  8.4677272E-03  2.0417295E-02  2.0770817E-02
   7.80000  9.0092409E-03  2.2418843E-02  2.2175951E-02
   8.00000  9.6069846E-03  2.4623244E-02  2.3337890E-02
   8.20000  1.0274905E-02  2.7061148E-02  2.4280465E-02
   8.40000  1.1025850E-02  2.9764369E-02  2.5057429E-02
   8.60000  1.1869406E-02  3.2755533E-02  2.5714378E-02
   8.80000  1.2811165E-02  3.6037423E-02  2.6267691E-02
   9.00000  1.3853216E-02  3.9582967E-02  2.6706244E-02
   9.20000  1.4995507E-02  4.3326703E-02  2.7009848E-02
   9.40000  1.6237451E-02  4.7159362E-02  2.7172923E-02
   9.60000  1.7578753E-02  5.0927692E-02  2.7220193E-02
   9.80000  1.9018503E-02  5.4441345E-02  2.7206392E-02
   10.0000  2.0552442E-02  5.7486440E-02  2.7201742E-02
   10.2500  2.2584294E-02  6.0303332E-02  2.7306186E-02
   10.5000  2.4701138E-02  6.1692923E-02  2.7604355E-02
   10.7500  2.6831590E-02  6.1492364E-02  2.8115004E-02
   11.0000  2.8880472E-02  5.9805728E-02  2.8813056E-02
   11.2500  3.0745171E-02  5.6962795E-02  2.9648183E-02
   11.5000  3.2338798E-02  5.3396775E-02  3.0557846E-02
   11.7500  3.3609641E-02  4.9520919E-02  3.1478253E-02
   12.0000  3.4550634E-02  4.5654288E-02  3.2352711E-02
   12.2500  3.5195706E-02  4.2002381E-02  3.3137042E-02
   12.5000  3.5604997E-02  3.8673891E-02  3.3802996E-02
   12.7500  3.5847409E-02  3.5709654E-02  3.4338272E-02
   13.0000  3.5986891E-02  3.3109313E-02  3.4743733E-02
   13.2500  3.6074548E-02  3.0850542E-02  3.5030622E-02
   13.5000  3.6146487E-02  2.8901057E-02  3.5218208E-02
   13.7500  3.6225267E-02  2.7225629E-02  3.5331094E-02
   14.0000  3.6322712E-02  2.5789976E-02  3.5396291E-02
   14.2500  3.6442836E-02  2.4562724E-02  3.5440527E-02
   14.5000  3.6584384E-02  2.3516196E-02  3.5488106E-02
   14.7500  3.6742783E-02  2.2626556E-02  3.5559338E-02
   15.0000  3.6911528E-02  2.1873600E-02  3.5669495E-02
   15.2500  3.7083097E-02  2.1240377E-02  3.5828155E-02
   15.5000  3.7249579E-02  2.0712748E-02  3.6038859E-02
   15.7500  3.7403168E-02  2.0278925E-02  3.6299012E-02
   16.0000  3.7536646E-02  1.9929059E-02  3.6600050E-02
   16.2500  3.7643930E-02  1.9654870E-02  3.6927906E-02
   16.5000  3.7720645E-02  1.9449337E-02  3.7263880E-02
   16.7500  3.7764676E-02  1.9306445E-02  3.7585990E-02
   17.0000  3.7776556E-02  1.9220990E-02  3.7870854E-02
   17.2500  3.7759605E-02  1.9188417E-02  3.8095982E-02
   17.5000  3.7719746E-02  1.9204714E-02  3.8242236E-02
   17.7500  3.7664992E-02  1.9266330E-02  3.8296045E-02
   18.0000  3.7604696E-02  1.9370126E-02  3.8250944E-02
   18.2500  3.7548671E-02  1.9513347E-02  3.8108120E-02
   18.5000  3.7506337E-02  1.9693605E-02  3.7875847E-02
   18.7500  3.7486016E-02  1.9908877E-02  3.7567994E-02
   19.0000  3.7494433E-02  2.0157501E-02  3.7201928E-02
   19.2500  3.7536457E-02  2.0438197E-02  3.6796249E-02
   19.5000  3.7615036E-02  2.0750071E-02  3.6368732E-02
   19.7500  3.7731226E-02  2.1092570E-02  3.5934795E-02
   20.0000  3.7884203E-02  2.1465286E-02  3.5506764E-02
   21.0000  3.8785297E-02  2.3240223E-02  3.4008411E-02
   22.0000  3.9828883E-02  2.5409723E-02  3.2968409E-02
   23.0000  4.0438746E-02  2.7854762E-02  3.2249725E-02
   24.0000  4.0028955E-02  3.0358414E-02  3.1635281E-02
   25.0000  3.8391100E-02  3.2604007E-02  3.0983910E-02
   26.0000  3.5902757E-02  3.4273426E-02  3.0257361E-02
   27.0000  3.3182009E-02  3.5225523E-02  2.9482724E-02
   28.0000  3.0715120E-02  3.5503753E-02  2.8723915E-02
   29.0000  2.8732860E-02  3.5259632E-02  2.8056713E-02
   30.0000  2.7264071E-02  3.4672390E-02  2.7539893E-02
   31.0000  2.6231612E-02  3.3891308E-02  2.7195255E-02
   32.0000  2.5522068E-02  3.3014101E-02  2.7004560E-02
   33.0000  2.5022540E-02  3.2091169E-02  2.6921108E-02
   34.0000  2.4635594E-02  3.1140295E-02  2.6886254E-02
   35.0000  2.4284132E-02  3.0162703E-02  2.6842212E-02
   36.0000  2.3914047E-02  2.9157374E-02  2.6739974E-02
   37.0000  2.3498380E-02  2.8133470E-02  2.6545855E-02
   38.0000  2.3043228E-02  2.7122038E-02  2.6251197E-02
   39.0000  2.2590356E-02  2.6187215E-02  2.5888371E-02
   40.0000  2.2205046E-02  2.5425049E-02  2.5540575E-02
