    Energy   (100,001)      (010,001)      (001,110)   
  -25.0000  1.7055178E-04  1.8700640E-04  1.8299203E-04
  -24.0000  1.7639980E-04  1.9393410E-04  1.8935010E-04
  -23.0000  1.8262422E-04  2.0135362E-04  1.9613062E-04
  -22.0000  1.8926156E-04  2.0931811E-04  2.0337639E-04
  -21.0000  1.9635315E-04  2.1788860E-04  2.1113613E-04
  -20.0000  2.0394601E-04  2.2713542E-04  2.1946559E-04
  -19.0000  2.1209377E-04  2.3714014E-04  2.2842881E-04
  -18.0000  2.2085795E-04  2.4799777E-04  2.3809980E-04
  -17.0000  2.3030942E-04  2.5981970E-04  2.4856448E-04
  -16.0000  2.4053027E-04  2.7273732E-04  2.5992325E-04
  -15.0000  2.5161614E-04  2.8690671E-04  2.7229411E-04
  -14.0000  2.6367913E-04  3.0251459E-04  2.8581683E-04
  -13.0000  2.7685154E-04  3.1978625E-04  3.0065811E-04
  -12.0000  2.9129067E-04  3.3899591E-04  3.1701858E-04
  -11.0000  3.0718511E-04  3.6048059E-04  3.3514187E-04
  -10.0000  3.2476305E-04  3.8465906E-04  3.5532701E-04
  -9.00000  3.4430346E-04  4.1205798E-04  3.7794529E-04
  -8.00000  3.6615135E-04  4.4334870E-04  4.0346395E-04
  -7.00000  3.9073922E-04  4.7940021E-04  4.3247992E-04
  -6.00000  4.1861764E-04  5.2135712E-04  4.6576932E-04
  -5.00000  4.5050026E-04  5.7075779E-04  5.0436212E-04
  -4.00000  4.8733244E-04  6.2971919E-04  5.4965890E-04
  -3.00000  5.3039986E-04  7.0123750E-04  6.0362103E-04
  -2.00000  5.8150955E-04  7.8970112E-04  6.6909686E-04
  -1.00000  6.4331138E-04  9.0181950E-04  7.5041796E-04
   0.00000  7.1991841E-04  1.0484403E-03  8.5458231E-04
   1.00000  8.1824650E-04  1.2484972E-03  9.9387415E-04
   2.00000  9.5140650E-04  1.5389735E-03  1.1926268E-03
   3.00000  1.1496080E-03  2.0065158E-03  1.5091641E-03
   4.00000  1.5110002E-03  2.9321094E-03  2.1376856E-03
   5.00000  2.4692576E-03  5.5444422E-03  3.9522479E-03
   5.20000  2.7618021E-03  6.3533932E-03  4.5299049E-03
   5.40000  3.0498287E-03  7.1501665E-03  5.1082069E-03
   5.60000  3.3248336E-03  7.9130045E-03  5.6693584E-03
   5.80000  3.5898513E-03  8.6570042E-03  6.2212207E-03
   6.00000  3.8507892E-03  9.4079921E-03  6.7791349E-03
   6.20000  4.1131908E-03  1.0190474E-02  7.3551221E-03
   6.40000  4.3820369E-03  1.1025576E-02  7.9546149E-03
   6.60000  4.6620215E-03  1.1931801E-02  8.5771123E-03
   6.80000  4.9576718E-03  1.2925951E-02  9.2184893E-03
   7.00000  5.2733864E-03  1.4023777E-02  9.8735898E-03
   7.20000  5.6134555E-03  1.5240375E-02  1.0538361E-02
   7.40000  5.9819947E-03  1.6590375E-02  1.1211285E-02
   7.60000  6.3827518E-03  1.8088021E-02  1.1894117E-02
   7.80000  6.8188200E-03  1.9747254E-02  1.2592011E-02
   8.00000  7.2923209E-03  2.1581870E-02  1.3312990E-02
   8.20000  7.8041118E-03  2.3605625E-02  1.4066647E-02
   8.40000  8.3535451E-03  2.5831855E-02  1.4861918E-02
   8.60000  8.9383125E-03  2.8271922E-02  1.5704164E-02
   8.80000  9.5544187E-03  3.0931667E-02  1.6592218E-02
   9.00000  1.0196300E-02  3.3805256E-02  1.7516084E-02
   9.20000  1.0857175E-02  3.6866708E-02  1.8456162E-02
   9.40000  1.1529828E-02  4.0061038E-02  1.9385082E-02
   9.60000  1.2207985E-02  4.3298623E-02  2.0272618E-02
   9.80000  1.2888074E-02  4.6456870E-02  2.1092479E-02
   10.0000  1.3570661E-02  4.9391278E-02  2.1828153E-02
   10.2500  1.4435243E-02  5.2520734E-02  2.2623520E-02
   10.5000  1.5327544E-02  5.4828294E-02  2.3294002E-02
   10.7500  1.6264157E-02  5.6169087E-02  2.3866611E-02
   11.0000  1.7255775E-02  5.6510275E-02  2.4373109E-02
   11.2500  1.8303955E-02  5.5910021E-02  2.4845988E-02
   11.5000  1.9401265E-02  5.4485618E-02  2.5315830E-02
   11.7500  2.0532421E-02  5.2390587E-02  2.5806566E-02
   12.0000  2.1676420E-02  4.9800947E-02  2.6331793E-02
   12.2500  2.2810963E-02  4.6900630E-02  2.6895788E-02
   12.5000  2.3917022E-02  4.3863524E-02  2.7497902E-02
   12.7500  2.4981081E-02  4.0837890E-02  2.8135999E-02
   13.0000  2.5995143E-02  3.7938377E-02  2.8805900E-02
   13.2500  2.6956299E-02  3.5244559E-02  2.9499885E-02
   13.5000  2.7866770E-02  3.2803158E-02  3.0208296E-02
   13.7500  2.8733591E-02  3.0633410E-02  3.0922544E-02
   14.0000  2.9567351E-02  2.8734439E-02  3.1636934E-02
   14.2500  3.0380413E-02  2.7092552E-02  3.2348932E-02
   14.5000  3.1185259E-02  2.5687088E-02  3.3058378E-02
   14.7500  3.1993158E-02  2.4494551E-02  3.3766338E-02
   15.0000  3.2813115E-02  2.3491260E-02  3.4474103E-02
   15.2500  3.3651104E-02  2.2654898E-02  3.5182416E-02
   15.5000  3.4509561E-02  2.1965289E-02  3.5890852E-02
   15.7500  3.5387100E-02  2.1404687E-02  3.6597242E-02
   16.0000  3.6278436E-02  2.0957754E-02  3.7297153E-02
   16.2500  3.7174518E-02  2.0611385E-02  3.7983480E-02
   16.5000  3.8062925E-02  2.0354454E-02  3.8646288E-02
   16.7500  3.8928557E-02  2.0177545E-02  3.9273049E-02
   17.0000  3.9754642E-02  2.0072687E-02  3.9849361E-02
   17.2500  4.0524032E-02  2.0033108E-02  4.0360125E-02
   17.5000  4.1220676E-02  2.0053019E-02  4.0791041E-02
   17.7500  4.1831125E-02  2.0127418E-02  4.1130174E-02
   18.0000  4.2345845E-02  2.0251922E-02  4.1369294E-02
   18.2500  4.2760155E-02  2.0422632E-02  4.1504728E-02
   18.5000  4.3074628E-02  2.0636026E-02  4.1537587E-02
   18.7500  4.3294883E-02  2.0888896E-02  4.1473364E-02
   19.0000  4.3430808E-02  2.1178326E-02  4.1321012E-02
   19.2500  4.3495321E-02  2.1501704E-02  4.1091732E-02
   19.5000  4.3502869E-02  2.1856774E-02  4.0797682E-02
   19.7500  4.3467916E-02  2.2241615E-02  4.0450893E-02
   20.0000  4.3403738E-02  2.2654465E-02  4.0062688E-02
   21.0000  4.3050439E-02  2.4539438E-02  3.8299259E-02
   22.0000  4.2702344E-02  2.6678559E-02  3.6539022E-02
   23.0000  4.2125207E-02  2.8907005E-02  3.4973857E-02
   24.0000  4.0970104E-02  3.1009042E-02  3.3631039E-02
   25.0000  3.9155948E-02  3.2741364E-02  3.2481921E-02
   26.0000  3.6915007E-02  3.3914541E-02  3.1484277E-02
   27.0000  3.4596113E-02  3.4460777E-02  3.0600729E-02
   28.0000  3.2467929E-02  3.4439349E-02  2.9812188E-02
   29.0000  3.0659683E-02  3.3989049E-02  2.9123085E-02
   30.0000  2.9201610E-02  3.3268288E-02  2.8551889E-02
   31.0000  2.8077871E-02  3.2421344E-02  2.8114767E-02
   32.0000  2.7249869E-02  3.1560441E-02  2.7811510E-02
   33.0000  2.6659891E-02  3.0739133E-02  2.7618691E-02
   34.0000  2.6245910E-02  2.9968627E-02  2.7502405E-02
   35.0000  2.5950165E-02  2.9241864E-02  2.7428988E-02
   36.0000  2.5719140E-02  2.8547328E-02  2.7368185E-02
   37.0000  2.5504892E-02  2.7879964E-02  2.7295232E-02
   38.0000  2.5272720E-02  2.7248886E-02  2.7194781E-02
   39.0000  2.5016980E-02  2.6682199E-02  2.7068595E-02
   40.0000  2.4774416E-02  2.6226233E-02  2.6942836E-02
