    Energy   (100,001)      (010,001)      (001,110)   
  -25.0000  1.6692717E-04  1.7782547E-04  1.7310727E-04
  -24.0000  1.7324836E-04  1.8473007E-04  1.7970540E-04
  -23.0000  1.8001328E-04  1.9214020E-04  1.8677340E-04
  -22.0000  1.8726852E-04  2.0011170E-04  1.9436148E-04
  -21.0000  1.9506729E-04  2.0870883E-04  2.0252711E-04
  -20.0000  2.0347064E-04  2.1800586E-04  2.1133641E-04
  -19.0000  2.1254895E-04  2.2808906E-04  2.2086580E-04
  -18.0000  2.2238373E-04  2.3905923E-04  2.3120405E-04
  -17.0000  2.3306997E-04  2.5103485E-04  2.4245491E-04
  -16.0000  2.4471897E-04  2.6415606E-04  2.5474035E-04
  -15.0000  2.5746197E-04  2.7858979E-04  2.6820471E-04
  -14.0000  2.7145482E-04  2.9453642E-04  2.8302004E-04
  -13.0000  2.8688404E-04  3.1223846E-04  2.9939308E-04
  -12.0000  3.0397467E-04  3.3199206E-04  3.1757436E-04
  -11.0000  3.2300075E-04  3.5416257E-04  3.3787051E-04
  -10.0000  3.4429951E-04  3.7920565E-04  3.6066074E-04
  -9.00000  3.6829062E-04  4.0769670E-04  3.8641975E-04
  -8.00000  3.9550323E-04  4.4037229E-04  4.1574987E-04
  -7.00000  4.2661441E-04  4.7819024E-04  4.4942715E-04
  -6.00000  4.6250531E-04  5.2241824E-04  4.8846940E-04
  -5.00000  5.0434554E-04  5.7476889E-04  5.3423926E-04
  -4.00000  5.5372428E-04  6.3761173E-04  5.8860596E-04
  -3.00000  6.1286238E-04  7.1431980E-04  6.5420967E-04
  -2.00000  6.8497271E-04  8.0986314E-04  7.3491551E-04
  -1.00000  7.7491191E-04  9.3188731E-04  8.3664256E-04
   0.00000  8.9045735E-04  1.0928292E-03  9.6900223E-04
   1.00000  1.0450951E-03  1.3145204E-03  1.1488930E-03
   2.00000  1.2651132E-03  1.6398034E-03  1.4096288E-03
   3.00000  1.6123080E-03  2.1693145E-03  1.8297732E-03
   4.00000  2.2884068E-03  3.2292687E-03  2.6619154E-03
   5.00000  4.1927422E-03  6.2433479E-03  5.0131190E-03
   5.20000  4.7982502E-03  7.1789055E-03  5.7820359E-03
   5.40000  5.4061345E-03  8.1017435E-03  6.5876596E-03
   5.60000  5.9930720E-03  8.9861403E-03  7.4159289E-03
   5.80000  6.5597252E-03  9.8473860E-03  8.2762465E-03
   6.00000  7.1170929E-03  1.0712855E-02  9.1831863E-03
   6.20000  7.6794935E-03  1.1610059E-02  1.0149660E-02
   6.40000  8.2621754E-03  1.2565542E-02  1.1188030E-02
   6.60000  8.8798102E-03  1.3605958E-02  1.2311551E-02
   6.80000  9.5444670E-03  1.4758449E-02  1.3530566E-02
   7.00000  1.0263037E-02  1.6050218E-02  1.4840735E-02
   7.20000  1.1035123E-02  1.7508150E-02  1.6206334E-02
   7.40000  1.1853370E-02  1.9159505E-02  1.7550031E-02
   7.60000  1.2708146E-02  2.1034072E-02  1.8765119E-02
   7.80000  1.3595771E-02  2.3166594E-02  1.9755294E-02
   8.00000  1.4525339E-02  2.5596870E-02  2.0480834E-02
   8.20000  1.5518813E-02  2.8365898E-02  2.0977013E-02
   8.40000  1.6604236E-02  3.1508705E-02  2.1333033E-02
   8.60000  1.7806565E-02  3.5045038E-02  2.1652601E-02
   8.80000  1.9140133E-02  3.8966902E-02  2.2023198E-02
   9.00000  2.0603926E-02  4.3220442E-02  2.2503950E-02
   9.20000  2.2179710E-02  4.7683868E-02  2.3126920E-02
   9.40000  2.3833132E-02  5.2150421E-02  2.3903367E-02
   9.60000  2.5517917E-02  5.6329000E-02  2.4830108E-02
   9.80000  2.7182416E-02  5.9874418E-02  2.5894590E-02
   10.0000  2.8776430E-02  6.2450223E-02  2.7078836E-02
   10.2500  3.0603303E-02  6.3942448E-02  2.8695470E-02
   10.5000  3.2183364E-02  6.3402965E-02  3.0416306E-02
   10.7500  3.3472084E-02  6.1097303E-02  3.2174874E-02
   11.0000  3.4453335E-02  5.7556251E-02  3.3894655E-02
   11.2500  3.5141350E-02  5.3365057E-02  3.5503102E-02
   11.5000  3.5576465E-02  4.9009016E-02  3.6941501E-02
   11.7500  3.5815637E-02  4.4816496E-02  3.8169626E-02
   12.0000  3.5921792E-02  4.0971345E-02  3.9167239E-02
   12.2500  3.5955344E-02  3.7552432E-02  3.9933368E-02
   12.5000  3.5968762E-02  3.4573238E-02  4.0483869E-02
   12.7500  3.6003194E-02  3.2011264E-02  4.0847664E-02
   13.0000  3.6086722E-02  2.9826996E-02  4.1061554E-02
   13.2500  3.6235012E-02  2.7975398E-02  4.1164242E-02
   13.5000  3.6453604E-02  2.6412270E-02  4.1191614E-02
   13.7500  3.6739898E-02  2.5097299E-02  4.1174276E-02
   14.0000  3.7084463E-02  2.3995201E-02  4.1136553E-02
   14.2500  3.7472233E-02  2.3075872E-02  4.1096119E-02
   14.5000  3.7883820E-02  2.2314006E-02  4.1064024E-02
   14.7500  3.8296954E-02  2.1688510E-02  4.1045097E-02
   15.0000  3.8688044E-02  2.1181850E-02  4.1038661E-02
   15.2500  3.9033818E-02  2.0779446E-02  4.1039480E-02
   15.5000  3.9313000E-02  2.0469130E-02  4.1038882E-02
   15.7500  3.9507894E-02  2.0240703E-02  4.1026008E-02
   16.0000  3.9605740E-02  2.0085567E-02  4.0989091E-02
   16.2500  3.9599674E-02  1.9996443E-02  4.0916719E-02
   16.5000  3.9489175E-02  1.9967156E-02  4.0798960E-02
   16.7500  3.9279917E-02  1.9992455E-02  4.0628268E-02
   17.0000  3.8983058E-02  2.0067867E-02  4.0400084E-02
   17.2500  3.8614082E-02  2.0189562E-02  4.0113088E-02
   17.5000  3.8191361E-02  2.0354225E-02  3.9769106E-02
   17.7500  3.7734643E-02  2.0558937E-02  3.9372715E-02
   18.0000  3.7263639E-02  2.0801064E-02  3.8930644E-02
   18.2500  3.6796849E-02  2.1078160E-02  3.8451067E-02
   18.5000  3.6350690E-02  2.1387891E-02  3.7942881E-02
   18.7500  3.5938947E-02  2.1727993E-02  3.7415047E-02
   19.0000  3.5572500E-02  2.2096266E-02  3.6876025E-02
   19.2500  3.5259276E-02  2.2490614E-02  3.6333311E-02
   19.5000  3.5004342E-02  2.2909107E-02  3.5793109E-02
   19.7500  3.4810074E-02  2.3349995E-02  3.5260171E-02
   20.0000  3.4676378E-02  2.3811518E-02  3.4737953E-02
   21.0000  3.4679015E-02  2.5811167E-02  3.2805892E-02
   22.0000  3.5238421E-02  2.7911577E-02  3.1178506E-02
   23.0000  3.5781683E-02  2.9921966E-02  2.9821078E-02
   24.0000  3.5702784E-02  3.1636511E-02  2.8662143E-02
   25.0000  3.4656856E-02  3.2868403E-02  2.7649045E-02
   26.0000  3.2786260E-02  3.3506890E-02  2.6768765E-02
   27.0000  3.0593755E-02  3.3561465E-02  2.6041218E-02
   28.0000  2.8537916E-02  3.3157925E-02  2.5481929E-02
   29.0000  2.6846335E-02  3.2469758E-02  2.5089453E-02
   30.0000  2.5556252E-02  3.1648568E-02  2.4842931E-02
   31.0000  2.4609616E-02  3.0792019E-02  2.4704234E-02
   32.0000  2.3920517E-02  2.9943866E-02  2.4625980E-02
   33.0000  2.3405718E-02  2.9109007E-02  2.4558524E-02
   34.0000  2.2994631E-02  2.8271418E-02  2.4453981E-02
   35.0000  2.2631537E-02  2.7410227E-02  2.4269899E-02
   36.0000  2.2276443E-02  2.6512737E-02  2.3975995E-02
   37.0000  2.1905861E-02  2.5584954E-02  2.3564748E-02
   38.0000  2.1516489E-02  2.4659835E-02  2.3064104E-02
   39.0000  2.1133455E-02  2.3802797E-02  2.2544330E-02
   40.0000  2.0806031E-02  2.3104667E-02  2.2100289E-02
