    Energy   (100,001)      (010,001)      (001,110)   
  -25.0000  1.6859854E-04  1.8657766E-04  1.6877478E-04
  -24.0000  1.7487903E-04  1.9362803E-04  1.7510912E-04
  -23.0000  1.8159528E-04  2.0118793E-04  1.8188462E-04
  -22.0000  1.8879262E-04  2.0931332E-04  1.8914720E-04
  -21.0000  1.9652285E-04  2.1806855E-04  1.9694926E-04
  -20.0000  2.0484531E-04  2.2752798E-04  2.0535086E-04
  -19.0000  2.1382837E-04  2.3777798E-04  2.1442109E-04
  -18.0000  2.2355118E-04  2.4891942E-04  2.2423991E-04
  -17.0000  2.3410585E-04  2.6107080E-04  2.3490031E-04
  -16.0000  2.4560021E-04  2.7437229E-04  2.4651103E-04
  -15.0000  2.5816133E-04  2.8899077E-04  2.5920005E-04
  -14.0000  2.7193996E-04  3.0512652E-04  2.7311902E-04
  -13.0000  2.8711628E-04  3.2302184E-04  2.8844893E-04
  -12.0000  3.0390749E-04  3.4297260E-04  3.0540754E-04
  -11.0000  3.2257781E-04  3.6534366E-04  3.2425922E-04
  -10.0000  3.4345192E-04  3.9059000E-04  3.4532806E-04
  -9.00000  3.6693337E-04  4.1928597E-04  3.6901578E-04
  -8.00000  3.9353020E-04  4.5216672E-04  3.9582651E-04
  -7.00000  4.2389140E-04  4.9018794E-04  4.2640183E-04
  -6.00000  4.5885991E-04  5.3461428E-04  4.6157154E-04
  -5.00000  4.9955203E-04  5.8715385E-04  5.0242909E-04
  -4.00000  5.4748033E-04  6.5016947E-04  5.5044751E-04
  -3.00000  6.0475124E-04  7.2702376E-04  6.0766446E-04
  -2.00000  6.7439873E-04  8.2266976E-04  6.7699188E-04
  -1.00000  7.6098254E-04  9.4472321E-04  7.6276608E-04
   0.00000  8.7174795E-04  1.1055619E-03  8.7180335E-04
   1.00000  1.0191248E-03  1.3268774E-03  1.0156494E-03
   2.00000  1.2269850E-03  1.6510870E-03  1.2161432E-03
   3.00000  1.5503258E-03  2.1770407E-03  1.5226827E-03
   4.00000  2.1643951E-03  3.2196865E-03  2.0892388E-03
   5.00000  3.8272719E-03  6.1460233E-03  3.5745035E-03
   5.20000  4.3420722E-03  7.0796586E-03  4.0369990E-03
   5.40000  4.8566091E-03  8.0322402E-03  4.5063893E-03
   5.60000  5.3601106E-03  8.9791783E-03  4.9727467E-03
   5.80000  5.8639430E-03  9.9278728E-03  5.4434926E-03
   6.00000  6.3856993E-03  1.0893980E-02  5.9309423E-03
   6.20000  6.9414340E-03  1.1892596E-02  6.4468696E-03
   6.40000  7.5434671E-03  1.2939892E-02  7.0021655E-03
   6.60000  8.2000227E-03  1.4056744E-02  7.6078432E-03
   6.80000  8.9158975E-03  1.5270115E-02  8.2752947E-03
   7.00000  9.6939623E-03  1.6611674E-02  9.0150003E-03
   7.20000  1.0536490E-02  1.8115101E-02  9.8340435E-03
   7.40000  1.1445166E-02  1.9813037E-02  1.0733289E-02
   7.60000  1.2419684E-02  2.1733442E-02  1.1704957E-02
   7.80000  1.3455904E-02  2.3895182E-02  1.2731424E-02
   8.00000  1.4544921E-02  2.6304004E-02  1.3786584E-02
   8.20000  1.5674080E-02  2.8951221E-02  1.4841010E-02
   8.40000  1.6830144E-02  3.1816513E-02  1.5870350E-02
   8.60000  1.8003811E-02  3.4873319E-02  1.6863599E-02
   8.80000  1.9193828E-02  3.8092991E-02  1.7827013E-02
   9.00000  2.0408797E-02  4.1443524E-02  1.8781598E-02
   9.20000  2.1665494E-02  4.4880565E-02  1.9755777E-02
   9.40000  2.2983737E-02  4.8332525E-02  2.0777014E-02
   9.60000  2.4379115E-02  5.1686374E-02  2.1865896E-02
   9.80000  2.5855662E-02  5.4782576E-02  2.3034098E-02
   10.0000  2.7400208E-02  5.7425635E-02  2.4285312E-02
   10.2500  2.9374051E-02  5.9784239E-02  2.5961919E-02
   10.5000  3.1296995E-02  6.0804118E-02  2.7750057E-02
   10.7500  3.3042739E-02  6.0367339E-02  2.9628353E-02
   11.0000  3.4494008E-02  5.8593087E-02  3.1567997E-02
   11.2500  3.5572118E-02  5.5780788E-02  3.3531635E-02
   11.5000  3.6253216E-02  5.2306598E-02  3.5471412E-02
   11.7500  3.6566441E-02  4.8531465E-02  3.7325189E-02
   12.0000  3.6580387E-02  4.4745633E-02  3.9020480E-02
   12.2500  3.6384157E-02  4.1149647E-02  4.0488145E-02
   12.5000  3.6067919E-02  3.7860535E-02  4.1675957E-02
   12.7500  3.5708601E-02  3.4930556E-02  4.2555244E-02
   13.0000  3.5363390E-02  3.2368415E-02  4.3122243E-02
   13.2500  3.5069936E-02  3.0156654E-02  4.3397929E-02
   13.5000  3.4849897E-02  2.8264095E-02  4.3424581E-02
   13.7500  3.4712898E-02  2.6654312E-02  4.3257820E-02
   14.0000  3.4659697E-02  2.5290944E-02  4.2956875E-02
   14.2500  3.4684407E-02  2.4140598E-02  4.2576409E-02
   14.5000  3.4775980E-02  2.3174080E-02  4.2161533E-02
   14.7500  3.4919256E-02  2.2366601E-02  4.1745974E-02
   15.0000  3.5095855E-02  2.1697433E-02  4.1352481E-02
   15.2500  3.5285129E-02  2.1149315E-02  4.0994406E-02
   15.5000  3.5465343E-02  2.0707821E-02  4.0677658E-02
   15.7500  3.5615191E-02  2.0360773E-02  4.0402556E-02
   16.0000  3.5715576E-02  2.0097768E-02  4.0165402E-02
   16.2500  3.5751473E-02  1.9909809E-02  3.9959755E-02
   16.5000  3.5713592E-02  1.9789033E-02  3.9777462E-02
   16.7500  3.5599495E-02  1.9728517E-02  3.9609528E-02
   17.0000  3.5413923E-02  1.9722124E-02  3.9446870E-02
   17.2500  3.5168229E-02  1.9764413E-02  3.9280982E-02
   17.5000  3.4879009E-02  1.9850548E-02  3.9104504E-02
   17.7500  3.4566206E-02  1.9976251E-02  3.8911657E-02
   18.0000  3.4251030E-02  2.0137753E-02  3.8698528E-02
   18.2500  3.3954045E-02  2.0331763E-02  3.8463167E-02
   18.5000  3.3693653E-02  2.0555442E-02  3.8205507E-02
   18.7500  3.3485092E-02  2.0806393E-02  3.7927107E-02
   19.0000  3.3339940E-02  2.1082649E-02  3.7630770E-02
   19.2500  3.3266025E-02  2.1382688E-02  3.7320058E-02
   19.5000  3.3267613E-02  2.1705436E-02  3.6998786E-02
   19.7500  3.3345683E-02  2.2050220E-02  3.6670579E-02
   20.0000  3.3498127E-02  2.2416577E-02  3.6338654E-02
   21.0000  3.4715699E-02  2.4080142E-02  3.5027357E-02
   22.0000  3.6411087E-02  2.6005112E-02  3.3803445E-02
   23.0000  3.7807570E-02  2.8091387E-02  3.2637382E-02
   24.0000  3.8242784E-02  3.0168437E-02  3.1474055E-02
   25.0000  3.7450197E-02  3.2003194E-02  3.0301055E-02
   26.0000  3.5630995E-02  3.3356644E-02  2.9153594E-02
   27.0000  3.3274131E-02  3.4070612E-02  2.8098263E-02
   28.0000  3.0892297E-02  3.4137788E-02  2.7211010E-02
   29.0000  2.8837896E-02  3.3695424E-02  2.6539140E-02
   30.0000  2.7230928E-02  3.2936927E-02  2.6066563E-02
   31.0000  2.6049262E-02  3.2032921E-02  2.5738484E-02
   32.0000  2.5216384E-02  3.1098080E-02  2.5492612E-02
   33.0000  2.4637253E-02  3.0192763E-02  2.5269742E-02
   34.0000  2.4215400E-02  2.9340947E-02  2.5015621E-02
   35.0000  2.3863765E-02  2.8547955E-02  2.4683455E-02
   36.0000  2.3513441E-02  2.7811669E-02  2.4240770E-02
   37.0000  2.3121946E-02  2.7127860E-02  2.3680654E-02
   38.0000  2.2681924E-02  2.6495195E-02  2.3034520E-02
   39.0000  2.2228060E-02  2.5927493E-02  2.2379132E-02
   40.0000  2.1830547E-02  2.5465533E-02  2.1821740E-02
