    Energy   (100,001)      (010,001)      (001,110)   
  -25.0000  1.7586079E-04  1.8434071E-04  1.7357316E-04
  -24.0000  1.8219725E-04  1.9131869E-04  1.7983463E-04
  -23.0000  1.8896533E-04  1.9880034E-04  1.8652052E-04
  -22.0000  1.9620950E-04  2.0684086E-04  1.9367416E-04
  -21.0000  2.0398043E-04  2.1550370E-04  2.0134487E-04
  -20.0000  2.1233618E-04  2.2486214E-04  2.0958909E-04
  -19.0000  2.2134356E-04  2.3500128E-04  2.1847161E-04
  -18.0000  2.3107981E-04  2.4602046E-04  2.2806726E-04
  -17.0000  2.4163477E-04  2.5803637E-04  2.3846287E-04
  -16.0000  2.5311350E-04  2.7118693E-04  2.4975976E-04
  -15.0000  2.6563965E-04  2.8563632E-04  2.6207692E-04
  -14.0000  2.7935975E-04  3.0158146E-04  2.7555504E-04
  -13.0000  2.9444878E-04  3.1926052E-04  2.9036160E-04
  -12.0000  3.1111739E-04  3.3896414E-04  3.0669769E-04
  -11.0000  3.2962153E-04  3.6105058E-04  3.2480684E-04
  -10.0000  3.5027533E-04  3.8596636E-04  3.4498690E-04
  -9.00000  3.7346874E-04  4.1427486E-04  3.6760626E-04
  -8.00000  3.9969202E-04  4.4669677E-04  3.9312624E-04
  -7.00000  4.2957057E-04  4.8416843E-04  4.2213284E-04
  -6.00000  4.6391555E-04  5.2792817E-04  4.5538284E-04
  -5.00000  5.0379962E-04  5.7964752E-04  4.9387260E-04
  -4.00000  5.5067393E-04  6.4163719E-04  5.3894434E-04
  -3.00000  6.0655614E-04  7.1718351E-04  5.9245750E-04
  -2.00000  6.7434727E-04  8.1112402E-04  6.5707902E-04
  -1.00000  7.5839878E-04  9.3089231E-04  7.3680864E-04
   0.00000  8.6560912E-04  1.0885641E-03  8.3801275E-04
   1.00000  1.0077783E-03  1.3052981E-03  9.7170378E-04
   2.00000  1.2074739E-03  1.6224956E-03  1.1594352E-03
   3.00000  1.5163545E-03  2.1368981E-03  1.4526044E-03
   4.00000  2.0973558E-03  3.1590056E-03  2.0234210E-03
   5.00000  3.6549683E-03  6.0412657E-03  3.6634942E-03
   5.20000  4.1438451E-03  6.9488608E-03  4.1938702E-03
   5.40000  4.6387607E-03  7.8574548E-03  4.7298393E-03
   5.60000  5.1256374E-03  8.7386941E-03  5.2447762E-03
   5.80000  5.6080083E-03  9.6014856E-03  5.7248506E-03
   6.00000  6.0952830E-03  1.0469126E-02  6.1595977E-03
   6.20000  6.5986650E-03  1.1369247E-02  6.5425136E-03
   6.40000  7.1318467E-03  1.2331609E-02  6.8760655E-03
   6.60000  7.7117056E-03  1.3386989E-02  7.1737245E-03
   6.80000  8.3573895E-03  1.4565948E-02  7.4569879E-03
   7.00000  9.0884263E-03  1.5898152E-02  7.7499644E-03
   7.20000  9.9228495E-03  1.7412330E-02  8.0749140E-03
   7.40000  1.0875522E-02  1.9136077E-02  8.4501483E-03
   7.60000  1.1955984E-02  2.1094486E-02  8.8897959E-03
   7.80000  1.3164932E-02  2.3306745E-02  9.4043779E-03
   8.00000  1.4489252E-02  2.5780673E-02  1.0001456E-02
   8.20000  1.5897415E-02  2.8506623E-02  1.0686069E-02
   8.40000  1.7339000E-02  3.1454330E-02  1.1461064E-02
   8.60000  1.8752369E-02  3.4577031E-02  1.2327571E-02
   8.80000  2.0080869E-02  3.7823344E-02  1.3285731E-02
   9.00000  2.1290611E-02  4.1148957E-02  1.4335258E-02
   9.20000  2.2378676E-02  4.4515546E-02  1.5475282E-02
   9.40000  2.3366267E-02  4.7871904E-02  1.6703371E-02
   9.60000  2.4282529E-02  5.1126615E-02  1.8014442E-02
   9.80000  2.5150023E-02  5.4129858E-02  1.9400524E-02
   10.0000  2.5978961E-02  5.6678701E-02  2.0851063E-02
   10.2500  2.6962447E-02  5.8888272E-02  2.2734169E-02
   10.5000  2.7887063E-02  5.9695365E-02  2.4664182E-02
   10.7500  2.8754185E-02  5.8987330E-02  2.6603967E-02
   11.0000  2.9555627E-02  5.6933102E-02  2.8515275E-02
   11.2500  3.0269669E-02  5.3904475E-02  3.0360457E-02
   11.5000  3.0870163E-02  5.0336060E-02  3.2103187E-02
   11.7500  3.1339176E-02  4.6608766E-02  3.3708703E-02
   12.0000  3.1676004E-02  4.2993762E-02  3.5144294E-02
   12.2500  3.1899755E-02  3.9649172E-02  3.6381282E-02
   12.5000  3.2045272E-02  3.6644720E-02  3.7398589E-02
   12.7500  3.2155505E-02  3.3993472E-02  3.8187894E-02
   13.0000  3.2274102E-02  3.1678707E-02  3.8758152E-02
   13.2500  3.2440025E-02  2.9671002E-02  3.9136112E-02
   13.5000  3.2684027E-02  2.7937236E-02  3.9362124E-02
   13.7500  3.3026529E-02  2.6445000E-02  3.9483179E-02
   14.0000  3.3476816E-02  2.5164548E-02  3.9545868E-02
   14.2500  3.4033370E-02  2.4069489E-02  3.9591103E-02
   14.5000  3.4684940E-02  2.3136895E-02  3.9651125E-02
   14.7500  3.5411963E-02  2.2347164E-02  3.9748439E-02
   15.0000  3.6188162E-02  2.1683758E-02  3.9895971E-02
   15.2500  3.6982310E-02  2.1132868E-02  4.0097855E-02
   15.5000  3.7760235E-02  2.0683039E-02  4.0350433E-02
   15.7500  3.8487075E-02  2.0324766E-02  4.0643293E-02
   16.0000  3.9129774E-02  2.0050121E-02  4.0960357E-02
   16.2500  3.9659608E-02  1.9852408E-02  4.1281100E-02
   16.5000  4.0054506E-02  1.9725880E-02  4.1582037E-02
   16.7500  4.0300795E-02  1.9665504E-02  4.1838530E-02
   17.0000  4.0394129E-02  1.9666778E-02  4.2026883E-02
   17.2500  4.0339428E-02  1.9725584E-02  4.2126544E-02
   17.5000  4.0149854E-02  1.9838075E-02  4.2122121E-02
   17.7500  3.9845034E-02  2.0000596E-02  4.2004885E-02
   18.0000  3.9448841E-02  2.0209633E-02  4.1773498E-02
   18.2500  3.8987081E-02  2.0461781E-02  4.1433813E-02
   18.5000  3.8485389E-02  2.0753755E-02  4.0997838E-02
   18.7500  3.7967547E-02  2.1082408E-02  4.0482067E-02
   19.0000  3.7454282E-02  2.1444785E-02  3.9905497E-02
   19.2500  3.6962555E-02  2.1838199E-02  3.9287631E-02
   19.5000  3.6505238E-02  2.2260316E-02  3.8646730E-02
   19.7500  3.6091131E-02  2.2709157E-02  3.7998556E-02
   20.0000  3.5725328E-02  2.3182900E-02  3.7355918E-02
   21.0000  3.4759359E-02  2.5276656E-02  3.5020310E-02
   22.0000  3.4439133E-02  2.7552917E-02  3.3253067E-02
   23.0000  3.4368278E-02  2.9816951E-02  3.1993100E-02
   24.0000  3.4116107E-02  3.1818591E-02  3.1057695E-02
   25.0000  3.3395063E-02  3.3299823E-02  3.0288011E-02
   26.0000  3.2178660E-02  3.4099720E-02  2.9585401E-02
   27.0000  3.0685586E-02  3.4227170E-02  2.8918019E-02
   28.0000  2.9192277E-02  3.3841513E-02  2.8298710E-02
   29.0000  2.7898996E-02  3.3151794E-02  2.7765172E-02
   30.0000  2.6893079E-02  3.2337246E-02  2.7347453E-02
   31.0000  2.6171137E-02  3.1514584E-02  2.7041795E-02
   32.0000  2.5682302E-02  3.0736500E-02  2.6813551E-02
   33.0000  2.5362634E-02  3.0007826E-02  2.6615585E-02
   34.0000  2.5152890E-02  2.9307962E-02  2.6403530E-02
   35.0000  2.5004288E-02  2.8610572E-02  2.6142947E-02
   36.0000  2.4878850E-02  2.7896515E-02  2.5812459E-02
   37.0000  2.4748704E-02  2.7160888E-02  2.5406915E-02
   38.0000  2.4596731E-02  2.6419125E-02  2.4942635E-02
   39.0000  2.4422288E-02  2.5716757E-02  2.4465261E-02
   40.0000  2.4253190E-02  2.5132461E-02  2.4050576E-02
