    Energy   (100,001)      (010,001)      (001,110)   
  -25.0000  1.7554212E-04  1.8593719E-04  1.8727526E-04
  -24.0000  1.8173386E-04  1.9294831E-04  1.9364263E-04
  -23.0000  1.8833931E-04  2.0046379E-04  2.0042715E-04
  -22.0000  1.9540038E-04  2.0853874E-04  2.0767068E-04
  -21.0000  2.0296484E-04  2.1723648E-04  2.1542082E-04
  -20.0000  2.1108729E-04  2.2663013E-04  2.2373202E-04
  -19.0000  2.1983048E-04  2.3680453E-04  2.3266677E-04
  -18.0000  2.2926687E-04  2.4785873E-04  2.4229718E-04
  -17.0000  2.3948059E-04  2.5990897E-04  2.5270696E-04
  -16.0000  2.5056989E-04  2.7309262E-04  2.6399377E-04
  -15.0000  2.6265026E-04  2.8757309E-04  2.7627238E-04
  -14.0000  2.7585836E-04  3.0354632E-04  2.8967854E-04
  -13.0000  2.9035718E-04  3.2124911E-04  3.0437407E-04
  -12.0000  3.0634270E-04  3.4097029E-04  3.2055360E-04
  -11.0000  3.2405283E-04  3.6306568E-04  3.3845334E-04
  -10.0000  3.4377928E-04  3.8797845E-04  3.5836311E-04
  -9.00000  3.6588401E-04  4.1626742E-04  3.8064282E-04
  -8.00000  3.9082193E-04  4.4864692E-04  4.0574556E-04
  -7.00000  4.1917347E-04  4.8604441E-04  4.3425083E-04
  -6.00000  4.5169204E-04  5.2968563E-04  4.6691372E-04
  -5.00000  4.8937539E-04  5.8122392E-04  5.0473983E-04
  -4.00000  5.3357662E-04  6.4294347E-04  5.4910433E-04
  -3.00000  5.8618417E-04  7.1809109E-04  6.0194990E-04
  -2.00000  6.4992826E-04  8.1144437E-04  6.6613562E-04
  -1.00000  7.2893669E-04  9.3034395E-04  7.4609815E-04
   0.00000  8.2982759E-04  1.0867186E-03  8.4922785E-04
   1.00000  9.6410485E-04  1.3014907E-03  9.8910976E-04
   2.00000  1.1542823E-03  1.6156823E-03  1.1945753E-03
   3.00000  1.4536253E-03  2.1254741E-03  1.5420582E-03
   4.00000  2.0379379E-03  3.1410110E-03  2.3230920E-03
   5.00000  3.6880611E-03  6.0151653E-03  4.9638264E-03
   5.20000  4.1982060E-03  6.9185752E-03  5.7653660E-03
   5.40000  4.6968672E-03  7.8227770E-03  6.4681990E-03
   5.60000  5.1677174E-03  8.7029998E-03  7.0089691E-03
   5.80000  5.6186526E-03  9.5717493E-03  7.3772806E-03
   6.00000  6.0656995E-03  1.0454042E-02  7.5921878E-03
   6.20000  6.5252456E-03  1.1376464E-02  7.6907789E-03
   6.40000  7.0124021E-03  1.2364843E-02  7.7206876E-03
   6.60000  7.5413168E-03  1.3443579E-02  7.7308811E-03
   6.80000  8.1256730E-03  1.4634809E-02  7.7631238E-03
   7.00000  8.7788385E-03  1.5957782E-02  7.8473159E-03
   7.20000  9.5135155E-03  1.7428880E-02  8.0011686E-03
   7.40000  1.0340788E-02  1.9062080E-02  8.2325326E-03
   7.60000  1.1268461E-02  2.0869383E-02  8.5424270E-03
   7.80000  1.2298689E-02  2.2860772E-02  8.9276145E-03
   8.00000  1.3425242E-02  2.5043453E-02  9.3823989E-03
   8.20000  1.4630907E-02  2.7420171E-02  9.8998367E-03
   8.40000  1.5885883E-02  2.9986463E-02  1.0472729E-02
   8.60000  1.7148520E-02  3.2727451E-02  1.1094622E-02
   8.80000  1.8369605E-02  3.5615280E-02  1.1760848E-02
   9.00000  1.9499884E-02  3.8608137E-02  1.2469515E-02
   9.20000  2.0498660E-02  4.1650731E-02  1.3222036E-02
   9.40000  2.1340430E-02  4.4675068E-02  1.4022648E-02
   9.60000  2.2017867E-02  4.7600667E-02  1.4877116E-02
   9.80000  2.2541149E-02  5.0334420E-02  1.5791596E-02
   10.0000  2.2934136E-02  5.2770839E-02  1.6771770E-02
   10.2500  2.3291153E-02  5.5222392E-02  1.8095424E-02
   10.5000  2.3562354E-02  5.6807654E-02  1.9529517E-02
   10.7500  2.3811005E-02  5.7359347E-02  2.1065247E-02
   11.0000  2.4086845E-02  5.6819532E-02  2.2682048E-02
   11.2500  2.4420705E-02  5.5264620E-02  2.4348714E-02
   11.5000  2.4824933E-02  5.2889344E-02  2.6025360E-02
   11.7500  2.5297164E-02  4.9957349E-02  2.7666736E-02
   12.0000  2.5824644E-02  4.6740870E-02  2.9227319E-02
   12.2500  2.6388386E-02  4.3472941E-02  3.0666846E-02
   12.5000  2.6967912E-02  4.0323913E-02  3.1954838E-02
   12.7500  2.7547361E-02  3.7401588E-02  3.3073189E-02
   13.0000  2.8119576E-02  3.4764001E-02  3.4017244E-02
   13.2500  2.8683365E-02  3.2432820E-02  3.4795908E-02
   13.5000  2.9238052E-02  3.0404406E-02  3.5430182E-02
   13.7500  2.9782181E-02  2.8659497E-02  3.5949765E-02
   14.0000  3.0315023E-02  2.7170974E-02  3.6388648E-02
   14.2500  3.0837442E-02  2.5909181E-02  3.6780855E-02
   14.5000  3.1351662E-02  2.4845097E-02  3.7157020E-02
   14.7500  3.1860599E-02  2.3952003E-02  3.7541973E-02
   15.0000  3.2367184E-02  2.3206198E-02  3.7953230E-02
   15.2500  3.2873777E-02  2.2587157E-02  3.8400145E-02
   15.5000  3.3381672E-02  2.2077399E-02  3.8883542E-02
   15.7500  3.3890657E-02  2.1662209E-02  3.9395735E-02
   16.0000  3.4398661E-02  2.1329318E-02  3.9920990E-02
   16.2500  3.4901532E-02  2.1068583E-02  4.0436570E-02
   16.5000  3.5392988E-02  2.0871682E-02  4.0914521E-02
   16.7500  3.5864812E-02  2.0731845E-02  4.1324273E-02
   17.0000  3.6307301E-02  2.0643601E-02  4.1635922E-02
   17.2500  3.6709990E-02  2.0602551E-02  4.1823821E-02
   17.5000  3.7062594E-02  2.0605160E-02  4.1869879E-02
   17.7500  3.7356079E-02  2.0648569E-02  4.1765894E-02
   18.0000  3.7583705E-02  2.0730426E-02  4.1514420E-02
   18.2500  3.7741881E-02  2.0848753E-02  4.1127997E-02
   18.5000  3.7830687E-02  2.1001844E-02  4.0627007E-02
   18.7500  3.7853968E-02  2.1188208E-02  4.0036719E-02
   19.0000  3.7818998E-02  2.1406541E-02  3.9384145E-02
   19.2500  3.7735751E-02  2.1655742E-02  3.8695265E-02
   19.5000  3.7615928E-02  2.1934931E-02  3.7992925E-02
   19.7500  3.7471924E-02  2.2243431E-02  3.7295611E-02
   20.0000  3.7316066E-02  2.2580601E-02  3.6617284E-02
   21.0000  3.6801269E-02  2.4191234E-02  3.4265059E-02
   22.0000  3.6814151E-02  2.6141725E-02  3.2637133E-02
   23.0000  3.7388930E-02  2.8292325E-02  3.1624910E-02
   24.0000  3.8135243E-02  3.0435331E-02  3.1013090E-02
   25.0000  3.8458731E-02  3.2323100E-02  3.0608845E-02
   26.0000  3.7881480E-02  3.3733882E-02  3.0272377E-02
   27.0000  3.6334182E-02  3.4537559E-02  2.9929636E-02
   28.0000  3.4170842E-02  3.4728906E-02  2.9576084E-02
   29.0000  3.1893202E-02  3.4411454E-02  2.9255334E-02
   30.0000  2.9873728E-02  3.3743211E-02  2.9018897E-02
   31.0000  2.8271246E-02  3.2877241E-02  2.8893841E-02
   32.0000  2.7084081E-02  3.1934166E-02  2.8874858E-02
   33.0000  2.6234456E-02  3.0996004E-02  2.8932524E-02
   34.0000  2.5640539E-02  3.0091559E-02  2.9024124E-02
   35.0000  2.5238200E-02  2.9219723E-02  2.9107342E-02
   36.0000  2.4978115E-02  2.8374449E-02  2.9149166E-02
   37.0000  2.4820452E-02  2.7554854E-02  2.9129991E-02
   38.0000  2.4730102E-02  2.6772586E-02  2.9047113E-02
   39.0000  2.4675857E-02  2.6061984E-02  2.8919482E-02
   40.0000  2.4635400E-02  2.5484741E-02  2.8789133E-02
