    Energy   (100,001)      (010,001)      (001,110)   
  -25.0000  1.7270701E-04  1.8103890E-04  1.7349113E-04
  -24.0000  1.7892800E-04  1.8806516E-04  1.7967681E-04
  -23.0000  1.8556937E-04  1.9560665E-04  1.8627677E-04
  -22.0000  1.9267390E-04  2.0372047E-04  1.9333278E-04
  -21.0000  2.0029028E-04  2.1247229E-04  2.0089232E-04
  -20.0000  2.0847418E-04  2.2193807E-04  2.0900963E-04
  -19.0000  2.1728953E-04  2.3220608E-04  2.1774689E-04
  -18.0000  2.2681011E-04  2.4337953E-04  2.2717574E-04
  -17.0000  2.3712149E-04  2.5557975E-04  2.3737916E-04
  -16.0000  2.4832354E-04  2.6895037E-04  2.4845378E-04
  -15.0000  2.6053342E-04  2.8366257E-04  2.6051278E-04
  -14.0000  2.7388964E-04  2.9992195E-04  2.7368962E-04
  -13.0000  2.8855699E-04  3.1797754E-04  2.8814274E-04
  -12.0000  3.0473323E-04  3.3813366E-04  3.0406173E-04
  -11.0000  3.2265767E-04  3.6076606E-04  3.2167538E-04
  -10.0000  3.4262285E-04  3.8634377E-04  3.4126240E-04
  -9.00000  3.6499020E-04  4.1545960E-04  3.6316590E-04
  -8.00000  3.9021189E-04  4.4887321E-04  3.8781334E-04
  -7.00000  4.1886148E-04  4.8757346E-04  4.1574444E-04
  -6.00000  4.5167843E-04  5.3287062E-04  4.4765132E-04
  -5.00000  4.8963398E-04  5.8653683E-04  4.8443772E-04
  -4.00000  5.3403255E-04  6.5102694E-04  5.2730917E-04
  -3.00000  5.8667337E-04  7.2983939E-04  5.7791586E-04
  -2.00000  6.5012162E-04  8.2813391E-04  6.3859025E-04
  -1.00000  7.2819151E-04  9.5385230E-04  7.1276742E-04
   0.00000  8.2687897E-04  1.1199088E-03  8.0579194E-04
   1.00000  9.5636903E-04  1.3489212E-03  9.2664948E-04
   2.00000  1.1360785E-03  1.6849905E-03  1.0923270E-03
   3.00000  1.4106594E-03  2.2301224E-03  1.3417841E-03
   4.00000  1.9234348E-03  3.3041663E-03  1.8011279E-03
   5.00000  3.3032906E-03  6.2793746E-03  3.0385782E-03
   5.20000  3.7306990E-03  7.2410814E-03  3.4267813E-03
   5.40000  4.1555280E-03  8.2436190E-03  3.8087850E-03
   5.60000  4.5648537E-03  9.2661323E-03  4.1592066E-03
   5.80000  4.9635396E-03  1.0313467E-02  4.4669613E-03
   6.00000  5.3617548E-03  1.1396002E-02  4.7330285E-03
   6.20000  5.7689315E-03  1.2526143E-02  4.9703344E-03
   6.40000  6.1926742E-03  1.3721849E-02  5.2004951E-03
   6.60000  6.6393273E-03  1.5006907E-02  5.4473216E-03
   6.80000  7.1147238E-03  1.6407610E-02  5.7316626E-03
   7.00000  7.6247091E-03  1.7949414E-02  6.0697279E-03
   7.20000  8.1753698E-03  1.9655290E-02  6.4737591E-03
   7.40000  8.7729685E-03  2.1545228E-02  6.9533366E-03
   7.60000  9.4236537E-03  2.3635988E-02  7.5163820E-03
   7.80000  1.0133064E-02  2.5940784E-02  8.1695722E-03
   8.00000  1.0905831E-02  2.8468640E-02  8.9181138E-03
   8.20000  1.1744879E-02  3.1222990E-02  9.7648768E-03
   8.40000  1.2650710E-02  3.4199326E-02  1.0709032E-02
   8.60000  1.3621072E-02  3.7381916E-02  1.1744591E-02
   8.80000  1.4651572E-02  4.0739594E-02  1.2859559E-02
   9.00000  1.5737559E-02  4.4220666E-02  1.4036701E-02
   9.20000  1.6876924E-02  4.7747141E-02  1.5256580E-02
   9.40000  1.8072451E-02  5.1209233E-02  1.6502403E-02
   9.60000  1.9331899E-02  5.4463035E-02  1.7764697E-02
   9.80000  2.0664679E-02  5.7335883E-02  1.9043418E-02
   10.0000  2.2075780E-02  5.9641452E-02  2.0346405E-02
   10.2500  2.3939182E-02  6.1457849E-02  2.2026701E-02
   10.5000  2.5868969E-02  6.1857165E-02  2.3780485E-02
   10.7500  2.7784603E-02  6.0773403E-02  2.5608079E-02
   11.0000  2.9587023E-02  5.8376135E-02  2.7486813E-02
   11.2500  3.1184751E-02  5.5022324E-02  2.9376386E-02
   11.5000  3.2516343E-02  5.1141356E-02  3.1229167E-02
   11.7500  3.3559776E-02  4.7120481E-02  3.2996811E-02
   12.0000  3.4330254E-02  4.3240471E-02  3.4630924E-02
   12.2500  3.4870686E-02  3.9666660E-02  3.6082085E-02
   12.5000  3.5238913E-02  3.6472475E-02  3.7302507E-02
   12.7500  3.5495406E-02  3.3671196E-02  3.8254150E-02
   13.0000  3.5694456E-02  3.1242648E-02  3.8918416E-02
   13.2500  3.5879754E-02  2.9151377E-02  3.9300585E-02
   13.5000  3.6082373E-02  2.7357586E-02  3.9428059E-02
   13.7500  3.6320444E-02  2.5822938E-02  3.9346451E-02
   14.0000  3.6601146E-02  2.4513042E-02  3.9113898E-02
   14.2500  3.6923671E-02  2.3398129E-02  3.8793310E-02
   14.5000  3.7281308E-02  2.2452910E-02  3.8444615E-02
   14.7500  3.7662629E-02  2.1656114E-02  3.8118976E-02
   15.0000  3.8052503E-02  2.0989981E-02  3.7855615E-02
   15.2500  3.8433234E-02  2.0439801E-02  3.7680882E-02
   15.5000  3.8785810E-02  1.9993486E-02  3.7608833E-02
   15.7500  3.9091234E-02  1.9641164E-02  3.7642585E-02
   16.0000  3.9331879E-02  1.9374762E-02  3.7775954E-02
   16.2500  3.9492792E-02  1.9187594E-02  3.7995124E-02
   16.5000  3.9562861E-02  1.9073967E-02  3.8280312E-02
   16.7500  3.9535723E-02  1.9028852E-02  3.8607500E-02
   17.0000  3.9410294E-02  1.9047624E-02  3.8950308E-02
   17.2500  3.9190835E-02  1.9125898E-02  3.9282056E-02
   17.5000  3.8886535E-02  1.9259432E-02  3.9577903E-02
   17.7500  3.8510648E-02  1.9444114E-02  3.9816858E-02
   18.0000  3.8079320E-02  1.9675985E-02  3.9983377E-02
   18.2500  3.7610262E-02  1.9951279E-02  4.0068288E-02
   18.5000  3.7121442E-02  2.0266477E-02  4.0068911E-02
   18.7500  3.6629950E-02  2.0618339E-02  3.9988384E-02
   19.0000  3.6151107E-02  2.1003949E-02  3.9834389E-02
   19.2500  3.5697864E-02  2.1420747E-02  3.9617540E-02
   19.5000  3.5280456E-02  2.1866571E-02  3.9349725E-02
   19.7500  3.4906321E-02  2.2339610E-02  3.9042713E-02
   20.0000  3.4580332E-02  2.2838151E-02  3.8707312E-02
   21.0000  3.3797806E-02  2.5035525E-02  3.7259051E-02
   22.0000  3.3814471E-02  2.7411756E-02  3.5885873E-02
   23.0000  3.4388043E-02  2.9761375E-02  3.4645615E-02
   24.0000  3.5111090E-02  3.1843478E-02  3.3473393E-02
   25.0000  3.5501351E-02  3.3425172E-02  3.2323395E-02
   26.0000  3.5179265E-02  3.4360420E-02  3.1203705E-02
   27.0000  3.4074037E-02  3.4637537E-02  3.0160273E-02
   28.0000  3.2453335E-02  3.4360918E-02  2.9249722E-02
   29.0000  3.0720657E-02  3.3690977E-02  2.8516095E-02
   30.0000  2.9187383E-02  3.2790581E-02  2.7970884E-02
   31.0000  2.7984558E-02  3.1791842E-02  2.7583368E-02
   32.0000  2.7095783E-02  3.0770315E-02  2.7293404E-02
   33.0000  2.6441238E-02  2.9757781E-02  2.7037604E-02
   34.0000  2.5934372E-02  2.8762916E-02  2.6765489E-02
   35.0000  2.5504571E-02  2.7784415E-02  2.6444258E-02
   36.0000  2.5104966E-02  2.6821405E-02  2.6060275E-02
   37.0000  2.4712352E-02  2.5881508E-02  2.5619920E-02
   38.0000  2.4323702E-02  2.4987530E-02  2.5149226E-02
   39.0000  2.3955745E-02  2.4184514E-02  2.4693197E-02
   40.0000  2.3645442E-02  2.3539263E-02  2.4311740E-02
