    Energy   (100,001)      (010,001)      (001,110)   
  -25.0000  1.7054603E-04  1.9040703E-04  1.8262480E-04
  -24.0000  1.7650289E-04  1.9743383E-04  1.8900479E-04
  -23.0000  1.8284928E-04  2.0495816E-04  1.9580834E-04
  -22.0000  1.8962354E-04  2.1303369E-04  2.0307808E-04
  -21.0000  1.9686919E-04  2.2172202E-04  2.1086253E-04
  -20.0000  2.0463576E-04  2.3109414E-04  2.1921710E-04
  -19.0000  2.1297991E-04  2.4123234E-04  2.2820537E-04
  -18.0000  2.2196678E-04  2.5223246E-04  2.3790066E-04
  -17.0000  2.3167154E-04  2.6420686E-04  2.4838799E-04
  -16.0000  2.4218153E-04  2.7728800E-04  2.5976644E-04
  -15.0000  2.5359875E-04  2.9163318E-04  2.7215227E-04
  -14.0000  2.6604314E-04  3.0743059E-04  2.8568276E-04
  -13.0000  2.7965669E-04  3.2490716E-04  3.0052128E-04
  -12.0000  2.9460886E-04  3.4433905E-04  3.1686375E-04
  -11.0000  3.1110363E-04  3.6606553E-04  3.3494731E-04
  -10.0000  3.2938891E-04  3.9050808E-04  3.5506189E-04
  -9.00000  3.4976930E-04  4.1819653E-04  3.7756599E-04
  -8.00000  3.7262372E-04  4.4980611E-04  4.0290859E-04
  -7.00000  3.9843030E-04  4.8621056E-04  4.3166038E-04
  -6.00000  4.2780234E-04  5.2856050E-04  4.6455916E-04
  -5.00000  4.6154205E-04  5.7840222E-04  5.0257820E-04
  -4.00000  5.0072355E-04  6.3786362E-04  5.4703260E-04
  -3.00000  5.4682687E-04  7.0995746E-04  5.9975240E-04
  -2.00000  6.0196627E-04  7.9909982E-04  6.6337962E-04
  -1.00000  6.6930669E-04  9.1205273E-04  7.4191406E-04
   0.00000  7.5389426E-04  1.0597787E-03  8.4180833E-04
   1.00000  8.6452325E-04  1.2615022E-03  9.7444024E-04
   2.00000  1.0187017E-03  1.5550760E-03  1.1626951E-03
   3.00000  1.2595802E-03  2.0303574E-03  1.4633041E-03
   4.00000  1.7402360E-03  2.9845315E-03  2.0767157E-03
   5.00000  3.1692346E-03  5.7381491E-03  3.9337747E-03
   5.20000  3.5879203E-03  6.5905831E-03  4.4997126E-03
   5.40000  3.9615783E-03  7.4210141E-03  5.0316181E-03
   5.60000  4.2737302E-03  8.2018131E-03  5.5091641E-03
   5.80000  4.5371349E-03  8.9454704E-03  5.9397304E-03
   6.00000  4.7725027E-03  9.6767014E-03  6.3338503E-03
   6.20000  4.9979622E-03  1.0419433E-02  6.6960993E-03
   6.40000  5.2270605E-03  1.1194201E-02  7.0269229E-03
   6.60000  5.4696012E-03  1.2018683E-02  7.3276489E-03
   6.80000  5.7327675E-03  1.2908820E-02  7.6046029E-03
   7.00000  6.0218950E-03  1.3879961E-02  7.8705421E-03
   7.20000  6.3410325E-03  1.4947880E-02  8.1433441E-03
   7.40000  6.6935247E-03  1.6129594E-02  8.4432145E-03
   7.60000  7.0825196E-03  1.7443853E-02  8.7900191E-03
   7.80000  7.5112436E-03  1.8911198E-02  9.2014010E-03
   8.00000  7.9830863E-03  2.0553492E-02  9.6914227E-03
   8.20000  8.5014041E-03  2.2392771E-02  1.0269675E-02
   8.40000  9.0689932E-03  2.4449284E-02  1.0940863E-02
   8.60000  9.6873928E-03  2.6738750E-02  1.1704681E-02
   8.80000  1.0356213E-02  2.9268981E-02  1.2555843E-02
   9.00000  1.1072634E-02  3.2036041E-02  1.3484298E-02
   9.20000  1.1831191E-02  3.5020172E-02  1.4475837E-02
   9.40000  1.2623971E-02  3.8181944E-02  1.5513345E-02
   9.60000  1.3441338E-02  4.1459336E-02  1.6578839E-02
   9.80000  1.4273275E-02  4.4766623E-02  1.7656153E-02
   10.0000  1.5111137E-02  4.7995469E-02  1.8733640E-02
   10.2500  1.6158289E-02  5.1725526E-02  2.0073037E-02
   10.5000  1.7201474E-02  5.4859938E-02  2.1407211E-02
   10.7500  1.8241726E-02  5.7135284E-02  2.2749076E-02
   11.0000  1.9282505E-02  5.8346832E-02  2.4115508E-02
   11.2500  2.0327216E-02  5.8398607E-02  2.5522213E-02
   11.5000  2.1377277E-02  5.7335566E-02  2.6981333E-02
   11.7500  2.2431470E-02  5.5335335E-02  2.8499053E-02
   12.0000  2.3487781E-02  5.2657431E-02  3.0068270E-02
   12.2500  2.4546236E-02  4.9579219E-02  3.1661001E-02
   12.5000  2.5609141E-02  4.6348279E-02  3.3229871E-02
   12.7500  2.6679041E-02  4.3156547E-02  3.4717038E-02
   13.0000  2.7756560E-02  4.0133716E-02  3.6065726E-02
   13.2500  2.8839061E-02  3.7354850E-02  3.7231135E-02
   13.5000  2.9920719E-02  3.4853864E-02  3.8187477E-02
   13.7500  3.0993386E-02  3.2636896E-02  3.8930267E-02
   14.0000  3.2047380E-02  3.0693181E-02  3.9474586E-02
   14.2500  3.3072146E-02  2.9002940E-02  3.9850335E-02
   14.5000  3.4056921E-02  2.7542600E-02  4.0095930E-02
   14.7500  3.4991445E-02  2.6287982E-02  4.0252013E-02
   15.0000  3.5866621E-02  2.5216073E-02  4.0356331E-02
   15.2500  3.6674985E-02  2.4305889E-02  4.0440289E-02
   15.5000  3.7410910E-02  2.3538763E-02  4.0527122E-02
   15.7500  3.8070516E-02  2.2898312E-02  4.0631372E-02
   16.0000  3.8651401E-02  2.2370244E-02  4.0759254E-02
   16.2500  3.9152316E-02  2.1942106E-02  4.0909614E-02
   16.5000  3.9572954E-02  2.1603037E-02  4.1075272E-02
   16.7500  3.9913926E-02  2.1343535E-02  4.1244643E-02
   17.0000  4.0176959E-02  2.1155269E-02  4.1403521E-02
   17.2500  4.0365239E-02  2.1030902E-02  4.1536956E-02
   17.5000  4.0483785E-02  2.0963953E-02  4.1631037E-02
   17.7500  4.0539704E-02  2.0948673E-02  4.1674408E-02
   18.0000  4.0542200E-02  2.0979948E-02  4.1659344E-02
   18.2500  4.0502281E-02  2.1053227E-02  4.1582250E-02
   18.5000  4.0432184E-02  2.1164464E-02  4.1443568E-02
   18.7500  4.0344604E-02  2.1310091E-02  4.1247179E-02
   19.0000  4.0251872E-02  2.1487007E-02  4.0999470E-02
   19.2500  4.0165190E-02  2.1692592E-02  4.0708256E-02
   19.5000  4.0094036E-02  2.1924723E-02  4.0381746E-02
   19.7500  4.0045765E-02  2.2181751E-02  4.0027749E-02
   20.0000  4.0025464E-02  2.2462351E-02  3.9653319E-02
   21.0000  4.0258190E-02  2.3792294E-02  3.8073276E-02
   22.0000  4.0913364E-02  2.5392877E-02  3.6554259E-02
   23.0000  4.1671622E-02  2.7184886E-02  3.5180815E-02
   24.0000  4.2057960E-02  2.9047582E-02  3.3932641E-02
   25.0000  4.1595246E-02  3.0814599E-02  3.2762934E-02
   26.0000  4.0036673E-02  3.2314545E-02  3.1637391E-02
   27.0000  3.7547745E-02  3.3425911E-02  3.0549848E-02
   28.0000  3.4625882E-02  3.4103873E-02  2.9524532E-02
   29.0000  3.1807630E-02  3.4368342E-02  2.8609066E-02
   30.0000  2.9447763E-02  3.4286223E-02  2.7861759E-02
   31.0000  2.7675778E-02  3.3951401E-02  2.7326252E-02
   32.0000  2.6436594E-02  3.3442250E-02  2.6997959E-02
   33.0000  2.5607291E-02  3.2813889E-02  2.6836079E-02
   34.0000  2.5070008E-02  3.2102990E-02  2.6785003E-02
   35.0000  2.4726537E-02  3.1330418E-02  2.6786565E-02
   36.0000  2.4498888E-02  3.0508128E-02  2.6789908E-02
   37.0000  2.4327226E-02  2.9649847E-02  2.6759161E-02
   38.0000  2.4169190E-02  2.8784107E-02  2.6678177E-02
   39.0000  2.4005440E-02  2.7968989E-02  2.6554865E-02
   40.0000  2.3848385E-02  2.7296451E-02  2.6424321E-02
