    Energy   (100,001)      (010,001)      (001,110)   
  -25.0000  1.6604050E-04  1.8084242E-04  1.8005205E-04
  -24.0000  1.7205887E-04  1.8784926E-04  1.8663672E-04
  -23.0000  1.7848129E-04  1.9536940E-04  1.9367761E-04
  -22.0000  1.8534833E-04  2.0345966E-04  2.0122259E-04
  -21.0000  1.9270604E-04  2.1218544E-04  2.0932633E-04
  -20.0000  2.0060699E-04  2.2162231E-04  2.1805161E-04
  -19.0000  2.0911138E-04  2.3185815E-04  2.2747087E-04
  -18.0000  2.1828850E-04  2.4299563E-04  2.3766811E-04
  -17.0000  2.2821850E-04  2.5515549E-04  2.4874128E-04
  -16.0000  2.3899460E-04  2.6848061E-04  2.6080531E-04
  -15.0000  2.5072584E-04  2.8314124E-04  2.7399592E-04
  -14.0000  2.6354061E-04  2.9934186E-04  2.8847452E-04
  -13.0000  2.7759109E-04  3.1733004E-04  3.0443458E-04
  -12.0000  2.9305908E-04  3.3740830E-04  3.2211002E-04
  -11.0000  3.1016356E-04  3.5995003E-04  3.4178626E-04
  -10.0000  3.2917078E-04  3.8542119E-04  3.6381534E-04
  -9.00000  3.5040784E-04  4.1441047E-04  3.8863648E-04
  -8.00000  3.7428129E-04  4.4767198E-04  4.1680501E-04
  -7.00000  4.0130326E-04  4.8618685E-04  4.4903358E-04
  -6.00000  4.3212876E-04  5.3125438E-04  4.8625262E-04
  -5.00000  4.6761055E-04  5.8463069E-04  5.2970124E-04
  -4.00000  5.0888253E-04  6.4874654E-04  5.8106876E-04
  -3.00000  5.5749112E-04  7.2706276E-04  6.4272362E-04
  -2.00000  6.1561270E-04  8.2467804E-04  7.1810198E-04
  -1.00000  6.8643544E-04  9.4943021E-04  8.1240752E-04
   0.00000  7.7488546E-04  1.1140463E-03  9.3397189E-04
   1.00000  8.8916501E-04  1.3407851E-03  1.0971842E-03
   2.00000  1.0445590E-03  1.6730099E-03  1.3297765E-03
   3.00000  1.2753688E-03  2.2111374E-03  1.6953497E-03
   4.00000  1.6893414E-03  3.2722053E-03  2.3921294E-03
   5.00000  2.7518114E-03  6.2174060E-03  4.2741600E-03
   5.20000  3.0742135E-03  7.1497491E-03  4.8857060E-03
   5.40000  3.3922618E-03  8.0983471E-03  5.5257041E-03
   5.60000  3.6965185E-03  9.0420396E-03  6.1774084E-03
   5.80000  3.9913060E-03  9.9951518E-03  6.8437724E-03
   6.00000  4.2853377E-03  1.0982863E-02  7.5371628E-03
   6.20000  4.5874030E-03  1.2029932E-02  8.2737733E-03
   6.40000  4.9056118E-03  1.3158683E-02  9.0710526E-03
   6.60000  5.2476744E-03  1.4389644E-02  9.9452519E-03
   6.80000  5.6212618E-03  1.5742552E-02  1.0908357E-02
   7.00000  6.0341962E-03  1.7237310E-02  1.1964803E-02
   7.20000  6.4943537E-03  1.8895078E-02  1.3108969E-02
   7.40000  7.0092061E-03  2.0739521E-02  1.4324676E-02
   7.60000  7.5850412E-03  2.2797968E-02  1.5587499E-02
   7.80000  8.2260458E-03  2.5101965E-02  1.6869710E-02
   8.00000  8.9334725E-03  2.7685890E-02  1.8146296E-02
   8.20000  9.7050755E-03  3.0581784E-02  1.9399838E-02
   8.40000  1.0535051E-02  3.3809743E-02  2.0622644E-02
   8.60000  1.1414745E-02  3.7364766E-02  2.1815928E-02
   8.80000  1.2334291E-02  4.1202244E-02  2.2986914E-02
   9.00000  1.3285084E-02  4.5225888E-02  2.4145107E-02
   9.20000  1.4262463E-02  4.9282685E-02  2.5298832E-02
   9.40000  1.5267564E-02  5.3169149E-02  2.6452877E-02
   9.60000  1.6307299E-02  5.6651066E-02  2.7607554E-02
   9.80000  1.7392197E-02  5.9495370E-02  2.8758609E-02
   10.0000  1.8532801E-02  6.1507888E-02  2.9896891E-02
   10.2500  2.0047102E-02  6.2674806E-02  3.1278742E-02
   10.5000  2.1659985E-02  6.2307661E-02  3.2577711E-02
   10.7500  2.3354109E-02  6.0557798E-02  3.3748762E-02
   11.0000  2.5090194E-02  5.7725157E-02  3.4746874E-02
   11.2500  2.6810485E-02  5.4180789E-02  3.5533894E-02
   11.5000  2.8448573E-02  5.0288003E-02  3.6088806E-02
   11.7500  2.9940869E-02  4.6347722E-02  3.6415198E-02
   12.0000  3.1237954E-02  4.2575012E-02  3.6539488E-02
   12.2500  3.2313311E-02  3.9100480E-02  3.6501946E-02
   12.5000  3.3165431E-02  3.5987061E-02  3.6347528E-02
   12.7500  3.3813736E-02  3.3251128E-02  3.6119174E-02
   13.0000  3.4292291E-02  3.0880324E-02  3.5853707E-02
   13.2500  3.4643420E-02  2.8846025E-02  3.5580007E-02
   13.5000  3.4912015E-02  2.7111705E-02  3.5318852E-02
   13.7500  3.5140442E-02  2.5639185E-02  3.5083984E-02
   14.0000  3.5363641E-02  2.4392995E-02  3.4884590E-02
   14.2500  3.5606009E-02  2.3342106E-02  3.4728373E-02
   14.5000  3.5881539E-02  2.2459882E-02  3.4622924E-02
   14.7500  3.6195835E-02  2.1723605E-02  3.4575174E-02
   15.0000  3.6548207E-02  2.1114057E-02  3.4590210E-02
   15.2500  3.6933390E-02  2.0615118E-02  3.4670230E-02
   15.5000  3.7343026E-02  2.0213355E-02  3.4813798E-02
   15.7500  3.7767028E-02  1.9897590E-02  3.5015447E-02
   16.0000  3.8194823E-02  1.9658493E-02  3.5265631E-02
   16.2500  3.8616414E-02  1.9488228E-02  3.5551090E-02
   16.5000  3.9023182E-02  1.9380155E-02  3.5855605E-02
   16.7500  3.9408347E-02  1.9328610E-02  3.6161132E-02
   17.0000  3.9767085E-02  1.9328731E-02  3.6449216E-02
   17.2500  4.0096327E-02  1.9376336E-02  3.6702516E-02
   17.5000  4.0394331E-02  1.9467823E-02  3.6906234E-02
   17.7500  4.0660166E-02  1.9600093E-02  3.7049245E-02
   18.0000  4.0893231E-02  1.9770487E-02  3.7124765E-02
   18.2500  4.1092903E-02  1.9976729E-02  3.7130495E-02
   18.5000  4.1258360E-02  2.0216878E-02  3.7068276E-02
   18.7500  4.1388572E-02  2.0489292E-02  3.6943355E-02
   19.0000  4.1482426E-02  2.0792608E-02  3.6763423E-02
   19.2500  4.1538921E-02  2.1125743E-02  3.6537565E-02
   19.5000  4.1557402E-02  2.1487908E-02  3.6275262E-02
   19.7500  4.1537794E-02  2.1878564E-02  3.5985604E-02
   20.0000  4.1480845E-02  2.2297222E-02  3.5676891E-02
   21.0000  4.0927802E-02  2.4227284E-02  3.4393206E-02
   22.0000  4.0029693E-02  2.6480669E-02  3.3244079E-02
   23.0000  3.9004448E-02  2.8894978E-02  3.2289154E-02
   24.0000  3.7886387E-02  3.1210170E-02  3.1448131E-02
   25.0000  3.6525717E-02  3.3116694E-02  3.0625610E-02
   26.0000  3.4820892E-02  3.4362714E-02  2.9792056E-02
   27.0000  3.2911709E-02  3.4851997E-02  2.9000428E-02
   28.0000  3.1055490E-02  3.4672313E-02  2.8322464E-02
   29.0000  2.9456038E-02  3.4015391E-02  2.7807193E-02
   30.0000  2.8185757E-02  3.3079159E-02  2.7464958E-02
   31.0000  2.7212319E-02  3.2014906E-02  2.7266641E-02
   32.0000  2.6458705E-02  3.0917857E-02  2.7156885E-02
   33.0000  2.5842019E-02  2.9837950E-02  2.7072926E-02
   34.0000  2.5290583E-02  2.8794678E-02  2.6960072E-02
   35.0000  2.4751230E-02  2.7790690E-02  2.6779120E-02
   36.0000  2.4193915E-02  2.6823360E-02  2.6508923E-02
   37.0000  2.3614941E-02  2.5894228E-02  2.6148415E-02
   38.0000  2.3036981E-02  2.5017533E-02  2.5719851E-02
   39.0000  2.2504453E-02  2.4230223E-02  2.5273387E-02
   40.0000  2.2071726E-02  2.3595275E-02  2.4885081E-02
