    Energy   (100,001)      (010,001)      (001,110)   
  -25.0000  1.6644840E-04  1.7710084E-04  1.7911648E-04
  -24.0000  1.7245178E-04  1.8428518E-04  1.8550591E-04
  -23.0000  1.7885713E-04  1.9201359E-04  1.9232682E-04
  -22.0000  1.8570474E-04  2.0034787E-04  1.9962329E-04
  -21.0000  1.9304037E-04  2.0935936E-04  2.0744556E-04
  -20.0000  2.0091620E-04  2.1913082E-04  2.1585111E-04
  -19.0000  2.0939198E-04  2.2975871E-04  2.2490600E-04
  -18.0000  2.1853649E-04  2.4135618E-04  2.3468656E-04
  -17.0000  2.2842927E-04  2.5405673E-04  2.4528144E-04
  -16.0000  2.3916278E-04  2.6801896E-04  2.5679419E-04
  -15.0000  2.5084515E-04  2.8343262E-04  2.6934654E-04
  -14.0000  2.6360366E-04  3.0052656E-04  2.8308254E-04
  -13.0000  2.7758911E-04  3.1957916E-04  2.9817397E-04
  -12.0000  2.9298157E-04  3.4093220E-04  3.1482731E-04
  -11.0000  3.0999782E-04  3.6500972E-04  3.3329309E-04
  -10.0000  3.2890129E-04  3.9234387E-04  3.5387827E-04
  -9.00000  3.5001537E-04  4.2361101E-04  3.7696334E-04
  -8.00000  3.7374174E-04  4.5968314E-04  4.0302592E-04
  -7.00000  4.0058591E-04  5.0170276E-04  4.3267451E-04
  -6.00000  4.3119373E-04  5.5119448E-04  4.6669757E-04
  -5.00000  4.6640517E-04  6.1023616E-04  5.0613727E-04
  -4.00000  5.0733565E-04  6.8173013E-04  5.5240443E-04
  -3.00000  5.5550436E-04  7.6985004E-04  6.0746509E-04
  -2.00000  6.1304644E-04  8.8081220E-04  6.7416067E-04
  -1.00000  6.8308591E-04  1.0242870E-03  7.5679555E-04
   0.00000  7.7044624E-04  1.2161805E-03  8.6231648E-04
   1.00000  8.8316172E-04  1.4846907E-03  1.0029836E-03
   2.00000  1.0362415E-03  1.8854882E-03  1.2035383E-03
   3.00000  1.2635704E-03  2.5489003E-03  1.5259051E-03
   4.00000  1.6726251E-03  3.8878696E-03  2.1935838E-03
   5.00000  2.7345414E-03  7.6853764E-03  4.2747790E-03
   5.20000  3.0611183E-03  8.9150222E-03  4.9039901E-03
   5.40000  3.3850400E-03  1.0183612E-02  5.4571810E-03
   5.60000  3.6940211E-03  1.1455337E-02  5.8789367E-03
   5.80000  3.9883041E-03  1.2737549E-02  6.1655211E-03
   6.00000  4.2730882E-03  1.4058997E-02  6.3496033E-03
   6.20000  4.5554579E-03  1.5460052E-02  6.4810947E-03
   6.40000  4.8435344E-03  1.6988097E-02  6.6103097E-03
   6.60000  5.1456967E-03  1.8692428E-02  6.7779119E-03
   6.80000  5.4698983E-03  2.0619451E-02  7.0123333E-03
   7.00000  5.8234166E-03  2.2809363E-02  7.3315569E-03
   7.20000  6.2129392E-03  2.5294134E-02  7.7459827E-03
   7.40000  6.6447052E-03  2.8096280E-02  8.2607351E-03
   7.60000  7.1245030E-03  3.1228250E-02  8.8771235E-03
   7.80000  7.6574345E-03  3.4692246E-02  9.5935574E-03
   8.00000  8.2474412E-03  3.8479502E-02  1.0406251E-02
   8.20000  8.8966898E-03  4.2566853E-02  1.1309841E-02
   8.40000  9.6050846E-03  4.6907705E-02  1.2297781E-02
   8.60000  1.0370362E-02  5.1415577E-02  1.3362371E-02
   8.80000  1.1189255E-02  5.5942363E-02  1.4494622E-02
   9.00000  1.2059767E-02  6.0260137E-02  1.5684729E-02
   9.20000  1.2983674E-02  6.4061828E-02  1.6923846E-02
   9.40000  1.3967673E-02  6.6996923E-02  1.8206760E-02
   9.60000  1.5022026E-02  6.8745952E-02  1.9533681E-02
   9.80000  1.6157186E-02  6.9110554E-02  2.0909618E-02
   10.0000  1.7380018E-02  6.8075428E-02  2.2341421E-02
   10.2500  1.9031800E-02  6.5084174E-02  2.4216296E-02
   10.5000  2.0805004E-02  6.0767987E-02  2.6182227E-02
   10.7500  2.2666770E-02  5.5784661E-02  2.8221526E-02
   11.0000  2.4569389E-02  5.0683322E-02  3.0302870E-02
   11.2500  2.6454452E-02  4.5833498E-02  3.2379830E-02
   11.5000  2.8261632E-02  4.1435223E-02  3.4390263E-02
   11.7500  2.9939562E-02  3.7565750E-02  3.6259487E-02
   12.0000  3.1453868E-02  3.4227412E-02  3.7907407E-02
   12.2500  3.2790710E-02  3.1382946E-02  3.9259730E-02
   12.5000  3.3956211E-02  2.8978106E-02  4.0261053E-02
   12.7500  3.4972578E-02  2.6954656E-02  4.0885357E-02
   13.0000  3.5871255E-02  2.5257150E-02  4.1141146E-02
   13.2500  3.6683868E-02  2.3836385E-02  4.1071883E-02
   13.5000  3.7434867E-02  2.2650779E-02  4.0749879E-02
   13.7500  3.8139041E-02  2.1666015E-02  4.0262003E-02
   14.0000  3.8802371E-02  2.0853826E-02  3.9693706E-02
   14.2500  3.9423734E-02  2.0190799E-02  3.9118086E-02
   14.5000  3.9996616E-02  1.9657438E-02  3.8591020E-02
   14.7500  4.0510762E-02  1.9237459E-02  3.8150504E-02
   15.0000  4.0953807E-02  1.8917258E-02  3.7818183E-02
   15.2500  4.1312844E-02  1.8685496E-02  3.7601682E-02
   15.5000  4.1575892E-02  1.8532762E-02  3.7497049E-02
   15.7500  4.1733198E-02  1.8451289E-02  3.7491058E-02
   16.0000  4.1778356E-02  1.8434703E-02  3.7563442E-02
   16.2500  4.1709193E-02  1.8477792E-02  3.7689168E-02
   16.5000  4.1528343E-02  1.8576286E-02  3.7840862E-02
   16.7500  4.1243454E-02  1.8726634E-02  3.7991319E-02
   17.0000  4.0866938E-02  1.8925795E-02  3.8115917E-02
   17.2500  4.0415286E-02  1.9171050E-02  3.8194632E-02
   17.5000  3.9907981E-02  1.9459850E-02  3.8213397E-02
   17.7500  3.9366176E-02  1.9789709E-02  3.8164630E-02
   18.0000  3.8811303E-02  2.0158147E-02  3.8046953E-02
   18.2500  3.8263791E-02  2.0562662E-02  3.7864263E-02
   18.5000  3.7742012E-02  2.1000747E-02  3.7624416E-02
   18.7500  3.7261535E-02  2.1469920E-02  3.7337765E-02
   19.0000  3.6834678E-02  2.1967776E-02  3.7015774E-02
   19.2500  3.6470335E-02  2.2492057E-02  3.6669823E-02
   19.5000  3.6174013E-02  2.3040712E-02  3.6310279E-02
   19.7500  3.5948021E-02  2.3611854E-02  3.5945899E-02
   20.0000  3.5791773E-02  2.4203452E-02  3.5583675E-02
   21.0000  3.5779492E-02  2.6703304E-02  3.4252500E-02
   22.0000  3.6422492E-02  2.9194813E-02  3.3208020E-02
   23.0000  3.7180256E-02  3.1366220E-02  3.2402999E-02
   24.0000  3.7499506E-02  3.2939260E-02  3.1718675E-02
   25.0000  3.6981766E-02  3.3768769E-02  3.1058605E-02
   26.0000  3.5580415E-02  3.3884257E-02  3.0382716E-02
   27.0000  3.3636451E-02  3.3442556E-02  2.9714516E-02
   28.0000  3.1637571E-02  3.2638321E-02  2.9124534E-02
   29.0000  2.9932388E-02  3.1635628E-02  2.8688108E-02
   30.0000  2.8639994E-02  3.0544682E-02  2.8438126E-02
   31.0000  2.7715361E-02  2.9433780E-02  2.8345867E-02
   32.0000  2.7042825E-02  2.8343812E-02  2.8339348E-02
   33.0000  2.6507747E-02  2.7285593E-02  2.8338237E-02
   34.0000  2.6021809E-02  2.6254265E-02  2.8277973E-02
   35.0000  2.5524683E-02  2.5244726E-02  2.8115180E-02
   36.0000  2.4981806E-02  2.4259219E-02  2.7825377E-02
   37.0000  2.4383351E-02  2.3311841E-02  2.7403208E-02
   38.0000  2.3747180E-02  2.2431146E-02  2.6869626E-02
   39.0000  2.3124960E-02  2.1661197E-02  2.6286645E-02
   40.0000  2.2598601E-02  2.1055218E-02  2.5764184E-02
