    Energy   (100,001)      (010,001)      (001,110)   
  -25.0000  1.6503166E-04  1.8311715E-04  1.7579690E-04
  -24.0000  1.7108642E-04  1.9006661E-04  1.8219156E-04
  -23.0000  1.7755205E-04  1.9751657E-04  1.8902314E-04
  -22.0000  1.8447021E-04  2.0552160E-04  1.9633651E-04
  -21.0000  1.9188830E-04  2.1414440E-04  2.0418280E-04
  -20.0000  1.9986042E-04  2.2345729E-04  2.1262051E-04
  -19.0000  2.0844868E-04  2.3354416E-04  2.2171688E-04
  -18.0000  2.1772465E-04  2.4450285E-04  2.3154955E-04
  -17.0000  2.2777128E-04  2.5644813E-04  2.4220865E-04
  -16.0000  2.3868519E-04  2.6951545E-04  2.5379942E-04
  -15.0000  2.5057966E-04  2.8386583E-04  2.6644544E-04
  -14.0000  2.6358835E-04  2.9969206E-04  2.8029281E-04
  -13.0000  2.7787008E-04  3.1722685E-04  2.9551551E-04
  -12.0000  2.9361512E-04  3.3675361E-04  3.1232232E-04
  -11.0000  3.1105338E-04  3.5862086E-04  3.3096599E-04
  -10.0000  3.3046536E-04  3.8326184E-04  3.5175538E-04
  -9.00000  3.5219709E-04  4.1122153E-04  3.7507207E-04
  -8.00000  3.7668070E-04  4.4319476E-04  4.0139306E-04
  -7.00000  4.0446351E-04  4.8008084E-04  4.3132291E-04
  -6.00000  4.3625012E-04  5.2306390E-04  4.6563987E-04
  -5.00000  4.7296505E-04  5.7373426E-04  5.0536414E-04
  -4.00000  5.1584935E-04  6.3427760E-04  5.5186222E-04
  -3.00000  5.6661558E-04  7.0778108E-04  6.0701247E-04
  -2.00000  6.2770970E-04  7.9875234E-04  6.7348088E-04
  -1.00000  7.0278310E-04  9.1405058E-04  7.5520947E-04
   0.00000  7.9761781E-04  1.0646864E-03  8.5835282E-04
   1.00000  9.2215829E-04  1.2696670E-03  9.9328169E-04
   2.00000  1.0957493E-03  1.5654829E-03  1.1795903E-03
   3.00000  1.3642829E-03  2.0352938E-03  1.4619152E-03
   4.00000  1.8815182E-03  2.9374556E-03  1.9820810E-03
   5.00000  3.3441054E-03  5.3725025E-03  3.3666355E-03
   5.20000  3.7969492E-03  6.1423079E-03  3.8068310E-03
   5.40000  4.2365405E-03  6.9298679E-03  4.2569599E-03
   5.60000  4.6443524E-03  7.7173064E-03  4.7016068E-03
   5.80000  5.0229593E-03  8.5144376E-03  5.1369518E-03
   6.00000  5.3823054E-03  9.3396416E-03  5.5600443E-03
   6.20000  5.7328296E-03  1.0210944E-02  5.9653091E-03
   6.40000  6.0835995E-03  1.1144386E-02  6.3473769E-03
   6.60000  6.4420640E-03  1.2154583E-02  6.7063705E-03
   6.80000  6.8144859E-03  1.3255660E-02  7.0515333E-03
   7.00000  7.2068250E-03  1.4462239E-02  7.4006152E-03
   7.20000  7.6255242E-03  1.5790320E-02  7.7760263E-03
   7.40000  8.0777303E-03  1.7257877E-02  8.2006628E-03
   7.60000  8.5710047E-03  1.8885050E-02  8.6951172E-03
   7.80000  9.1128399E-03  2.0694029E-02  9.2763642E-03
   8.00000  9.7101448E-03  2.2708543E-02  9.9574501E-03
   8.20000  1.0368651E-02  2.4952692E-02  1.0747725E-02
   8.40000  1.1092249E-02  2.7448938E-02  1.1653353E-02
   8.60000  1.1882396E-02  3.0215034E-02  1.2677909E-02
   8.80000  1.2737846E-02  3.3259587E-02  1.3822905E-02
   9.00000  1.3655031E-02  3.6575939E-02  1.5088185E-02
   9.20000  1.4629204E-02  4.0134438E-02  1.6472214E-02
   9.40000  1.5656052E-02  4.3873793E-02  1.7972345E-02
   9.60000  1.6733046E-02  4.7693344E-02  1.9585080E-02
   9.80000  1.7859811E-02  5.1449335E-02  2.1306298E-02
   10.0000  1.9037172E-02  5.4958737E-02  2.3131178E-02
   10.2500  2.0579667E-02  5.8680897E-02  2.5548076E-02
   10.5000  2.2192944E-02  6.1295673E-02  2.8096809E-02
   10.7500  2.3854961E-02  6.2512300E-02  3.0743135E-02
   11.0000  2.5526419E-02  6.2231912E-02  3.3431529E-02
   11.2500  2.7153414E-02  6.0573274E-02  3.6080960E-02
   11.5000  2.8676769E-02  5.7826050E-02  3.8586532E-02
   11.7500  3.0043743E-02  5.4359430E-02  4.0828749E-02
   12.0000  3.1216944E-02  5.0533190E-02  4.2692566E-02
   12.2500  3.2179513E-02  4.6642378E-02  4.4094345E-02
   12.5000  3.2936594E-02  4.2897411E-02  4.5003163E-02
   12.7500  3.3512266E-02  3.9428208E-02  4.5443851E-02
   13.0000  3.3943069E-02  3.6300493E-02  4.5484025E-02
   13.2500  3.4270880E-02  3.3534922E-02  4.5214471E-02
   13.5000  3.4537254E-02  3.1123613E-02  4.4730702E-02
   13.7500  3.4779712E-02  2.9042567E-02  4.4119794E-02
   14.0000  3.5029617E-02  2.7260302E-02  4.3453269E-02
   14.2500  3.5311237E-02  2.5743379E-02  4.2784952E-02
   14.5000  3.5641613E-02  2.4459604E-02  4.2152023E-02
   14.7500  3.6030902E-02  2.3379618E-02  4.1577630E-02
   15.0000  3.6482936E-02  2.2477496E-02  4.1073953E-02
   15.2500  3.6995842E-02  2.1730775E-02  4.0645042E-02
   15.5000  3.7562664E-02  2.1120204E-02  4.0289135E-02
   15.7500  3.8171975E-02  2.0629377E-02  4.0000376E-02
   16.0000  3.8808531E-02  2.0244348E-02  3.9769969E-02
   16.2500  3.9454066E-02  1.9953254E-02  3.9586969E-02
   16.5000  4.0088297E-02  1.9745991E-02  3.9438899E-02
   16.7500  4.0690184E-02  1.9613917E-02  3.9312394E-02
   17.0000  4.1239433E-02  1.9549600E-02  3.9193973E-02
   17.2500  4.1718111E-02  1.9546600E-02  3.9070933E-02
   17.5000  4.2112182E-02  1.9599282E-02  3.8932231E-02
   17.7500  4.2412747E-02  1.9702665E-02  3.8769232E-02
   18.0000  4.2616753E-02  1.9852299E-02  3.8576153E-02
   18.2500  4.2727046E-02  2.0044167E-02  3.8350166E-02
   18.5000  4.2751747E-02  2.0274621E-02  3.8091173E-02
   18.7500  4.2703061E-02  2.0540334E-02  3.7801323E-02
   19.0000  4.2595726E-02  2.0838293E-02  3.7484388E-02
   19.2500  4.2445347E-02  2.1165825E-02  3.7145083E-02
   19.5000  4.2266825E-02  2.1520641E-02  3.6788424E-02
   19.7500  4.2073119E-02  2.1900832E-02  3.6419222E-02
   20.0000  4.1874508E-02  2.2304700E-02  3.6041878E-02
   21.0000  4.1145192E-02  2.4114588E-02  3.4531040E-02
   22.0000  4.0530820E-02  2.6137836E-02  3.3140026E-02
   23.0000  3.9754667E-02  2.8264964E-02  3.1898328E-02
   24.0000  3.8511078E-02  3.0352430E-02  3.0776338E-02
   25.0000  3.6686584E-02  3.2198494E-02  2.9757174E-02
   26.0000  3.4397548E-02  3.3587829E-02  2.8837395E-02
   27.0000  3.1918259E-02  3.4379183E-02  2.8010737E-02
   28.0000  2.9573141E-02  3.4569981E-02  2.7283437E-02
   29.0000  2.7618485E-02  3.4283343E-02  2.6688254E-02
   30.0000  2.6137314E-02  3.3684768E-02  2.6253267E-02
   31.0000  2.5090019E-02  3.2916320E-02  2.5985400E-02
   32.0000  2.4388769E-02  3.2071457E-02  2.5861148E-02
   33.0000  2.3933129E-02  3.1195861E-02  2.5827414E-02
   34.0000  2.3625769E-02  3.0301219E-02  2.5816572E-02
   35.0000  2.3378241E-02  2.9382840E-02  2.5763853E-02
   36.0000  2.3115448E-02  2.8435778E-02  2.5619743E-02
   37.0000  2.2784723E-02  2.7467515E-02  2.5357912E-02
   38.0000  2.2370549E-02  2.6508185E-02  2.4983141E-02
   39.0000  2.1909682E-02  2.5619954E-02  2.4543276E-02
   40.0000  2.1488856E-02  2.4895041E-02  2.4133966E-02
