    Energy   (100,001)      (010,001)      (001,110)   
  -25.0000  1.6766597E-04  1.8922012E-04  1.7079513E-04
  -24.0000  1.7398266E-04  1.9613390E-04  1.7717951E-04
  -23.0000  1.8074116E-04  2.0353461E-04  1.8400815E-04
  -22.0000  1.8798773E-04  2.1147466E-04  1.9132727E-04
  -21.0000  1.9577515E-04  2.2001420E-04  1.9918960E-04
  -20.0000  2.0416399E-04  2.2922256E-04  2.0765556E-04
  -19.0000  2.1322403E-04  2.3918007E-04  2.1679465E-04
  -18.0000  2.2303610E-04  2.4998033E-04  2.2668728E-04
  -17.0000  2.3369430E-04  2.6173304E-04  2.3742690E-04
  -16.0000  2.4530886E-04  2.7456757E-04  2.4912276E-04
  -15.0000  2.5800974E-04  2.8863756E-04  2.6190336E-04
  -14.0000  2.7195118E-04  3.0412685E-04  2.7592084E-04
  -13.0000  2.8731767E-04  3.2125719E-04  2.9135667E-04
  -12.0000  3.0433173E-04  3.4029849E-04  3.0842894E-04
  -11.0000  3.2326423E-04  3.6158251E-04  3.2740208E-04
  -10.0000  3.4444832E-04  3.8552151E-04  3.4859983E-04
  -9.00000  3.6829845E-04  4.1263405E-04  3.7242272E-04
  -8.00000  3.9533700E-04  4.4358134E-04  3.9937235E-04
  -7.00000  4.2623220E-04  4.7921959E-04  4.3008537E-04
  -6.00000  4.6185356E-04  5.2067715E-04  4.6538259E-04
  -5.00000  5.0335525E-04  5.6947157E-04  5.0634136E-04
  -4.00000  5.5230601E-04  6.2769298E-04  5.5440604E-04
  -3.00000  6.1089970E-04  6.9830283E-04  6.1156265E-04
  -2.00000  6.8231484E-04  7.8564447E-04  6.8062849E-04
  -1.00000  7.7136820E-04  8.9636886E-04  7.6576096E-04
   0.00000  8.8580636E-04  1.0412477E-03  8.7342340E-04
   1.00000  1.0391581E-03  1.2391114E-03  1.0144228E-03
   2.00000  1.2581092E-03  1.5267624E-03  1.2089172E-03
   3.00000  1.6066351E-03  1.9901947E-03  1.5019577E-03
   4.00000  2.3000882E-03  2.9054024E-03  2.0335030E-03
   5.00000  4.3136593E-03  5.4755095E-03  3.4047216E-03
   5.20000  4.9409754E-03  6.2895722E-03  3.8274114E-03
   5.40000  5.5511988E-03  7.1135504E-03  4.2523299E-03
   5.60000  6.1197730E-03  7.9270823E-03  4.6675827E-03
   5.80000  6.6512779E-03  8.7411284E-03  5.0755670E-03
   6.00000  7.1599680E-03  9.5755100E-03  5.4818599E-03
   6.20000  7.6604317E-03  1.0448540E-02  5.8913087E-03
   6.40000  8.1656329E-03  1.1375160E-02  6.3087037E-03
   6.60000  8.6872041E-03  1.2367655E-02  6.7404569E-03
   6.80000  9.2361074E-03  1.3436855E-02  7.1958947E-03
   7.00000  9.8231801E-03  1.4593366E-02  7.6876499E-03
   7.20000  1.0459424E-02  1.5848505E-02  8.2309625E-03
   7.40000  1.1155984E-02  1.7214572E-02  8.8421160E-03
   7.60000  1.1923706E-02  1.8704105E-02  9.5366167E-03
   7.80000  1.2772175E-02  2.0328015E-02  1.0327758E-02
   8.00000  1.3708187E-02  2.2092885E-02  1.1225965E-02
   8.20000  1.4733997E-02  2.3998229E-02  1.2239005E-02
   8.40000  1.5846011E-02  2.6035016E-02  1.3372980E-02
   8.60000  1.7034875E-02  2.8186856E-02  1.4633820E-02
   8.80000  1.8287633E-02  3.0434403E-02  1.6028715E-02
   9.00000  1.9591882E-02  3.2761532E-02  1.7566786E-02
   9.20000  2.0940289E-02  3.5159458E-02  1.9258423E-02
   9.40000  2.2332554E-02  3.7624382E-02  2.1113053E-02
   9.60000  2.3772814E-02  4.0147626E-02  2.3135488E-02
   9.80000  2.5263409E-02  4.2702101E-02  2.5321387E-02
   10.0000  2.6798006E-02  4.5231170E-02  2.7652449E-02
   10.2500  2.8747113E-02  4.8216284E-02  3.0712903E-02
   10.5000  3.0667206E-02  5.0783653E-02  3.3827088E-02
   10.7500  3.2473001E-02  5.2676790E-02  3.6840695E-02
   11.0000  3.4077790E-02  5.3678360E-02  3.9580614E-02
   11.2500  3.5409922E-02  5.3670015E-02  4.1885851E-02
   11.5000  3.6427415E-02  5.2672302E-02  4.3638910E-02
   11.7500  3.7126170E-02  5.0841153E-02  4.4785220E-02
   12.0000  3.7536887E-02  4.8416824E-02  4.5338105E-02
   12.2500  3.7713099E-02  4.5656235E-02  4.5369549E-02
   12.5000  3.7717290E-02  4.2782761E-02  4.4988596E-02
   12.7500  3.7609921E-02  3.9963815E-02  4.4316485E-02
   13.0000  3.7442778E-02  3.7309547E-02  4.3467495E-02
   13.2500  3.7256228E-02  3.4881873E-02  4.2538818E-02
   13.5000  3.7079291E-02  3.2706757E-02  4.1607485E-02
   13.7500  3.6931295E-02  3.0786221E-02  4.0731040E-02
   14.0000  3.6824050E-02  2.9108162E-02  3.9949885E-02
   14.2500  3.6763843E-02  2.7653385E-02  3.9290124E-02
   14.5000  3.6752895E-02  2.6400123E-02  3.8766279E-02
   14.7500  3.6790246E-02  2.5326666E-02  3.8383579E-02
   15.0000  3.6872153E-02  2.4412701E-02  3.8139712E-02
   15.2500  3.6992241E-02  2.3639883E-02  3.8026131E-02
   15.5000  3.7141610E-02  2.2991946E-02  3.8029024E-02
   15.7500  3.7309093E-02  2.2454606E-02  3.8130135E-02
   16.0000  3.7481776E-02  2.2015358E-02  3.8307597E-02
   16.2500  3.7645845E-02  2.1663249E-02  3.8536924E-02
   16.5000  3.7787730E-02  2.1388669E-02  3.8792229E-02
   16.7500  3.7895437E-02  2.1183172E-02  3.9047684E-02
   17.0000  3.7959864E-02  2.1039316E-02  3.9279104E-02
   17.2500  3.7975875E-02  2.0950552E-02  3.9465499E-02
   17.5000  3.7942931E-02  2.0911122E-02  3.9590383E-02
   17.7500  3.7865125E-02  2.0915987E-02  3.9642622E-02
   18.0000  3.7750609E-02  2.0960765E-02  3.9616734E-02
   18.2500  3.7610517E-02  2.1041679E-02  3.9512583E-02
   18.5000  3.7457586E-02  2.1155524E-02  3.9334588E-02
   18.7500  3.7304722E-02  2.1299635E-02  3.9090592E-02
   19.0000  3.7163718E-02  2.1471867E-02  3.8790583E-02
   19.2500  3.7044291E-02  2.1670589E-02  3.8445425E-02
   19.5000  3.6953475E-02  2.1894675E-02  3.8065755E-02
   19.7500  3.6895354E-02  2.2143451E-02  3.7661174E-02
   20.0000  3.6871053E-02  2.2416539E-02  3.7239936E-02
   21.0000  3.7049777E-02  2.3742168E-02  3.5518446E-02
   22.0000  3.7379109E-02  2.5412270E-02  3.3916178E-02
   23.0000  3.7404807E-02  2.7354186E-02  3.2472391E-02
   24.0000  3.6750785E-02  2.9403208E-02  3.1134955E-02
   25.0000  3.5253806E-02  3.1315301E-02  2.9849127E-02
   26.0000  3.3045718E-02  3.2845307E-02  2.8587542E-02
   27.0000  3.0520316E-02  3.3836104E-02  2.7376471E-02
   28.0000  2.8137864E-02  3.4266696E-02  2.6294290E-02
   29.0000  2.6167681E-02  3.4236256E-02  2.5407477E-02
   30.0000  2.4677346E-02  3.3887961E-02  2.4745789E-02
   31.0000  2.3621919E-02  3.3350072E-02  2.4299491E-02
   32.0000  2.2910371E-02  3.2712911E-02  2.4024328E-02
   33.0000  2.2444101E-02  3.2027836E-02  2.3855764E-02
   34.0000  2.2134383E-02  3.1317894E-02  2.3724473E-02
   35.0000  2.1908325E-02  3.0592410E-02  2.3569072E-02
   36.0000  2.1711265E-02  2.9860458E-02  2.3346896E-02
   37.0000  2.1509381E-02  2.9139291E-02  2.3043829E-02
   38.0000  2.1291930E-02  2.8455744E-02  2.2680164E-02
   39.0000  2.1071429E-02  2.7846228E-02  2.2306467E-02
   40.0000  2.0877660E-02  2.7359180E-02  2.1987331E-02
