    Energy   (100,001)      (010,001)      (001,110)   
  -25.0000  1.7231607E-04  1.8483173E-04  1.8413390E-04
  -24.0000  1.7871198E-04  1.9173101E-04  1.9096263E-04
  -23.0000  1.8555317E-04  1.9912291E-04  1.9827437E-04
  -22.0000  1.9288629E-04  2.0706093E-04  2.0612094E-04
  -21.0000  2.0076461E-04  2.1560654E-04  2.1456173E-04
  -20.0000  2.0924926E-04  2.2483063E-04  2.2366513E-04
  -19.0000  2.1841070E-04  2.3481546E-04  2.3351030E-04
  -18.0000  2.2833059E-04  2.4565693E-04  2.4418935E-04
  -17.0000  2.3910408E-04  2.5746754E-04  2.5581008E-04
  -16.0000  2.5084268E-04  2.7038012E-04  2.6849948E-04
  -15.0000  2.6367792E-04  2.8455257E-04  2.8240810E-04
  -14.0000  2.7776606E-04  3.0017400E-04  2.9771581E-04
  -13.0000  2.9329412E-04  3.1747278E-04  3.1463922E-04
  -12.0000  3.1048787E-04  3.3672716E-04  3.3344156E-04
  -11.0000  3.2962234E-04  3.5827951E-04  3.5444585E-04
  -10.0000  3.5103606E-04  3.8255575E-04  3.7805286E-04
  -9.00000  3.7515054E-04  4.1009219E-04  4.0476599E-04
  -8.00000  4.0249735E-04  4.4157335E-04  4.3522633E-04
  -7.00000  4.3375684E-04  4.7788647E-04  4.7026339E-04
  -6.00000  4.6981434E-04  5.2020181E-04  5.1097002E-04
  -5.00000  5.1184460E-04  5.7009428E-04  5.5881695E-04
  -4.00000  5.6144211E-04  6.2973385E-04  6.1583350E-04
  -3.00000  6.2083056E-04  7.0219489E-04  6.8490546E-04
  -2.00000  6.9321477E-04  7.9198293E-04  7.7029161E-04
  -1.00000  7.8340678E-04  9.0598483E-04  8.7857926E-04
   0.00000  8.9902267E-04  1.0553153E-03  1.0206048E-03
   1.00000  1.0529998E-03  1.2592852E-03  1.2157695E-03
   2.00000  1.2696485E-03  1.5552433E-03  1.5033894E-03
   3.00000  1.6024430E-03  2.0289815E-03  1.9804639E-03
   4.00000  2.2065867E-03  2.9488697E-03  2.9833880E-03
   5.00000  3.7089177E-03  5.4583359E-03  6.0217036E-03
   5.20000  4.2050256E-03  6.2509876E-03  6.9286909E-03
   5.40000  4.7572059E-03  7.0619705E-03  7.7822063E-03
   5.60000  5.3694525E-03  7.8770817E-03  8.5780297E-03
   5.80000  6.0531348E-03  8.7116279E-03  9.3608467E-03
   6.00000  6.8145025E-03  9.5889479E-03  1.0170636E-02
   6.20000  7.6484473E-03  1.0530499E-02  1.1020382E-02
   6.40000  8.5413510E-03  1.1553866E-02  1.1901125E-02
   6.60000  9.4816072E-03  1.2672952E-02  1.2801519E-02
   6.80000  1.0470358E-02  1.3898275E-02  1.3725762E-02
   7.00000  1.1523386E-02  1.5237208E-02  1.4695934E-02
   7.20000  1.2662244E-02  1.6694780E-02  1.5738502E-02
   7.40000  1.3899765E-02  1.8275524E-02  1.6865963E-02
   7.60000  1.5225783E-02  1.9986035E-02  1.8064084E-02
   7.80000  1.6598340E-02  2.1837235E-02  1.9291010E-02
   8.00000  1.7947902E-02  2.3845437E-02  2.0492262E-02
   8.20000  1.9200622E-02  2.6031668E-02  2.1629487E-02
   8.40000  2.0313008E-02  2.8418657E-02  2.2707129E-02
   8.60000  2.1294279E-02  3.1024625E-02  2.3775349E-02
   8.80000  2.2198943E-02  3.3854168E-02  2.4905203E-02
   9.00000  2.3098182E-02  3.6888657E-02  2.6155762E-02
   9.20000  2.4051795E-02  4.0078958E-02  2.7553624E-02
   9.40000  2.5092400E-02  4.3341650E-02  2.9088980E-02
   9.60000  2.6220850E-02  4.6558958E-02  3.0722119E-02
   9.80000  2.7408552E-02  4.9583343E-02  3.2394411E-02
   10.0000  2.8604222E-02  5.2248492E-02  3.4040431E-02
   10.2500  3.0012596E-02  5.4822251E-02  3.5968524E-02
   10.5000  3.1212821E-02  5.6308864E-02  3.7669149E-02
   10.7500  3.2121160E-02  5.6574856E-02  3.9095113E-02
   11.0000  3.2711446E-02  5.5659553E-02  4.0244124E-02
   11.2500  3.3011639E-02  5.3757527E-02  4.1147063E-02
   11.5000  3.3084565E-02  5.1154388E-02  4.1844244E-02
   11.7500  3.3006933E-02  4.8150252E-02  4.2360125E-02
   12.0000  3.2853739E-02  4.5003473E-02  4.2695077E-02
   12.2500  3.2689377E-02  4.1905256E-02  4.2833369E-02
   12.5000  3.2563298E-02  3.8978560E-02  4.2756842E-02
   12.7500  3.2508893E-02  3.6290220E-02  4.2457871E-02
   13.0000  3.2546056E-02  3.3867377E-02  4.1947978E-02
   13.2500  3.2685362E-02  3.1712351E-02  4.1260134E-02
   13.5000  3.2930778E-02  2.9813238E-02  4.0444178E-02
   13.7500  3.3279680E-02  2.8150774E-02  3.9556756E-02
   14.0000  3.3722297E-02  2.6702932E-02  3.8651129E-02
   14.2500  3.4242905E-02  2.5447781E-02  3.7771351E-02
   14.5000  3.4822083E-02  2.4364962E-02  3.6950410E-02
   14.7500  3.5438622E-02  2.3436273E-02  3.6210287E-02
   15.0000  3.6070868E-02  2.2645784E-02  3.5562953E-02
   15.2500  3.6697733E-02  2.1979715E-02  3.5011879E-02
   15.5000  3.7299536E-02  2.1426204E-02  3.4553762E-02
   15.7500  3.7858715E-02  2.0975031E-02  3.4180247E-02
   16.0000  3.8360372E-02  2.0617338E-02  3.3879519E-02
   16.2500  3.8792661E-02  2.0345367E-02  3.3637745E-02
   16.5000  3.9147030E-02  2.0152235E-02  3.3440361E-02
   16.7500  3.9418348E-02  2.0031750E-02  3.3273206E-02
   17.0000  3.9604932E-02  1.9978264E-02  3.3123477E-02
   17.2500  3.9708485E-02  1.9986561E-02  3.2980474E-02
   17.5000  3.9733906E-02  2.0051780E-02  3.2836094E-02
   17.7500  3.9688953E-02  2.0169367E-02  3.2685044E-02
   18.0000  3.9583710E-02  2.0335044E-02  3.2524779E-02
   18.2500  3.9429897E-02  2.0544809E-02  3.2355186E-02
   18.5000  3.9240029E-02  2.0794928E-02  3.2178082E-02
   18.7500  3.9026547E-02  2.1081948E-02  3.1996611E-02
   19.0000  3.8800971E-02  2.1402712E-02  3.1814603E-02
   19.2500  3.8573187E-02  2.1754386E-02  3.1635985E-02
   19.5000  3.8350897E-02  2.2134487E-02  3.1464278E-02
   19.7500  3.8139282E-02  2.2540838E-02  3.1302235E-02
   20.0000  3.7940917E-02  2.2971338E-02  3.1151650E-02
   21.0000  3.7256691E-02  2.4877075E-02  3.0670356E-02
   22.0000  3.6535735E-02  2.6925914E-02  3.0324565E-02
   23.0000  3.5417552E-02  2.8939410E-02  2.9970936E-02
   24.0000  3.3735638E-02  3.0758213E-02  2.9494188E-02
   25.0000  3.1664367E-02  3.2245993E-02  2.8863450E-02
   26.0000  2.9575134E-02  3.3299493E-02  2.8126919E-02
   27.0000  2.7781366E-02  3.3873905E-02  2.7380698E-02
   28.0000  2.6412390E-02  3.4000817E-02  2.6721184E-02
   29.0000  2.5450605E-02  3.3766941E-02  2.6206201E-02
   30.0000  2.4813779E-02  3.3279103E-02  2.5848751E-02
   31.0000  2.4404747E-02  3.2638259E-02  2.5627581E-02
   32.0000  2.4137439E-02  3.1909692E-02  2.5499458E-02
   33.0000  2.3943195E-02  3.1129049E-02  2.5416546E-02
   34.0000  2.3771693E-02  3.0317872E-02  2.5341356E-02
   35.0000  2.3591823E-02  2.9492330E-02  2.5255051E-02
   36.0000  2.3389989E-02  2.8667509E-02  2.5157872E-02
   37.0000  2.3165870E-02  2.7858421E-02  2.5061326E-02
   38.0000  2.2928470E-02  2.7083179E-02  2.4976266E-02
   39.0000  2.2696282E-02  2.6375673E-02  2.4906191E-02
   40.0000  2.2498175E-02  2.5797937E-02  2.4851388E-02
