    Energy   (100,001)      (010,001)      (001,110)   
  -25.0000  1.7143468E-04  1.8512754E-04  1.8138220E-04
  -24.0000  1.7775661E-04  1.9204943E-04  1.8820016E-04
  -23.0000  1.8451577E-04  1.9946542E-04  1.9550447E-04
  -22.0000  1.9175764E-04  2.0742911E-04  2.0334769E-04
  -21.0000  1.9953419E-04  2.1600207E-04  2.1179010E-04
  -20.0000  2.0790495E-04  2.2525531E-04  2.2090122E-04
  -19.0000  2.1693854E-04  2.3527118E-04  2.3076161E-04
  -18.0000  2.2671436E-04  2.4614571E-04  2.4146515E-04
  -17.0000  2.3732488E-04  2.5799151E-04  2.5312189E-04
  -16.0000  2.4887835E-04  2.7094149E-04  2.6586165E-04
  -15.0000  2.6150233E-04  2.8515364E-04  2.7983872E-04
  -14.0000  2.7534819E-04  3.0081712E-04  2.9523780E-04
  -13.0000  2.9059690E-04  3.1816031E-04  3.1228189E-04
  -12.0000  3.0746666E-04  3.3746142E-04  3.3124277E-04
  -11.0000  3.2622293E-04  3.5906271E-04  3.5245504E-04
  -10.0000  3.4719202E-04  3.8338986E-04  3.7633542E-04
  -9.00000  3.7077965E-04  4.1097884E-04  4.0340957E-04
  -8.00000  3.9749677E-04  4.4251366E-04  4.3435026E-04
  -7.00000  4.2799635E-04  4.7888096E-04  4.7003291E-04
  -6.00000  4.6312698E-04  5.2125040E-04  5.1161850E-04
  -5.00000  5.0401326E-04  5.7119680E-04  5.6068121E-04
  -4.00000  5.5218044E-04  6.3089167E-04  6.1941207E-04
  -3.00000  6.0975538E-04  7.0341569E-04  6.9095790E-04
  -2.00000  6.7980718E-04  7.9329358E-04  7.8001527E-04
  -1.00000  7.6696086E-04  9.0746633E-04  8.9394017E-04
   0.00000  8.7859580E-04  1.0572017E-03  1.0449972E-03
   1.00000  1.0274536E-03  1.2622674E-03  1.2554420E-03
   2.00000  1.2382588E-03  1.5615288E-03  1.5708878E-03
   3.00000  1.5689361E-03  2.0468201E-03  2.1044267E-03
   4.00000  2.2088224E-03  3.0191302E-03  3.2450969E-03
   5.00000  3.9922446E-03  5.8044250E-03  6.7495811E-03
   5.20000  4.5440175E-03  6.6667096E-03  7.8376064E-03
   5.40000  5.0914810E-03  7.5104121E-03  8.8856524E-03
   5.60000  5.6209918E-03  8.3100657E-03  9.8647968E-03
   5.80000  6.1373956E-03  9.0816018E-03  1.0807787E-02
   6.00000  6.6474211E-03  9.8547859E-03  1.1769934E-02
   6.20000  7.1567916E-03  1.0659372E-02  1.2811913E-02
   6.40000  7.6732693E-03  1.1520517E-02  1.3994730E-02
   6.60000  8.2083918E-03  1.2457280E-02  1.5373464E-02
   6.80000  8.7766866E-03  1.3482894E-02  1.6986943E-02
   7.00000  9.3936259E-03  1.4606643E-02  1.8843782E-02
   7.20000  1.0073561E-02  1.5836931E-02  2.0904321E-02
   7.40000  1.0828500E-02  1.7184996E-02  2.3062194E-02
   7.60000  1.1668488E-02  1.8668256E-02  2.5139724E-02
   7.80000  1.2603719E-02  2.0311439E-02  2.6917485E-02
   8.00000  1.3646923E-02  2.2143839E-02  2.8203111E-02
   8.20000  1.4813098E-02  2.4192962E-02  2.8907687E-02
   8.40000  1.6114880E-02  2.6477605E-02  2.9078327E-02
   8.60000  1.7555408E-02  2.9004010E-02  2.8866361E-02
   8.80000  1.9122736E-02  3.1765838E-02  2.8460396E-02
   9.00000  2.0788638E-02  3.4745372E-02  2.8027991E-02
   9.20000  2.2512009E-02  3.7912634E-02  2.7686947E-02
   9.40000  2.4245168E-02  4.1220594E-02  2.7502328E-02
   9.60000  2.5940751E-02  4.4596940E-02  2.7496709E-02
   9.80000  2.7557217E-02  4.7935414E-02  2.7663819E-02
   10.0000  2.9061923E-02  5.1091654E-02  2.7980658E-02
   10.2500  3.0750528E-02  5.4509899E-02  2.8539956E-02
   10.5000  3.2196080E-02  5.7001880E-02  2.9219920E-02
   10.7500  3.3372941E-02  5.8267501E-02  2.9956306E-02
   11.0000  3.4260459E-02  5.8164100E-02  3.0688069E-02
   11.2500  3.4851850E-02  5.6759948E-02  3.1362309E-02
   11.5000  3.5164304E-02  5.4311657E-02  3.1941617E-02
   11.7500  3.5241461E-02  5.1176061E-02  3.2408041E-02
   12.0000  3.5146329E-02  4.7710194E-02  3.2761450E-02
   12.2500  3.4949057E-02  4.4203872E-02  3.3015765E-02
   12.5000  3.4715746E-02  4.0855758E-02  3.3194592E-02
   12.7500  3.4501173E-02  3.7780439E-02  3.3325945E-02
   13.0000  3.4345046E-02  3.5029085E-02  3.3437272E-02
   13.2500  3.4271489E-02  3.2611477E-02  3.3552660E-02
   13.5000  3.4291058E-02  3.0513653E-02  3.3691978E-02
   13.7500  3.4403884E-02  2.8709704E-02  3.3870767E-02
   14.0000  3.4602806E-02  2.7168842E-02  3.4100297E-02
   14.2500  3.4875884E-02  2.5859555E-02  3.4387629E-02
   14.5000  3.5208118E-02  2.4752176E-02  3.4735592E-02
   14.7500  3.5582549E-02  2.3820296E-02  3.5142711E-02
   15.0000  3.5981129E-02  2.3041125E-02  3.5603170E-02
   15.2500  3.6385460E-02  2.2395209E-02  3.6106854E-02
   15.5000  3.6777452E-02  2.1865995E-02  3.6639515E-02
   15.7500  3.7139982E-02  2.1439402E-02  3.7183189E-02
   16.0000  3.7457631E-02  2.1103456E-02  3.7716986E-02
   16.2500  3.7717520E-02  2.0847973E-02  3.8218311E-02
   16.5000  3.7910139E-02  2.0664280E-02  3.8664474E-02
   16.7500  3.8030012E-02  2.0545000E-02  3.9034532E-02
   17.0000  3.8076021E-02  2.0483854E-02  3.9311127E-02
   17.2500  3.8051278E-02  2.0475513E-02  3.9482010E-02
   17.5000  3.7962539E-02  2.0515459E-02  3.9541013E-02
   17.7500  3.7819241E-02  2.0599877E-02  3.9488296E-02
   18.0000  3.7632370E-02  2.0725549E-02  3.9329889E-02
   18.2500  3.7413362E-02  2.0889754E-02  3.9076636E-02
   18.5000  3.7173195E-02  2.1090176E-02  3.8742795E-02
   18.7500  3.6921770E-02  2.1324819E-02  3.8344511E-02
   19.0000  3.6667566E-02  2.1591938E-02  3.7898362E-02
   19.2500  3.6417491E-02  2.1889988E-02  3.7420111E-02
   19.5000  3.6176859E-02  2.2217598E-02  3.6923720E-02
   19.7500  3.5949418E-02  2.2573493E-02  3.6420737E-02
   20.0000  3.5737455E-02  2.2956275E-02  3.5920204E-02
   21.0000  3.5050751E-02  2.4708395E-02  3.4063265E-02
   22.0000  3.4511717E-02  2.6673181E-02  3.2551493E-02
   23.0000  3.3823435E-02  2.8662986E-02  3.1304275E-02
   24.0000  3.2799641E-02  3.0503325E-02  3.0166307E-02
   25.0000  3.1592273E-02  3.2059481E-02  2.9045721E-02
   26.0000  3.0495912E-02  3.3240984E-02  2.7946965E-02
   27.0000  2.9628217E-02  3.3993071E-02  2.6935385E-02
   28.0000  2.8901694E-02  3.4306557E-02  2.6088799E-02
   29.0000  2.8198229E-02  3.4233987E-02  2.5458146E-02
   30.0000  2.7475093E-02  3.3867119E-02  2.5040547E-02
   31.0000  2.6757035E-02  3.3302750E-02  2.4794298E-02
   32.0000  2.6083980E-02  3.2617568E-02  2.4664378E-02
   33.0000  2.5478878E-02  3.1858791E-02  2.4598393E-02
   34.0000  2.4944405E-02  3.1048628E-02  2.4553851E-02
   35.0000  2.4470411E-02  3.0194588E-02  2.4500082E-02
   36.0000  2.4041836E-02  2.9300688E-02  2.4418482E-02
   37.0000  2.3645906E-02  2.8378291E-02  2.4302351E-02
   38.0000  2.3278773E-02  2.7457228E-02  2.4156302E-02
   39.0000  2.2950614E-02  2.6598198E-02  2.3996859E-02
   40.0000  2.2684726E-02  2.5893799E-02  2.3852908E-02
