    Energy   (100,001)      (010,001)      (001,110)   
  -25.0000  1.6869468E-04  1.7738935E-04  1.8217792E-04
  -24.0000  1.7485090E-04  1.8431200E-04  1.8859008E-04
  -23.0000  1.8143006E-04  1.9174266E-04  1.9543628E-04
  -22.0000  1.8847600E-04  1.9973753E-04  2.0276137E-04
  -21.0000  1.9603880E-04  2.0836124E-04  2.1061649E-04
  -20.0000  2.0417585E-04  2.1768852E-04  2.1906033E-04
  -19.0000  2.1295325E-04  2.2780617E-04  2.2816046E-04
  -18.0000  2.2244757E-04  2.3881563E-04  2.3799510E-04
  -17.0000  2.3274792E-04  2.5083615E-04  2.4865537E-04
  -16.0000  2.4395866E-04  2.6400875E-04  2.6024793E-04
  -15.0000  2.5620282E-04  2.7850150E-04  2.7289854E-04
  -14.0000  2.6962646E-04  2.9451611E-04  2.8675646E-04
  -13.0000  2.8440427E-04  3.1229674E-04  3.0200024E-04
  -12.0000  3.0074703E-04  3.3214165E-04  3.1884523E-04
  -11.0000  3.1891147E-04  3.5441882E-04  3.3755364E-04
  -10.0000  3.3921350E-04  3.7958730E-04  3.5844801E-04
  -9.00000  3.6204647E-04  4.0822685E-04  3.8192967E-04
  -8.00000  3.8790673E-04  4.4107993E-04  4.0850454E-04
  -7.00000  4.1742997E-04  4.7911222E-04  4.3881979E-04
  -6.00000  4.5144473E-04  5.2360233E-04  4.7371742E-04
  -5.00000  4.9105281E-04  5.7627827E-04  5.1431459E-04
  -4.00000  5.3775496E-04  6.3953198E-04  5.6212833E-04
  -3.00000  5.9365487E-04  7.1677001E-04  6.1927667E-04
  -2.00000  6.6180777E-04  8.1301403E-04  6.8881966E-04
  -1.00000  7.4685383E-04  9.3599161E-04  7.7537380E-04
   0.00000  8.5626589E-04  1.0982727E-03  8.8631156E-04
   1.00000  1.0030869E-03  1.3219027E-03  1.0343710E-03
   2.00000  1.2129222E-03  1.6500175E-03  1.2442847E-03
   3.00000  1.5463891E-03  2.1831811E-03  1.5740879E-03
   4.00000  2.2025833E-03  3.2419327E-03  2.2145951E-03
   5.00000  4.0633372E-03  6.2168786E-03  4.0040796E-03
   5.20000  4.6476270E-03  7.1632416E-03  4.5420626E-03
   5.40000  5.2312485E-03  8.1241843E-03  5.0561353E-03
   5.60000  5.7985662E-03  9.0732783E-03  5.5332350E-03
   5.80000  6.3568630E-03  1.0019063E-02  5.9887357E-03
   6.00000  6.9191163E-03  1.0981203E-02  6.4445587E-03
   6.20000  7.4972758E-03  1.1980212E-02  6.9195083E-03
   6.40000  8.1021786E-03  1.3036952E-02  7.4288124E-03
   6.60000  8.7449717E-03  1.4175159E-02  7.9866408E-03
   6.80000  9.4381092E-03  1.5423938E-02  8.6085328E-03
   7.00000  1.0195166E-02  1.6818581E-02  9.3124862E-03
   7.20000  1.1029172E-02  1.8399218E-02  1.0118295E-02
   7.40000  1.1949715E-02  2.0207684E-02  1.1045112E-02
   7.60000  1.2959205E-02  2.2282992E-02  1.2107181E-02
   7.80000  1.4048782E-02  2.4655272E-02  1.3307801E-02
   8.00000  1.5195265E-02  2.7338098E-02  1.4632864E-02
   8.20000  1.6361502E-02  3.0320026E-02  1.6047427E-02
   8.40000  1.7502412E-02  3.3557898E-02  1.7499947E-02
   8.60000  1.8576734E-02  3.6976188E-02  1.8936387E-02
   8.80000  1.9560242E-02  4.0475328E-02  2.0319418E-02
   9.00000  2.0453428E-02  4.3946527E-02  2.1642050E-02
   9.20000  2.1279241E-02  4.7285239E-02  2.2927100E-02
   9.40000  2.2072760E-02  5.0395848E-02  2.4213228E-02
   9.60000  2.2868723E-02  5.3186564E-02  2.5535721E-02
   9.80000  2.3692080E-02  5.5560437E-02  2.6910616E-02
   10.0000  2.4553383E-02  5.7411000E-02  2.8326581E-02
   10.2500  2.5675129E-02  5.8823274E-02  3.0094026E-02
   10.5000  2.6810555E-02  5.9080936E-02  3.1752630E-02
   10.7500  2.7901143E-02  5.8137216E-02  3.3186825E-02
   11.0000  2.8883631E-02  5.6108306E-02  3.4313014E-02
   11.2500  2.9706337E-02  5.3249119E-02  3.5095926E-02
   11.5000  3.0342606E-02  4.9879934E-02  3.5546239E-02
   11.7500  3.0796151E-02  4.6308027E-02  3.5708141E-02
   12.0000  3.1096058E-02  4.2777709E-02  3.5644110E-02
   12.2500  3.1286484E-02  3.9454338E-02  3.5420804E-02
   12.5000  3.1416193E-02  3.6430944E-02  3.5099076E-02
   12.7500  3.1530113E-02  3.3745163E-02  3.4729090E-02
   13.0000  3.1663645E-02  3.1397824E-02  3.4349410E-02
   13.2500  3.1839833E-02  2.9369084E-02  3.3988565E-02
   13.5000  3.2069622E-02  2.7630106E-02  3.3667556E-02
   13.7500  3.2354465E-02  2.6149602E-02  3.3401985E-02
   14.0000  3.2689611E-02  2.4896891E-02  3.3203484E-02
   14.2500  3.3066881E-02  2.3843427E-02  3.3080536E-02
   14.5000  3.3476641E-02  2.2963616E-02  3.3038770E-02
   14.7500  3.3908922E-02  2.2235156E-02  3.3080797E-02
   15.0000  3.4353717E-02  2.1639021E-02  3.3205781E-02
   15.2500  3.4800652E-02  2.1159182E-02  3.3408926E-02
   15.5000  3.5238599E-02  2.0782229E-02  3.3681087E-02
   15.7500  3.5655722E-02  2.0497007E-02  3.4008685E-02
   16.0000  3.6039903E-02  2.0294293E-02  3.4374043E-02
   16.2500  3.6379394E-02  2.0166496E-02  3.4756246E-02
   16.5000  3.6663576E-02  2.0107365E-02  3.5132513E-02
   16.7500  3.6883769E-02  2.0111723E-02  3.5479979E-02
   17.0000  3.7033930E-02  2.0175217E-02  3.5777652E-02
   17.2500  3.7111121E-02  2.0294090E-02  3.6008236E-02
   17.5000  3.7115647E-02  2.0464962E-02  3.6159499E-02
   17.7500  3.7050872E-02  2.0684643E-02  3.6224979E-02
   18.0000  3.6922797E-02  2.0949964E-02  3.6203940E-02
   18.2500  3.6739494E-02  2.1257676E-02  3.6100691E-02
   18.5000  3.6510513E-02  2.1604380E-02  3.5923445E-02
   18.7500  3.6246301E-02  2.1986532E-02  3.5682987E-02
   19.0000  3.5957654E-02  2.2400499E-02  3.5391337E-02
   19.2500  3.5655199E-02  2.2842681E-02  3.5060563E-02
   19.5000  3.5348895E-02  2.3309651E-02  3.4701844E-02
   19.7500  3.5047627E-02  2.3798244E-02  3.4324860E-02
   20.0000  3.4759040E-02  2.4305393E-02  3.3937654E-02
   21.0000  3.3851205E-02  2.6443301E-02  3.2409217E-02
   22.0000  3.3480889E-02  2.8575586E-02  3.1079027E-02
   23.0000  3.3557020E-02  3.0514238E-02  2.9982341E-02
   24.0000  3.3740637E-02  3.2100736E-02  2.9067711E-02
   25.0000  3.3598582E-02  3.3208382E-02  2.8290156E-02
   26.0000  3.2846034E-02  3.3772722E-02  2.7644143E-02
   27.0000  3.1544681E-02  3.3816071E-02  2.7155788E-02
   28.0000  3.0019933E-02  3.3437675E-02  2.6851723E-02
   29.0000  2.8586060E-02  3.2769891E-02  2.6733539E-02
   30.0000  2.7390254E-02  3.1932573E-02  2.6773055E-02
   31.0000  2.6439560E-02  3.1010166E-02  2.6919995E-02
   32.0000  2.5681116E-02  3.0050444E-02  2.7112592E-02
   33.0000  2.5055442E-02  2.9074157E-02  2.7289566E-02
   34.0000  2.4517492E-02  2.8086846E-02  2.7401688E-02
   35.0000  2.4040819E-02  2.7089361E-02  2.7420597E-02
   36.0000  2.3618121E-02  2.6089355E-02  2.7345202E-02
   37.0000  2.3257021E-02  2.5107920E-02  2.7202066E-02
   38.0000  2.2965105E-02  2.4176106E-02  2.7033517E-02
   39.0000  2.2743327E-02  2.3342905E-02  2.6881119E-02
   40.0000  2.2584536E-02  2.2676482E-02  2.6769094E-02
