    Energy   (100,001)      (010,001)      (001,110)   
  -25.0000  1.6717684E-04  1.8401210E-04  1.7278424E-04
  -24.0000  1.7334478E-04  1.9094917E-04  1.7921111E-04
  -23.0000  1.7993483E-04  1.9838436E-04  1.8608493E-04
  -22.0000  1.8699017E-04  2.0637197E-04  1.9345236E-04
  -21.0000  1.9455999E-04  2.1497436E-04  2.0136668E-04
  -20.0000  2.0270049E-04  2.2426349E-04  2.0988900E-04
  -19.0000  2.1147625E-04  2.3432287E-04  2.1908970E-04
  -18.0000  2.2096176E-04  2.4524989E-04  2.2905030E-04
  -17.0000  2.3124345E-04  2.5715880E-04  2.3986568E-04
  -16.0000  2.4242210E-04  2.7018455E-04  2.5164692E-04
  -15.0000  2.5461596E-04  2.8448755E-04  2.6452494E-04
  -14.0000  2.6796469E-04  3.0025998E-04  2.7865504E-04
  -13.0000  2.8263439E-04  3.1773390E-04  2.9422285E-04
  -12.0000  2.9882417E-04  3.3719211E-04  3.1145206E-04
  -11.0000  3.1677473E-04  3.5898254E-04  3.3061471E-04
  -10.0000  3.3677982E-04  3.8353803E-04  3.5204488E-04
  -9.00000  3.5920172E-04  4.1140346E-04  3.7615753E-04
  -8.00000  3.8449256E-04  4.4327414E-04  4.0347449E-04
  -7.00000  4.1322415E-04  4.8005087E-04  4.3466137E-04
  -6.00000  4.4613083E-04  5.2292106E-04  4.7058107E-04
  -5.00000  4.8417247E-04  5.7348140E-04  5.1237341E-04
  -4.00000  5.2863002E-04  6.3392926E-04  5.6157757E-04
  -3.00000  5.8125600E-04  7.0737316E-04  6.2032747E-04
  -2.00000  6.4452204E-04  7.9835957E-04  6.9167826E-04
  -1.00000  7.2205058E-04  9.1381985E-04  7.8018462E-04
   0.00000  8.1942556E-04  1.0649037E-03  8.9300527E-04
   1.00000  9.4588008E-04  1.2709045E-03  1.0422406E-03
   2.00000  1.1183719E-03  1.5689675E-03  1.2506723E-03
   3.00000  1.3739682E-03  2.0440907E-03  1.5694985E-03
   4.00000  1.8244013E-03  2.9622621E-03  2.1580200E-03
   5.00000  2.9372493E-03  5.4552966E-03  3.6805805E-03
   5.20000  3.2763976E-03  6.2307975E-03  4.1269139E-03
   5.40000  3.6186005E-03  7.0110253E-03  4.5580160E-03
   5.60000  3.9561893E-03  7.7797669E-03  4.9699773E-03
   5.80000  4.2943076E-03  8.5526961E-03  5.3808887E-03
   6.00000  4.6420059E-03  9.3548677E-03  5.8134629E-03
   6.20000  5.0080831E-03  1.0210390E-02  6.2889520E-03
   6.40000  5.4003002E-03  1.1140707E-02  6.8277740E-03
   6.60000  5.8256450E-03  1.2165472E-02  7.4514880E-03
   6.80000  6.2907920E-03  1.3303726E-02  8.1840527E-03
   7.00000  6.8024976E-03  1.4574721E-02  9.0516018E-03
   7.20000  7.3678530E-03  1.5998235E-02  1.0080339E-02
   7.40000  7.9943848E-03  1.7594310E-02  1.1292309E-02
   7.60000  8.6899974E-03  1.9382474E-02  1.2698899E-02
   7.80000  9.4627272E-03  2.1380636E-02  1.4292266E-02
   8.00000  1.0320286E-02  2.3603889E-02  1.6035972E-02
   8.20000  1.1269445E-02  2.6063669E-02  1.7858691E-02
   8.40000  1.2315461E-02  2.8768016E-02  1.9657925E-02
   8.60000  1.3461922E-02  3.1722439E-02  2.1320511E-02
   8.80000  1.4711284E-02  3.4928700E-02  2.2758088E-02
   9.00000  1.6065822E-02  3.8378651E-02  2.3941049E-02
   9.20000  1.7528121E-02  4.2042022E-02  2.4908333E-02
   9.40000  1.9100363E-02  4.5850542E-02  2.5744995E-02
   9.60000  2.0782444E-02  4.9684074E-02  2.6542971E-02
   9.80000  2.2569492E-02  5.3365385E-02  2.7369137E-02
   10.0000  2.4449190E-02  5.6668884E-02  2.8253530E-02
   10.2500  2.6894122E-02  5.9890061E-02  2.9437090E-02
   10.5000  2.9380465E-02  6.1708311E-02  3.0669214E-02
   10.7500  3.1814220E-02  6.1894046E-02  3.1900911E-02
   11.0000  3.4075553E-02  6.0498629E-02  3.3092842E-02
   11.2500  3.6027798E-02  5.7825215E-02  3.4219177E-02
   11.5000  3.7545002E-02  5.4309573E-02  3.5262585E-02
   11.7500  3.8548275E-02  5.0386790E-02  3.6209917E-02
   12.0000  3.9029933E-02  4.6405206E-02  3.7051326E-02
   12.2500  3.9051181E-02  4.2600337E-02  3.7778158E-02
   12.5000  3.8718207E-02  3.9107640E-02  3.8380893E-02
   12.7500  3.8153485E-02  3.5988409E-02  3.8851678E-02
   13.0000  3.7473255E-02  3.3255097E-02  3.9187131E-02
   13.2500  3.6774141E-02  3.0891115E-02  3.9389413E-02
   13.5000  3.6127786E-02  2.8864479E-02  3.9469650E-02
   13.7500  3.5581291E-02  2.7136743E-02  3.9450930E-02
   14.0000  3.5161231E-02  2.5668741E-02  3.9364855E-02
   14.2500  3.4878668E-02  2.4423950E-02  3.9244486E-02
   14.5000  3.4733396E-02  2.3370098E-02  3.9118834E-02
   14.7500  3.4716975E-02  2.2479604E-02  3.9009922E-02
   15.0000  3.4814809E-02  2.1729410E-02  3.8931533E-02
   15.2500  3.5007666E-02  2.1100498E-02  3.8888907E-02
   15.5000  3.5272981E-02  2.0577316E-02  3.8879106E-02
   15.7500  3.5586186E-02  2.0147208E-02  3.8892001E-02
   16.0000  3.5922181E-02  1.9799898E-02  3.8911921E-02
   16.2500  3.6256959E-02  1.9527045E-02  3.8919952E-02
   16.5000  3.6569260E-02  1.9321861E-02  3.8896718E-02
   16.7500  3.6842089E-02  1.9178794E-02  3.8825235E-02
   17.0000  3.7063882E-02  1.9093245E-02  3.8693341E-02
   17.2500  3.7229150E-02  1.9061332E-02  3.8495206E-02
   17.5000  3.7338498E-02  1.9079698E-02  3.8231681E-02
   17.7500  3.7398015E-02  1.9145363E-02  3.7909524E-02
   18.0000  3.7418127E-02  1.9255619E-02  3.7539848E-02
   18.2500  3.7412089E-02  1.9407968E-02  3.7136236E-02
   18.5000  3.7394344E-02  1.9600101E-02  3.6712939E-02
   18.7500  3.7378969E-02  1.9829905E-02  3.6283436E-02
   19.0000  3.7378411E-02  2.0095493E-02  3.5859450E-02
   19.2500  3.7402609E-02  2.0395266E-02  3.5450389E-02
   19.5000  3.7458517E-02  2.0727972E-02  3.5063131E-02
   19.7500  3.7549954E-02  2.1092706E-02  3.4702064E-02
   20.0000  3.7677619E-02  2.1488746E-02  3.4369378E-02
   21.0000  3.8470798E-02  2.3363373E-02  3.3319208E-02
   22.0000  3.9360614E-02  2.5642972E-02  3.2619761E-02
   23.0000  3.9767648E-02  2.8224017E-02  3.2057373E-02
   24.0000  3.9172398E-02  3.0890206E-02  3.1434256E-02
   25.0000  3.7401219E-02  3.3269333E-02  3.0653776E-02
   26.0000  3.4798538E-02  3.4952486E-02  2.9745854E-02
   27.0000  3.1975478E-02  3.5762764E-02  2.8813857E-02
   28.0000  2.9445402E-02  3.5793845E-02  2.7976388E-02
   29.0000  2.7444713E-02  3.5278482E-02  2.7321548E-02
   30.0000  2.5983586E-02  3.4450864E-02  2.6883393E-02
   31.0000  2.4969625E-02  3.3480922E-02  2.6642776E-02
   32.0000  2.4285732E-02  3.2470389E-02  2.6541198E-02
   33.0000  2.3821231E-02  3.1469014E-02  2.6498018E-02
   34.0000  2.3482759E-02  3.0492216E-02  2.6426294E-02
   35.0000  2.3197645E-02  2.9537196E-02  2.6246540E-02
   36.0000  2.2914375E-02  2.8596795E-02  2.5899998E-02
   37.0000  2.2603171E-02  2.7670920E-02  2.5363694E-02
   38.0000  2.2258631E-02  2.6776721E-02  2.4666731E-02
   39.0000  2.1904728E-02  2.5959500E-02  2.3903683E-02
   40.0000  2.1593228E-02  2.5294776E-02  2.3225601E-02
