    Energy   (100,001)      (010,001)      (001,110)   
  -25.0000  1.7141271E-04  1.8326914E-04  1.7380419E-04
  -24.0000  1.7784202E-04  1.9019709E-04  1.8039826E-04
  -23.0000  1.8472080E-04  1.9762371E-04  1.8746027E-04
  -22.0000  1.9209616E-04  2.0560344E-04  1.9504006E-04
  -21.0000  2.0002187E-04  2.1419881E-04  2.0319466E-04
  -20.0000  2.0855963E-04  2.2348204E-04  2.1198965E-04
  -19.0000  2.1778053E-04  2.3353689E-04  2.2150079E-04
  -18.0000  2.2776692E-04  2.4446107E-04  2.3181606E-04
  -17.0000  2.3861470E-04  2.5636926E-04  2.4303817E-04
  -16.0000  2.5043620E-04  2.6939688E-04  2.5528783E-04
  -15.0000  2.6336387E-04  2.8370497E-04  2.6870775E-04
  -14.0000  2.7755489E-04  2.9948644E-04  2.8346793E-04
  -13.0000  2.9319726E-04  3.1697432E-04  2.9977241E-04
  -12.0000  3.1051770E-04  3.3645256E-04  3.1786824E-04
  -11.0000  3.2979211E-04  3.5827059E-04  3.3805736E-04
  -10.0000  3.5135968E-04  3.8286310E-04  3.6071272E-04
  -9.00000  3.7564214E-04  4.1077738E-04  3.8630043E-04
  -8.00000  4.0317061E-04  4.4271179E-04  4.1541085E-04
  -7.00000  4.3462370E-04  4.7957106E-04  4.4880311E-04
  -6.00000  4.7088303E-04  5.2254768E-04  4.8747049E-04
  -5.00000  5.1311640E-04  5.7324483E-04  5.3273942E-04
  -4.00000  5.6290644E-04  6.3386817E-04  5.8642434E-04
  -3.00000  6.2245778E-04  7.0753626E-04  6.5108054E-04
  -2.00000  6.9494729E-04  7.9880663E-04  7.3043849E-04
  -1.00000  7.8515361E-04  9.1461890E-04  8.3019980E-04
   0.00000  9.0068273E-04  1.0661148E-03  9.5962451E-04
   1.00000  1.0546263E-03  1.2725164E-03  1.1350801E-03
   2.00000  1.2722880E-03  1.5706606E-03  1.3893796E-03
   3.00000  1.6126732E-03  2.0442296E-03  1.8031954E-03
   4.00000  2.2678285E-03  2.9523363E-03  2.6599670E-03
   5.00000  4.0830780E-03  5.3885699E-03  5.2234061E-03
   5.20000  4.6398688E-03  6.1464257E-03  5.9383416E-03
   5.40000  5.1823408E-03  6.9122668E-03  6.5589897E-03
   5.60000  5.6954466E-03  7.6711283E-03  7.0843789E-03
   5.80000  6.1938127E-03  8.4386022E-03  7.5645895E-03
   6.00000  6.6997372E-03  9.2392595E-03  8.0515242E-03
   6.20000  7.2302438E-03  1.0096620E-02  8.5817542E-03
   6.40000  7.7950120E-03  1.1031556E-02  9.1777768E-03
   6.60000  8.3997000E-03  1.2063372E-02  9.8526653E-03
   6.80000  9.0496324E-03  1.3211248E-02  1.0613555E-02
   7.00000  9.7515186E-03  1.4495493E-02  1.1463932E-02
   7.20000  1.0513212E-02  1.5938439E-02  1.2405307E-02
   7.40000  1.1342518E-02  1.7564804E-02  1.3438236E-02
   7.60000  1.2246166E-02  1.9401199E-02  1.4562025E-02
   7.80000  1.3229714E-02  2.1474533E-02  1.5772593E-02
   8.00000  1.4298625E-02  2.3809562E-02  1.7059330E-02
   8.20000  1.5460007E-02  2.6426639E-02  1.8403759E-02
   8.40000  1.6723792E-02  2.9341030E-02  1.9783338E-02
   8.60000  1.8101505E-02  3.2563822E-02  2.1180644E-02
   8.80000  1.9601428E-02  3.6101050E-02  2.2592436E-02
   9.00000  2.1221169E-02  3.9945301E-02  2.4030664E-02
   9.20000  2.2941244E-02  4.4056338E-02  2.5513224E-02
   9.40000  2.4723775E-02  4.8334300E-02  2.7051128E-02
   9.60000  2.6517857E-02  5.2596205E-02  2.8641120E-02
   9.80000  2.8268797E-02  5.6570427E-02  3.0266398E-02
   10.0000  2.9925661E-02  5.9922509E-02  3.1900893E-02
   10.2500  3.1799424E-02  6.2733699E-02  3.3909845E-02
   10.5000  3.3397930E-02  6.3608786E-02  3.5826509E-02
   10.7500  3.4689529E-02  6.2507516E-02  3.7604756E-02
   11.0000  3.5671502E-02  5.9793800E-02  3.9211051E-02
   11.2500  3.6368122E-02  5.6045457E-02  4.0615805E-02
   11.5000  3.6826518E-02  5.1832155E-02  4.1784746E-02
   11.7500  3.7106196E-02  4.7585348E-02  4.2680031E-02
   12.0000  3.7266433E-02  4.3572302E-02  4.3270452E-02
   12.2500  3.7358705E-02  3.9927277E-02  4.3542742E-02
   12.5000  3.7424114E-02  3.6696644E-02  4.3508217E-02
   12.7500  3.7493402E-02  3.3876699E-02  4.3202661E-02
   13.0000  3.7588048E-02  3.1439025E-02  4.2679863E-02
   13.2500  3.7720839E-02  2.9345278E-02  4.2002372E-02
   13.5000  3.7896072E-02  2.7555196E-02  4.1233339E-02
   13.7500  3.8110801E-02  2.6030768E-02  4.0430394E-02
   14.0000  3.8356887E-02  2.4737989E-02  3.9641672E-02
   14.2500  3.8622843E-02  2.3647205E-02  3.8904070E-02
   14.5000  3.8895217E-02  2.2732877E-02  3.8243238E-02
   14.7500  3.9159639E-02  2.1973145E-02  3.7674625E-02
   15.0000  3.9401717E-02  2.1349341E-02  3.7204988E-02
   15.2500  3.9607885E-02  2.0845515E-02  3.6834002E-02
   15.5000  3.9766203E-02  2.0448001E-02  3.6555791E-02
   15.7500  3.9867087E-02  2.0145044E-02  3.6360296E-02
   16.0000  3.9903887E-02  1.9926471E-02  3.6234508E-02
   16.2500  3.9873261E-02  1.9783435E-02  3.6163574E-02
   16.5000  3.9775307E-02  1.9708191E-02  3.6131827E-02
   16.7500  3.9613424E-02  1.9693935E-02  3.6123732E-02
   17.0000  3.9393922E-02  1.9734671E-02  3.6124747E-02
   17.2500  3.9125434E-02  1.9825108E-02  3.6122056E-02
   17.5000  3.8818181E-02  1.9960581E-02  3.6105132E-02
   17.7500  3.8483188E-02  2.0136988E-02  3.6066078E-02
   18.0000  3.8131507E-02  2.0350735E-02  3.5999734E-02
   18.2500  3.7773538E-02  2.0598688E-02  3.5903555E-02
   18.5000  3.7418490E-02  2.0878126E-02  3.5777300E-02
   18.7500  3.7074013E-02  2.1186705E-02  3.5622585E-02
   19.0000  3.6746004E-02  2.1522442E-02  3.5442353E-02
   19.2500  3.6438560E-02  2.1883708E-02  3.5240325E-02
   19.5000  3.6154076E-02  2.2269233E-02  3.5020470E-02
   19.7500  3.5893431E-02  2.2678057E-02  3.4786579E-02
   20.0000  3.5656299E-02  2.3109298E-02  3.4542042E-02
   21.0000  3.4916153E-02  2.5025717E-02  3.3512896E-02
   22.0000  3.4417689E-02  2.7146995E-02  3.2469416E-02
   23.0000  3.3990476E-02  2.9317247E-02  3.1401194E-02
   24.0000  3.3405158E-02  3.1331548E-02  3.0274102E-02
   25.0000  3.2461742E-02  3.2944580E-02  2.9103595E-02
   26.0000  3.1126845E-02  3.3946879E-02  2.7964320E-02
   27.0000  2.9552826E-02  3.4296662E-02  2.6940590E-02
   28.0000  2.7986432E-02  3.4100789E-02  2.6102683E-02
   29.0000  2.6639691E-02  3.3533639E-02  2.5492094E-02
   30.0000  2.5613278E-02  3.2764993E-02  2.5108410E-02
   31.0000  2.4899411E-02  3.1917052E-02  2.4908030E-02
   32.0000  2.4425957E-02  3.1057192E-02  2.4818098E-02
   33.0000  2.4100059E-02  3.0211168E-02  2.4758088E-02
   34.0000  2.3836097E-02  2.9381397E-02  2.4657443E-02
   35.0000  2.3570159E-02  2.8562454E-02  2.4465370E-02
   36.0000  2.3266755E-02  2.7751525E-02  2.4156625E-02
   37.0000  2.2920260E-02  2.6954270E-02  2.3736611E-02
   38.0000  2.2551273E-02  2.6188850E-02  2.3244502E-02
   39.0000  2.2198880E-02  2.5493107E-02  2.2750013E-02
   40.0000  2.1908240E-02  2.4928412E-02  2.2335487E-02
