    Energy   (100,001)      (010,001)      (001,110)   
  -25.0000  1.6072401E-04  1.7655313E-04  1.7025243E-04
  -24.0000  1.6680213E-04  1.8348684E-04  1.7663275E-04
  -23.0000  1.7330247E-04  1.9093276E-04  1.8345806E-04
  -22.0000  1.8026867E-04  1.9894789E-04  1.9077478E-04
  -21.0000  1.8775051E-04  2.0759789E-04  1.9863586E-04
  -20.0000  1.9580496E-04  2.1695870E-04  2.0710202E-04
  -19.0000  2.0449754E-04  2.2711864E-04  2.1624313E-04
  -18.0000  2.1390395E-04  2.3818102E-04  2.2614003E-04
  -17.0000  2.2411215E-04  2.5026737E-04  2.3688676E-04
  -16.0000  2.3522489E-04  2.6352166E-04  2.4859330E-04
  -15.0000  2.4736295E-04  2.7811559E-04  2.6138909E-04
  -14.0000  2.6066929E-04  2.9425555E-04  2.7542749E-04
  -13.0000  2.7531432E-04  3.1219174E-04  2.9089152E-04
  -12.0000  2.9150285E-04  3.3223022E-04  3.0800134E-04
  -11.0000  3.0948322E-04  3.5474925E-04  3.2702415E-04
  -10.0000  3.2955955E-04  3.8022162E-04  3.4828737E-04
  -9.00000  3.5210841E-04  4.0924566E-04  3.7219659E-04
  -8.00000  3.7760197E-04  4.4258937E-04  3.9926039E-04
  -7.00000  4.0664073E-04  4.8125427E-04  4.3012531E-04
  -6.00000  4.4000099E-04  5.2657033E-04  4.6562632E-04
  -5.00000  4.7870577E-04  5.8034096E-04  5.0686163E-04
  -4.00000  5.2413398E-04  6.4507221E-04  5.5530706E-04
  -3.00000  5.7819572E-04  7.2434920E-04  6.1299764E-04
  -2.00000  6.4362762E-04  8.2348503E-04  6.8282983E-04
  -1.00000  7.2452220E-04  9.5070792E-04  7.6909485E-04
   0.00000  8.2735559E-04  1.1195057E-03  8.7849612E-04
   1.00000  9.6321086E-04  1.3537584E-03  1.0223076E-03
   2.00000  1.1533852E-03  1.7007376E-03  1.2217134E-03
   3.00000  1.4472169E-03  2.2721945E-03  1.5245473E-03
   4.00000  2.0038658E-03  3.4296255E-03  2.0819044E-03
   5.00000  3.5211816E-03  6.7606995E-03  3.5411342E-03
   5.20000  3.9904745E-03  7.8309002E-03  3.9748958E-03
   5.40000  4.4547220E-03  8.9203273E-03  4.3927358E-03
   5.60000  4.9002253E-03  9.9979264E-03  4.7846491E-03
   5.80000  5.3347040E-03  1.1072629E-02  5.1626131E-03
   6.00000  5.7733612E-03  1.2166547E-02  5.5446153E-03
   6.20000  6.2316856E-03  1.3301801E-02  5.9472763E-03
   6.40000  6.7234486E-03  1.4497408E-02  6.3846148E-03
   6.60000  7.2604766E-03  1.5769577E-02  6.8687092E-03
   6.80000  7.8527846E-03  1.7133243E-02  7.4105301E-03
   7.00000  8.5085877E-03  1.8604369E-02  8.0205416E-03
   7.20000  9.2339119E-03  2.0202695E-02  8.7090961E-03
   7.40000  1.0031532E-02  2.1954370E-02  9.4866846E-03
   7.60000  1.0899001E-02  2.3893626E-02  1.0364074E-02
   7.80000  1.1825853E-02  2.6062270E-02  1.1352284E-02
   8.00000  1.2791016E-02  2.8505953E-02  1.2462196E-02
   8.20000  1.3762924E-02  3.1266579E-02  1.3703574E-02
   8.40000  1.4705586E-02  3.4370863E-02  1.5083447E-02
   8.60000  1.5591399E-02  3.7815907E-02  1.6603779E-02
   8.80000  1.6415614E-02  4.1553183E-02  1.8258529E-02
   9.00000  1.7203013E-02  4.5473369E-02  2.0030642E-02
   9.20000  1.8000916E-02  4.9396939E-02  2.1889951E-02
   9.40000  1.8862280E-02  5.3078513E-02  2.3793263E-02
   9.60000  1.9828502E-02  5.6233404E-02  2.5687849E-02
   9.80000  2.0918946E-02  5.8588365E-02  2.7518556E-02
   10.0000  2.2128284E-02  5.9944549E-02  2.9236973E-02
   10.2500  2.3764171E-02  6.0134822E-02  3.1177344E-02
   10.5000  2.5456140E-02  5.8806113E-02  3.2865307E-02
   10.7500  2.7099304E-02  5.6337403E-02  3.4315617E-02
   11.0000  2.8590063E-02  5.3175788E-02  3.5566741E-02
   11.2500  2.9849524E-02  4.9708004E-02  3.6662260E-02
   11.5000  3.0842544E-02  4.6208843E-02  3.7637949E-02
   11.7500  3.1582950E-02  4.2846407E-02  3.8515150E-02
   12.0000  3.2124071E-02  3.9710472E-02  3.9300487E-02
   12.2500  3.2540441E-02  3.6842063E-02  3.9991473E-02
   12.5000  3.2909130E-02  3.4254698E-02  4.0583511E-02
   12.7500  3.3296243E-02  3.1946986E-02  4.1075001E-02
   13.0000  3.3750236E-02  2.9909379E-02  4.1469808E-02
   13.2500  3.4301159E-02  2.8127331E-02  4.1776952E-02
   13.5000  3.4963082E-02  2.6583160E-02  4.2008399E-02
   13.7500  3.5736989E-02  2.5257647E-02  4.2176430E-02
   14.0000  3.6612794E-02  2.4131181E-02  4.2291738E-02
   14.2500  3.7570847E-02  2.3184543E-02  4.2362574E-02
   14.5000  3.8583901E-02  2.2399610E-02  4.2394789E-02
   14.7500  3.9619306E-02  2.1759902E-02  4.2392311E-02
   15.0000  4.0640589E-02  2.1250757E-02  4.2357525E-02
   15.2500  4.1608729E-02  2.0859231E-02  4.2291493E-02
   15.5000  4.2483917E-02  2.0573897E-02  4.2194135E-02
   15.7500  4.3227990E-02  2.0384614E-02  4.2064429E-02
   16.0000  4.3807323E-02  2.0282305E-02  4.1900642E-02
   16.2500  4.4195740E-02  2.0258751E-02  4.1700633E-02
   16.5000  4.4377008E-02  2.0306418E-02  4.1462248E-02
   16.7500  4.4346488E-02  2.0418323E-02  4.1183799E-02
   17.0000  4.4111620E-02  2.0587947E-02  4.0864571E-02
   17.2500  4.3691152E-02  2.0809182E-02  4.0505251E-02
   17.5000  4.3113205E-02  2.1076296E-02  4.0108200E-02
   17.7500  4.2412508E-02  2.1383911E-02  3.9677492E-02
   18.0000  4.1627244E-02  2.1726984E-02  3.9218717E-02
   18.2500  4.0795967E-02  2.2100789E-02  3.8738582E-02
   18.5000  3.9954953E-02  2.2500906E-02  3.8244389E-02
   18.7500  3.9136212E-02  2.2923219E-02  3.7743475E-02
   19.0000  3.8366216E-02  2.3363930E-02  3.7242697E-02
   19.2500  3.7665281E-02  2.3819617E-02  3.6747984E-02
   19.5000  3.7047457E-02  2.4287293E-02  3.6264024E-02
   19.7500  3.6520802E-02  2.4764415E-02  3.5794099E-02
   20.0000  3.6087981E-02  2.5248666E-02  3.5340214E-02
   21.0000  3.5217252E-02  2.7198064E-02  3.3702872E-02
   22.0000  3.5291489E-02  2.9022326E-02  3.2334776E-02
   23.0000  3.5533486E-02  3.0571709E-02  3.1140928E-02
   24.0000  3.5278301E-02  3.1738239E-02  3.0033318E-02
   25.0000  3.4276303E-02  3.2459474E-02  2.8984320E-02
   26.0000  3.2710757E-02  3.2722531E-02  2.8018413E-02
   27.0000  3.0938921E-02  3.2571235E-02  2.7167414E-02
   28.0000  2.9259893E-02  3.2090985E-02  2.6453180E-02
   29.0000  2.7823221E-02  3.1384726E-02  2.5881060E-02
   30.0000  2.6649550E-02  3.0546131E-02  2.5436403E-02
   31.0000  2.5691219E-02  2.9642941E-02  2.5089665E-02
   32.0000  2.4880785E-02  2.8716828E-02  2.4805408E-02
   33.0000  2.4155858E-02  2.7791419E-02  2.4549048E-02
   34.0000  2.3467930E-02  2.6880013E-02  2.4289525E-02
   35.0000  2.2785237E-02  2.5990242E-02  2.4000100E-02
   36.0000  2.2095882E-02  2.5126717E-02  2.3660117E-02
   37.0000  2.1411300E-02  2.4294840E-02  2.3260381E-02
   38.0000  2.0764721E-02  2.3509314E-02  2.2812324E-02
   39.0000  2.0201200E-02  2.2805887E-02  2.2357580E-02
   40.0000  1.9761509E-02  2.2241517E-02  2.1965784E-02
