    Energy   (100,001)      (010,001)      (001,110)   
  -25.0000  1.6753477E-04  1.8207786E-04  1.7577399E-04
  -24.0000  1.7360216E-04  1.8914252E-04  1.8210041E-04
  -23.0000  1.8007706E-04  1.9672616E-04  1.8885532E-04
  -22.0000  1.8700044E-04  2.0488644E-04  1.9608248E-04
  -21.0000  1.9441884E-04  2.1368971E-04  2.0383168E-04
  -20.0000  2.0238536E-04  2.2321272E-04  2.1215989E-04
  -19.0000  2.1096085E-04  2.3354474E-04  2.2113255E-04
  -18.0000  2.2021538E-04  2.4479013E-04  2.3082522E-04
  -17.0000  2.3023003E-04  2.5707169E-04  2.4132554E-04
  -16.0000  2.4109912E-04  2.7053483E-04  2.5273585E-04
  -15.0000  2.5293308E-04  2.8535292E-04  2.6517627E-04
  -14.0000  2.6586197E-04  3.0173434E-04  2.7878880E-04
  -13.0000  2.8004009E-04  3.1993157E-04  2.9374251E-04
  -12.0000  2.9565188E-04  3.4025339E-04  3.1024030E-04
  -11.0000  3.1291976E-04  3.6308121E-04  3.2852782E-04
  -10.0000  3.3211440E-04  3.8889147E-04  3.4890542E-04
  -9.00000  3.5356879E-04  4.1828669E-04  3.7174431E-04
  -8.00000  3.7769744E-04  4.5203949E-04  3.9750899E-04
  -7.00000  4.0502342E-04  4.9115620E-04  4.2678892E-04
  -6.00000  4.3621723E-04  5.3697106E-04  4.6034423E-04
  -5.00000  4.7215414E-04  5.9128966E-04  4.9917387E-04
  -4.00000  5.1400179E-04  6.5661440E-04  5.4462035E-04
  -3.00000  5.6335917E-04  7.3651263E-04  5.9853764E-04
  -2.00000  6.2248826E-04  8.3624629E-04  6.6357409E-04
  -1.00000  6.9472443E-04  9.6391208E-04  7.4368109E-04
   0.00000  7.8526504E-04  1.1326642E-03  8.4510820E-04
   1.00000  9.0286046E-04  1.3654974E-03  9.7858867E-04
   2.00000  1.0640585E-03  1.7070933E-03  1.1649958E-03
   3.00000  1.3067299E-03  2.2602131E-03  1.4540698E-03
   4.00000  1.7528635E-03  3.3444946E-03  2.0150905E-03
   5.00000  2.9361654E-03  6.3170252E-03  3.6111441E-03
   5.20000  3.2921296E-03  7.2682882E-03  4.0849215E-03
   5.40000  3.6358306E-03  8.2535674E-03  4.5284446E-03
   5.60000  3.9561935E-03  9.2558863E-03  4.9280676E-03
   5.80000  4.2596116E-03  1.0291528E-02  5.2920187E-03
   6.00000  4.5581856E-03  1.1386738E-02  5.6304918E-03
   6.20000  4.8641073E-03  1.2566508E-02  5.9501431E-03
   6.40000  5.1884654E-03  1.3851637E-02  6.2565661E-03
   6.60000  5.5414283E-03  1.5258150E-02  6.5576049E-03
   6.80000  5.9326262E-03  1.6797640E-02  6.8649302E-03
   7.00000  6.3714382E-03  1.8479102E-02  7.1937037E-03
   7.20000  6.8671249E-03  2.0312496E-02  7.5610219E-03
   7.40000  7.4287563E-03  2.2312815E-02  7.9839651E-03
   7.60000  8.0648027E-03  2.4502622E-02  8.4779848E-03
   7.80000  8.7821852E-03  2.6911871E-02  9.0561036E-03
   8.00000  9.5846180E-03  2.9574757E-02  9.7289466E-03
   8.20000  1.0470244E-02  3.2523711E-02  1.0505261E-02
   8.40000  1.1428959E-02  3.5781216E-02  1.1392533E-02
   8.60000  1.2440598E-02  3.9349770E-02  1.2397417E-02
   8.80000  1.3475985E-02  4.3199775E-02  1.3525745E-02
   9.00000  1.4502590E-02  4.7255656E-02  1.4781877E-02
   9.20000  1.5494027E-02  5.1382343E-02  1.6167374E-02
   9.40000  1.6438935E-02  5.5377167E-02  1.7679448E-02
   9.60000  1.7344016E-02  5.8976008E-02  1.9309599E-02
   9.80000  1.8229699E-02  6.1883104E-02  2.1042626E-02
   10.0000  1.9121473E-02  6.3825443E-02  2.2856300E-02
   10.2500  2.0277719E-02  6.4625164E-02  2.5192299E-02
   10.5000  2.1502027E-02  6.3572763E-02  2.7541670E-02
   10.7500  2.2795609E-02  6.0944199E-02  2.9832719E-02
   11.0000  2.4136399E-02  5.7231308E-02  3.1997145E-02
   11.2500  2.5482016E-02  5.2964047E-02  3.3973862E-02
   11.5000  2.6780272E-02  4.8579155E-02  3.5710049E-02
   11.7500  2.7981784E-02  4.4372708E-02  3.7165498E-02
   12.0000  2.9049219E-02  4.0513155E-02  3.8318973E-02
   12.2500  2.9963425E-02  3.7075179E-02  3.9171294E-02
   12.5000  3.0725801E-02  3.4072706E-02  3.9744102E-02
   12.7500  3.1356044E-02  3.1484616E-02  4.0075441E-02
   13.0000  3.1886126E-02  2.9272333E-02  4.0213129E-02
   13.2500  3.2353116E-02  2.7390797E-02  4.0206971E-02
   13.5000  3.2793390E-02  2.5795027E-02  4.0102059E-02
   13.7500  3.3238816E-02  2.4443936E-02  3.9936463E-02
   14.0000  3.3714916E-02  2.3301969E-02  3.9742597E-02
   14.2500  3.4240651E-02  2.2339185E-02  3.9548027E-02
   14.5000  3.4828894E-02  2.1530675E-02  3.9374830E-02
   14.7500  3.5486876E-02  2.0855897E-02  3.9238869E-02
   15.0000  3.6216458E-02  2.0298046E-02  3.9149465E-02
   15.2500  3.7014263E-02  1.9843469E-02  3.9109393E-02
   15.5000  3.7871723E-02  1.9481113E-02  3.9115187E-02
   15.7500  3.8775098E-02  1.9202019E-02  3.9157824E-02
   16.0000  3.9705565E-02  1.8998878E-02  3.9223871E-02
   16.2500  4.0639535E-02  1.8865652E-02  3.9297072E-02
   16.5000  4.1549365E-02  1.8797262E-02  3.9360243E-02
   16.7500  4.2404645E-02  1.8789349E-02  3.9397228E-02
   17.0000  4.3174177E-02  1.8838082E-02  3.9394635E-02
   17.2500  4.3828573E-02  1.8940021E-02  3.9343073E-02
   17.5000  4.4343221E-02  1.9092018E-02  3.9237703E-02
   17.7500  4.4701122E-02  1.9291141E-02  3.9078114E-02
   18.0000  4.4895006E-02  1.9534623E-02  3.8867629E-02
   18.2500  4.4928181E-02  1.9819813E-02  3.8612284E-02
   18.5000  4.4813881E-02  2.0144144E-02  3.8319713E-02
   18.7500  4.4573210E-02  2.0505119E-02  3.7998140E-02
   19.0000  4.4232142E-02  2.0900318E-02  3.7655558E-02
   19.2500  4.3818215E-02  2.1327441E-02  3.7299149E-02
   19.5000  4.3357520E-02  2.1784382E-02  3.6934907E-02
   19.7500  4.2872508E-02  2.2269227E-02  3.6567487E-02
   20.0000  4.2380977E-02  2.2780055E-02  3.6200352E-02
   21.0000  4.0568769E-02  2.5025443E-02  3.4783783E-02
   22.0000  3.9176149E-02  2.7438381E-02  3.3511922E-02
   23.0000  3.8053590E-02  2.9813261E-02  3.2390716E-02
   24.0000  3.6928899E-02  3.1903644E-02  3.1405765E-02
   25.0000  3.5599393E-02  3.3448928E-02  3.0547712E-02
   26.0000  3.3999835E-02  3.4278899E-02  2.9805898E-02
   27.0000  3.2234402E-02  3.4400475E-02  2.9176575E-02
   28.0000  3.0526631E-02  3.3976784E-02  2.8672121E-02
   29.0000  2.9052749E-02  3.3220873E-02  2.8297997E-02
   30.0000  2.7887108E-02  3.2310757E-02  2.8048666E-02
   31.0000  2.7023032E-02  3.1358747E-02  2.7903645E-02
   32.0000  2.6404813E-02  3.0417375E-02  2.7822074E-02
   33.0000  2.5954644E-02  2.9499860E-02  2.7748515E-02
   34.0000  2.5588152E-02  2.8600854E-02  2.7625532E-02
   35.0000  2.5224580E-02  2.7711296E-02  2.7404340E-02
   36.0000  2.4799643E-02  2.6827252E-02  2.7052851E-02
   37.0000  2.4281950E-02  2.5955312E-02  2.6564097E-02
   38.0000  2.3685945E-02  2.5117882E-02  2.5966223E-02
   39.0000  2.3074044E-02  2.4359960E-02  2.5331626E-02
   40.0000  2.2543645E-02  2.3748273E-02  2.4773711E-02
