    Energy   (100,001)      (010,001)      (001,110)   
  -25.0000  1.6516443E-04  1.8317769E-04  1.8282241E-04
  -24.0000  1.7109370E-04  1.9009710E-04  1.8949679E-04
  -23.0000  1.7742005E-04  1.9751352E-04  1.9663693E-04
  -22.0000  1.8418337E-04  2.0548108E-04  2.0429236E-04
  -21.0000  1.9142903E-04  2.1406195E-04  2.1251975E-04
  -20.0000  1.9920879E-04  2.2332785E-04  2.2138437E-04
  -19.0000  2.0758200E-04  2.3336198E-04  2.3096172E-04
  -18.0000  2.1661698E-04  2.4426138E-04  2.4133963E-04
  -17.0000  2.2639283E-04  2.5613986E-04  2.5262085E-04
  -16.0000  2.3700163E-04  2.6913179E-04  2.6492638E-04
  -15.0000  2.4855116E-04  2.8339687E-04  2.7839974E-04
  -14.0000  2.6116845E-04  2.9912639E-04  2.9321241E-04
  -13.0000  2.7500425E-04  3.1655126E-04  3.0957103E-04
  -12.0000  2.9023888E-04  3.3595277E-04  3.2772694E-04
  -11.0000  3.0708981E-04  3.5767696E-04  3.4798899E-04
  -10.0000  3.2582190E-04  3.8215412E-04  3.7074109E-04
  -9.00000  3.4676109E-04  4.0992583E-04  3.9646674E-04
  -8.00000  3.7031335E-04  4.4168296E-04  4.2578382E-04
  -7.00000  3.9699118E-04  4.7832043E-04  4.5949543E-04
  -6.00000  4.2745180E-04  5.2101773E-04  4.9866612E-04
  -5.00000  4.6255333E-04  5.7136090E-04  5.4473982E-04
  -4.00000  5.0344059E-04  6.3153318E-04  5.9972976E-04
  -3.00000  5.5168077E-04  7.0462484E-04  6.6653826E-04
  -2.00000  6.0948882E-04  7.9516075E-04  7.4952708E-04
  -1.00000  6.8012462E-04  9.1005345E-04  8.5560848E-04
   0.00000  7.6865052E-04  1.0604625E-03  9.9653165E-04
   1.00000  8.8353852E-04  1.2658208E-03  1.1942889E-03
   2.00000  1.0406448E-03  1.5639711E-03  1.4962306E-03
   3.00000  1.2756195E-03  2.0433296E-03  2.0290884E-03
   4.00000  1.7000581E-03  2.9909877E-03  3.2791288E-03
   5.00000  2.7929227E-03  5.6546248E-03  7.5975362E-03
   5.20000  3.1265034E-03  6.4574437E-03  8.8589101E-03
   5.40000  3.4594614E-03  7.2248765E-03  9.9047421E-03
   5.60000  3.7840907E-03  7.9366319E-03  1.0660148E-02
   5.80000  4.1056264E-03  8.6180111E-03  1.1174978E-02
   6.00000  4.4327513E-03  9.3080261E-03  1.1545533E-02
   6.20000  4.7736187E-03  1.0043031E-02  1.1861390E-02
   6.40000  5.1351299E-03  1.0853253E-02  1.2185939E-02
   6.60000  5.5229375E-03  1.1764127E-02  1.2555506E-02
   6.80000  5.9415688E-03  1.2798432E-02  1.2985377E-02
   7.00000  6.3947205E-03  1.3977889E-02  1.3477305E-02
   7.20000  6.8858236E-03  1.5323900E-02  1.4027052E-02
   7.40000  7.4188100E-03  1.6857506E-02  1.4631563E-02
   7.60000  7.9987721E-03  1.8598566E-02  1.5294659E-02
   7.80000  8.6321323E-03  2.0564127E-02  1.6029365E-02
   8.00000  9.3261781E-03  2.2766275E-02  1.6855422E-02
   8.20000  1.0088189E-02  2.5210045E-02  1.7792143E-02
   8.40000  1.0924566E-02  2.7892303E-02  1.8848937E-02
   8.60000  1.1840163E-02  3.0802684E-02  2.0017716E-02
   8.80000  1.2837694E-02  3.3925964E-02  2.1271692E-02
   9.00000  1.3916795E-02  3.7242325E-02  2.2572152E-02
   9.20000  1.5072538E-02  4.0720989E-02  2.3879438E-02
   9.40000  1.6293700E-02  4.4306365E-02  2.5161688E-02
   9.60000  1.7561748E-02  4.7902164E-02  2.6397921E-02
   9.80000  1.8851703E-02  5.1363627E-02  2.7576362E-02
   10.0000  2.0135142E-02  5.4506029E-02  2.8690644E-02
   10.2500  2.1688149E-02  5.7683017E-02  2.9987308E-02
   10.5000  2.3144239E-02  5.9719728E-02  3.1173578E-02
   10.7500  2.4480830E-02  6.0439918E-02  3.2251818E-02
   11.0000  2.5697224E-02  5.9862908E-02  3.3228797E-02
   11.2500  2.6804919E-02  5.8163049E-02  3.4107940E-02
   11.5000  2.7814395E-02  5.5591739E-02  3.4883898E-02
   11.7500  2.8727551E-02  5.2418636E-02  3.5544354E-02
   12.0000  2.9538754E-02  4.8902093E-02  3.6074816E-02
   12.2500  3.0241953E-02  4.5272946E-02  3.6463113E-02
   12.5000  3.0838160E-02  4.1721487E-02  3.6702985E-02
   12.7500  3.1338714E-02  3.8387400E-02  3.6796896E-02
   13.0000  3.1763563E-02  3.5357408E-02  3.6758354E-02
   13.2500  3.2136406E-02  3.2671698E-02  3.6611851E-02
   13.5000  3.2479533E-02  3.0334921E-02  3.6388658E-02
   13.7500  3.2810481E-02  2.8328183E-02  3.6120978E-02
   14.0000  3.3141382E-02  2.6620006E-02  3.5838355E-02
   14.2500  3.3479923E-02  2.5174604E-02  3.5566211E-02
   14.5000  3.3830457E-02  2.3956944E-02  3.5324919E-02
   14.7500  3.4194735E-02  2.2935242E-02  3.5129007E-02
   15.0000  3.4572313E-02  2.2081870E-02  3.4986709E-02
   15.2500  3.4960780E-02  2.1373411E-02  3.4899984E-02
   15.5000  3.5355946E-02  2.0790319E-02  3.4864966E-02
   15.7500  3.5752096E-02  2.0316436E-02  3.4872820E-02
   16.0000  3.6142356E-02  1.9938496E-02  3.4910914E-02
   16.2500  3.6519222E-02  1.9645658E-02  3.4964254E-02
   16.5000  3.6875224E-02  1.9429104E-02  3.5017070E-02
   16.7500  3.7203660E-02  1.9281674E-02  3.5054413E-02
   17.0000  3.7499305E-02  1.9197556E-02  3.5063585E-02
   17.2500  3.7758995E-02  1.9172005E-02  3.5035233E-02
   17.5000  3.7981988E-02  1.9201106E-02  3.4963951E-02
   17.7500  3.8170044E-02  1.9281571E-02  3.4848366E-02
   18.0000  3.8327232E-02  1.9410566E-02  3.4690750E-02
   18.2500  3.8459499E-02  1.9585595E-02  3.4496274E-02
   18.5000  3.8574079E-02  1.9804406E-02  3.4272092E-02
   18.7500  3.8678818E-02  2.0064947E-02  3.4026390E-02
   19.0000  3.8781512E-02  2.0365360E-02  3.3767537E-02
   19.2500  3.8889300E-02  2.0704008E-02  3.3503388E-02
   19.5000  3.9008151E-02  2.1079518E-02  3.3240773E-02
   19.7500  3.9142440E-02  2.1490759E-02  3.2985196E-02
   20.0000  3.9294567E-02  2.1936626E-02  3.2740796E-02
   21.0000  4.0051724E-02  2.4027616E-02  3.1924784E-02
   22.0000  4.0761919E-02  2.6488371E-02  3.1393526E-02
   23.0000  4.0796131E-02  2.9104913E-02  3.1051744E-02
   24.0000  3.9579393E-02  3.1573016E-02  3.0745288E-02
   25.0000  3.7104654E-02  3.3569016E-02  3.0351396E-02
   26.0000  3.4027251E-02  3.4867342E-02  2.9828041E-02
   27.0000  3.1159076E-02  3.5412560E-02  2.9211803E-02
   28.0000  2.8952674E-02  3.5305706E-02  2.8583065E-02
   29.0000  2.7425708E-02  3.4729096E-02  2.8027684E-02
   30.0000  2.6385985E-02  3.3867517E-02  2.7606979E-02
   31.0000  2.5648096E-02  3.2864025E-02  2.7339212E-02
   32.0000  2.5095862E-02  3.1818472E-02  2.7197060E-02
   33.0000  2.4654443E-02  3.0795979E-02  2.7122269E-02
   34.0000  2.4275225E-02  2.9814046E-02  2.7050221E-02
   35.0000  2.3924270E-02  2.8866542E-02  2.6929437E-02
   36.0000  2.3578331E-02  2.7948785E-02  2.6731741E-02
   37.0000  2.3228383E-02  2.7065742E-02  2.6456932E-02
   38.0000  2.2882277E-02  2.6235446E-02  2.6133160E-02
   39.0000  2.2564004E-02  2.5494383E-02  2.5810211E-02
   40.0000  2.2305336E-02  2.4899891E-02  2.5542761E-02
