    Energy   (100,001)      (010,001)      (001,110)   
  -25.0000  1.6770960E-04  1.7999744E-04  1.7815769E-04
  -24.0000  1.7396405E-04  1.8707203E-04  1.8483371E-04
  -23.0000  1.8065137E-04  1.9467057E-04  1.9198065E-04
  -22.0000  1.8781635E-04  2.0285159E-04  1.9964853E-04
  -21.0000  1.9551012E-04  2.1168252E-04  2.0789461E-04
  -20.0000  2.0379120E-04  2.2124140E-04  2.1678468E-04
  -19.0000  2.1272694E-04  2.3161906E-04  2.2639473E-04
  -18.0000  2.2239518E-04  2.4292176E-04  2.3681302E-04
  -17.0000  2.3288643E-04  2.5527464E-04  2.4814256E-04
  -16.0000  2.4430645E-04  2.6882599E-04  2.6050436E-04
  -15.0000  2.5677968E-04  2.8375282E-04  2.7404151E-04
  -14.0000  2.7045345E-04  3.0026805E-04  2.8892434E-04
  -13.0000  2.8550351E-04  3.1862993E-04  3.0535730E-04
  -12.0000  3.0214124E-04  3.3915467E-04  3.2358778E-04
  -11.0000  3.2062306E-04  3.6223335E-04  3.4391805E-04
  -10.0000  3.4126320E-04  3.8835512E-04  3.6672122E-04
  -9.00000  3.6445094E-04  4.1813955E-04  3.9246330E-04
  -8.00000  3.9067456E-04  4.5238242E-04  4.2173395E-04
  -7.00000  4.2055517E-04  4.9212221E-04  4.5529054E-04
  -6.00000  4.5489570E-04  5.3873873E-04  4.9412252E-04
  -5.00000  4.9475369E-04  5.9410384E-04  5.3954846E-04
  -4.00000  5.4155306E-04  6.6081919E-04  5.9336705E-04
  -3.00000  5.9726230E-04  7.4260616E-04  6.5810175E-04
  -2.00000  6.6469217E-04  8.4497605E-04  7.3741696E-04
  -1.00000  7.4802312E-04  9.7645104E-04  8.3687083E-04
   0.00000  8.5381293E-04  1.1509611E-03  9.6539012E-04
   1.00000  9.9312820E-04  1.3930453E-03  1.1384886E-03
   2.00000  1.1867534E-03  1.7508573E-03  1.3864520E-03
   3.00000  1.4810303E-03  2.3365317E-03  1.7805721E-03
   4.00000  2.0162753E-03  3.5038928E-03  2.5543204E-03
   5.00000  3.3825317E-03  6.7766340E-03  4.7494630E-03
   5.20000  3.8207198E-03  7.8357688E-03  5.4420985E-03
   5.40000  4.2863669E-03  8.9356139E-03  6.1291134E-03
   5.60000  4.7750408E-03  1.0053238E-02  6.7813769E-03
   5.80000  5.2921715E-03  1.1200936E-02  7.3981119E-03
   6.00000  5.8421915E-03  1.2401794E-02  7.9907368E-03
   6.20000  6.4247733E-03  1.3678247E-02  8.5761108E-03
   6.40000  7.0364769E-03  1.5049656E-02  9.1754139E-03
   6.60000  7.6739128E-03  1.6532405E-02  9.8129855E-03
   6.80000  8.3359746E-03  1.8140471E-02  1.0513975E-02
   7.00000  9.0243676E-03  1.9886198E-02  1.1301812E-02
   7.20000  9.7427662E-03  2.1781328E-02  1.2196356E-02
   7.40000  1.0495269E-02  2.3838289E-02  1.3212848E-02
   7.60000  1.1284712E-02  2.6071498E-02  1.4361459E-02
   7.80000  1.2111346E-02  2.8498210E-02  1.5647137E-02
   8.00000  1.2972578E-02  3.1138165E-02  1.7069445E-02
   8.20000  1.3864639E-02  3.4011078E-02  1.8622051E-02
   8.40000  1.4786524E-02  3.7131055E-02  2.0291762E-02
   8.60000  1.5744865E-02  4.0497413E-02  2.2057593E-02
   8.80000  1.6756609E-02  4.4082366E-02  2.3890962E-02
   9.00000  1.7846688E-02  4.7817638E-02  2.5757896E-02
   9.20000  1.9041020E-02  5.1583651E-02  2.7622895E-02
   9.40000  2.0358281E-02  5.5206098E-02  2.9452811E-02
   9.60000  2.1804052E-02  5.8465025E-02  3.1219103E-02
   9.80000  2.3368401E-02  6.1119337E-02  3.2898283E-02
   10.0000  2.5025881E-02  6.2943691E-02  3.4471485E-02
   10.2500  2.7167315E-02  6.3809286E-02  3.6265742E-02
   10.5000  2.9291883E-02  6.3006280E-02  3.7844100E-02
   10.7500  3.1290943E-02  6.0693760E-02  3.9185076E-02
   11.0000  3.3068107E-02  5.7252236E-02  4.0280245E-02
   11.2500  3.4556305E-02  5.3154188E-02  4.1137917E-02
   11.5000  3.5725146E-02  4.8835272E-02  4.1777166E-02
   11.7500  3.6578944E-02  4.4621218E-02  4.2218162E-02
   12.0000  3.7148543E-02  4.0713699E-02  4.2475854E-02
   12.2500  3.7481208E-02  3.7211140E-02  4.2559845E-02
   12.5000  3.7631594E-02  3.4140942E-02  4.2478733E-02
   12.7500  3.7654103E-02  3.1489061E-02  4.2244131E-02
   13.0000  3.7597605E-02  2.9221110E-02  4.1872433E-02
   13.2500  3.7503734E-02  2.7294971E-02  4.1386212E-02
   13.5000  3.7407058E-02  2.5667577E-02  4.0814678E-02
   13.7500  3.7335106E-02  2.4298340E-02  4.0191850E-02
   14.0000  3.7307939E-02  2.3150700E-02  3.9552946E-02
   14.2500  3.7337712E-02  2.2192615E-02  3.8930358E-02
   14.5000  3.7428597E-02  2.1396502E-02  3.8350356E-02
   14.7500  3.7577220E-02  2.0738937E-02  3.7831061E-02
   15.0000  3.7773612E-02  2.0200250E-02  3.7381795E-02
   15.2500  3.8002572E-02  1.9764116E-02  3.7003601E-02
   15.5000  3.8245339E-02  1.9417155E-02  3.6690636E-02
   15.7500  3.8481474E-02  1.9148550E-02  3.6432123E-02
   16.0000  3.8690791E-02  1.8949684E-02  3.6214532E-02
   16.2500  3.8855170E-02  1.8813782E-02  3.6023693E-02
   16.5000  3.8960068E-02  1.8735564E-02  3.5846557E-02
   16.7500  3.8995598E-02  1.8710917E-02  3.5672410E-02
   17.0000  3.8957077E-02  1.8736601E-02  3.5493479E-02
   17.2500  3.8845074E-02  1.8809996E-02  3.5304973E-02
   17.5000  3.8664985E-02  1.8928908E-02  3.5104718E-02
   17.7500  3.8426261E-02  1.9091425E-02  3.4892578E-02
   18.0000  3.8141399E-02  1.9295819E-02  3.4669831E-02
   18.2500  3.7824804E-02  1.9540485E-02  3.4438608E-02
   18.5000  3.7491655E-02  1.9823907E-02  3.4201457E-02
   18.7500  3.7156850E-02  2.0144652E-02  3.3961030E-02
   19.0000  3.6834116E-02  2.0501378E-02  3.3719858E-02
   19.2500  3.6535309E-02  2.0892878E-02  3.3480194E-02
   19.5000  3.6269926E-02  2.1318117E-02  3.3243893E-02
   19.7500  3.6044824E-02  2.1776208E-02  3.3012334E-02
   20.0000  3.5864167E-02  2.2266181E-02  3.2786455E-02
   21.0000  3.5592418E-02  2.4503726E-02  3.1950636E-02
   22.0000  3.5858550E-02  2.7049889E-02  3.1216431E-02
   23.0000  3.6143667E-02  2.9675052E-02  3.0520067E-02
   24.0000  3.5839425E-02  3.2060315E-02  2.9791169E-02
   25.0000  3.4655568E-02  3.3848685E-02  2.9013324E-02
   26.0000  3.2825075E-02  3.4795117E-02  2.8239007E-02
   27.0000  3.0822379E-02  3.4915011E-02  2.7542854E-02
   28.0000  2.9029843E-02  3.4411761E-02  2.6986812E-02
   29.0000  2.7618025E-02  3.3532506E-02  2.6601597E-02
   30.0000  2.6590561E-02  3.2479940E-02  2.6379243E-02
   31.0000  2.5867206E-02  3.1385607E-02  2.6276945E-02
   32.0000  2.5342624E-02  3.0316649E-02  2.6231463E-02
   33.0000  2.4917968E-02  2.9293018E-02  2.6177423E-02
   34.0000  2.4515081E-02  2.8306311E-02  2.6061102E-02
   35.0000  2.4081944E-02  2.7337530E-02  2.5847409E-02
   36.0000  2.3594892E-02  2.6372245E-02  2.5522612E-02
   37.0000  2.3059123E-02  2.5411949E-02  2.5095676E-02
   38.0000  2.2506393E-02  2.4481858E-02  2.4600125E-02
   39.0000  2.1988896E-02  2.3636359E-02  2.4096582E-02
   40.0000  2.1566542E-02  2.2953577E-02  2.3667014E-02
