    Energy   (100,001)      (010,001)      (001,110)   
  -25.0000  1.6799585E-04  1.7601017E-04  1.7555748E-04
  -24.0000  1.7429950E-04  1.8297722E-04  1.8217295E-04
  -23.0000  1.8104132E-04  1.9046119E-04  1.8925520E-04
  -22.0000  1.8826680E-04  1.9851976E-04  1.9685368E-04
  -21.0000  1.9602779E-04  2.0721937E-04  2.0502491E-04
  -20.0000  2.0438366E-04  2.1663689E-04  2.1383383E-04
  -19.0000  2.1340274E-04  2.2686174E-04  2.2335537E-04
  -18.0000  2.2316397E-04  2.3799852E-04  2.3367647E-04
  -17.0000  2.3375913E-04  2.5017031E-04  2.4489852E-04
  -16.0000  2.4529543E-04  2.6352291E-04  2.5714050E-04
  -15.0000  2.5789892E-04  2.7823023E-04  2.7054287E-04
  -14.0000  2.7171877E-04  2.9450132E-04  2.8527268E-04
  -13.0000  2.8693278E-04  3.1258956E-04  3.0153007E-04
  -12.0000  3.0375454E-04  3.3280490E-04  3.1955681E-04
  -11.0000  3.2244286E-04  3.5553027E-04  3.3964772E-04
  -10.0000  3.4331433E-04  3.8124412E-04  3.6216590E-04
  -9.00000  3.6676037E-04  4.1055158E-04  3.8756367E-04
  -8.00000  3.9327064E-04  4.4422870E-04  4.1641171E-04
  -7.00000  4.2346602E-04  4.8328629E-04  4.4944045E-04
  -6.00000  4.5814584E-04  5.2906443E-04  4.8760030E-04
  -5.00000  4.9835746E-04  5.8337613E-04  5.3215179E-04
  -4.00000  5.4550184E-04  6.4873287E-04  5.8480451E-04
  -3.00000  6.0149942E-04  7.2871203E-04  6.4794010E-04
  -2.00000  6.6906268E-04  8.2858332E-04  7.2498662E-04
  -1.00000  7.5216892E-04  9.5643811E-04  8.2108519E-04
   0.00000  8.5694178E-04  1.1253773E-03  9.4436995E-04
   1.00000  9.9346419E-04  1.3581779E-03  1.1086894E-03
   2.00000  1.1800771E-03  1.6987084E-03  1.3402975E-03
   3.00000  1.4561076E-03  2.2464204E-03  1.6983989E-03
   4.00000  1.9362215E-03  3.3039285E-03  2.3654464E-03
   5.00000  3.0832199E-03  6.1305933E-03  4.1163210E-03
   5.20000  3.4293604E-03  7.0319336E-03  4.6676848E-03
   5.40000  3.7821050E-03  7.9709020E-03  5.2329605E-03
   5.60000  4.1378580E-03  8.9336474E-03  5.7991928E-03
   5.80000  4.5063839E-03  9.9371332E-03  6.3736463E-03
   6.00000  4.9011521E-03  1.1008624E-02  6.9709687E-03
   6.20000  5.3346710E-03  1.2176295E-02  7.6065871E-03
   6.40000  5.8175854E-03  1.3467699E-02  8.2947619E-03
   6.60000  6.3591918E-03  1.4910484E-02  9.0483656E-03
   6.80000  6.9682472E-03  1.6533277E-02  9.8794850E-03
   7.00000  7.6534627E-03  1.8366198E-02  1.0800429E-02
   7.20000  8.4232256E-03  2.0440927E-02  1.1824381E-02
   7.40000  9.2842178E-03  2.2789883E-02  1.2964770E-02
   7.60000  1.0238831E-02  2.5443563E-02  1.4232658E-02
   7.80000  1.1281950E-02  2.8425630E-02  1.5631938E-02
   8.00000  1.2399106E-02  3.1745825E-02  1.7153319E-02
   8.20000  1.3569409E-02  3.5391134E-02  1.8769819E-02
   8.40000  1.4775239E-02  3.9316227E-02  2.0437660E-02
   8.60000  1.6014348E-02  4.3435000E-02  2.2104470E-02
   8.80000  1.7304754E-02  4.7615737E-02  2.3721656E-02
   9.00000  1.8677618E-02  5.1682809E-02  2.5254890E-02
   9.20000  2.0163945E-02  5.5427494E-02  2.6689456E-02
   9.40000  2.1784029E-02  5.8628892E-02  2.8031091E-02
   9.60000  2.3542752E-02  6.1082484E-02  2.9302909E-02
   9.80000  2.5428536E-02  6.2630224E-02  3.0537786E-02
   10.0000  2.7413544E-02  6.3185776E-02  3.1767808E-02
   10.2500  2.9967724E-02  6.2493236E-02  3.3330626E-02
   10.5000  3.2500206E-02  6.0438279E-02  3.4928743E-02
   10.7500  3.4888828E-02  5.7349585E-02  3.6535630E-02
   11.0000  3.7014513E-02  5.3617976E-02  3.8098836E-02
   11.2500  3.8777470E-02  4.9613641E-02  3.9554090E-02
   11.5000  4.0110954E-02  4.5630421E-02  4.0838753E-02
   11.7500  4.0991027E-02  4.1867285E-02  4.1902903E-02
   12.0000  4.1441813E-02  3.8436666E-02  4.2715986E-02
   12.2500  4.1531836E-02  3.5384378E-02  4.3268043E-02
   12.5000  4.1360291E-02  3.2711127E-02  4.3567217E-02
   12.7500  4.1037346E-02  3.0391072E-02  4.3636301E-02
   13.0000  4.0662967E-02  2.8386559E-02  4.3509173E-02
   13.2500  4.0311139E-02  2.6658601E-02  4.3225868E-02
   13.5000  4.0025567E-02  2.5172285E-02  4.2827297E-02
   13.7500  3.9824291E-02  2.3898171E-02  4.2352262E-02
   14.0000  3.9707120E-02  2.2811839E-02  4.1836310E-02
   14.2500  3.9662485E-02  2.1892928E-02  4.1310666E-02
   14.5000  3.9672708E-02  2.1124162E-02  4.0800798E-02
   14.7500  3.9717583E-02  2.0490535E-02  4.0325062E-02
   15.0000  3.9776539E-02  1.9978757E-02  3.9893941E-02
   15.2500  3.9829799E-02  1.9576941E-02  3.9510171E-02
   15.5000  3.9858966E-02  1.9274451E-02  3.9169755E-02
   15.7500  3.9847400E-02  1.9061837E-02  3.8863698E-02
   16.0000  3.9780637E-02  1.8930771E-02  3.8580122E-02
   16.2500  3.9646995E-02  1.8873981E-02  3.8306454E-02
   16.5000  3.9438369E-02  1.8885154E-02  3.8031338E-02
   16.7500  3.9151076E-02  1.8958812E-02  3.7746052E-02
   17.0000  3.8786532E-02  1.9090184E-02  3.7445260E-02
   17.2500  3.8351537E-02  1.9275061E-02  3.7127117E-02
   17.5000  3.7857992E-02  1.9509673E-02  3.6792815E-02
   17.7500  3.7322019E-02  1.9790560E-02  3.6445783E-02
   18.0000  3.6762604E-02  2.0114478E-02  3.6090751E-02
   18.2500  3.6199978E-02  2.0478312E-02  3.5732879E-02
   18.5000  3.5654012E-02  2.0879018E-02  3.5377047E-02
   18.7500  3.5142833E-02  2.1313596E-02  3.5027383E-02
   19.0000  3.4681814E-02  2.1779103E-02  3.4686994E-02
   19.2500  3.4282947E-02  2.2272719E-02  3.4357881E-02
   19.5000  3.3954580E-02  2.2791833E-02  3.4040962E-02
   19.7500  3.3701412E-02  2.3334073E-02  3.3736207E-02
   20.0000  3.3524687E-02  2.3897090E-02  3.3442885E-02
   21.0000  3.3513785E-02  2.6289429E-02  3.2362510E-02
   22.0000  3.4254147E-02  2.8725756E-02  3.1377386E-02
   23.0000  3.5034065E-02  3.0973138E-02  3.0425134E-02
   24.0000  3.5131418E-02  3.2780787E-02  2.9474847E-02
   25.0000  3.4218772E-02  3.3933662E-02  2.8531768E-02
   26.0000  3.2532141E-02  3.4350463E-02  2.7634498E-02
   27.0000  3.0574579E-02  3.4128567E-02  2.6836139E-02
   28.0000  2.8770973E-02  3.3454130E-02  2.6198326E-02
   29.0000  2.7330608E-02  3.2513790E-02  2.5768196E-02
   30.0000  2.6276591E-02  3.1454723E-02  2.5545864E-02
   31.0000  2.5528884E-02  3.0371505E-02  2.5477724E-02
   32.0000  2.4975758E-02  2.9310242E-02  2.5481494E-02
   33.0000  2.4515897E-02  2.8282386E-02  2.5479085E-02
   34.0000  2.4076018E-02  2.7280541E-02  2.5414638E-02
   35.0000  2.3615138E-02  2.6292254E-02  2.5254280E-02
   36.0000  2.3122528E-02  2.5310931E-02  2.4977829E-02
   37.0000  2.2611239E-02  2.4344083E-02  2.4576637E-02
   38.0000  2.2109436E-02  2.3419581E-02  2.4066631E-02
   39.0000  2.1654365E-02  2.2589881E-02  2.3509686E-02
   40.0000  2.1287436E-02  2.1925731E-02  2.3014061E-02
