    Energy   (100,001)      (010,001)      (001,110)   
  -25.0000  1.6795941E-04  1.8584822E-04  1.7133394E-04
  -24.0000  1.7426824E-04  1.9271715E-04  1.7783499E-04
  -23.0000  1.8101731E-04  2.0007136E-04  1.8479516E-04
  -22.0000  1.8825259E-04  2.0796300E-04  1.9226299E-04
  -21.0000  1.9602657E-04  2.1645184E-04  2.0029395E-04
  -20.0000  2.0439939E-04  2.2560676E-04  2.0895173E-04
  -19.0000  2.1344036E-04  2.3550750E-04  2.1830978E-04
  -18.0000  2.2322968E-04  2.4624689E-04  2.2845331E-04
  -17.0000  2.3386068E-04  2.5793359E-04  2.3948162E-04
  -16.0000  2.4544262E-04  2.7069561E-04  2.5151117E-04
  -15.0000  2.5810418E-04  2.8468479E-04  2.6467943E-04
  -14.0000  2.7199793E-04  3.0008246E-04  2.7914976E-04
  -13.0000  2.8730618E-04  3.1710704E-04  2.9511778E-04
  -12.0000  3.0424849E-04  3.3602376E-04  3.1281974E-04
  -11.0000  3.2309167E-04  3.5715792E-04  3.3254353E-04
  -10.0000  3.4416319E-04  3.8091260E-04  3.5464364E-04
  -9.00000  3.6786948E-04  4.0779321E-04  3.7956156E-04
  -8.00000  3.9472118E-04  4.3844177E-04  4.0785423E-04
  -7.00000  4.2536901E-04  4.7368600E-04  4.4023467E-04
  -6.00000  4.6065563E-04  5.1461099E-04  4.7763121E-04
  -5.00000  5.0169279E-04  5.6266703E-04  5.2127649E-04
  -4.00000  5.4997959E-04  6.1983661E-04  5.7284574E-04
  -3.00000  6.0759099E-04  6.8890303E-04  6.3468043E-04
  -2.00000  6.7749196E-04  7.7390261E-04  7.1016861E-04
  -1.00000  7.6409222E-04  8.8093027E-04  8.0443350E-04
   0.00000  8.7430091E-04  1.0196855E-03  9.2568639E-04
   1.00000  1.0197435E-03  1.2067546E-03  1.0881951E-03
   2.00000  1.2221374E-03  1.4736748E-03  1.3198963E-03
   3.00000  1.5295148E-03  1.8917805E-03  1.6870620E-03
   4.00000  2.0860267E-03  2.6827661E-03  2.4094975E-03
   5.00000  3.4891121E-03  4.7869542E-03  4.4806416E-03
   5.20000  3.9303607E-03  5.4336556E-03  5.1384015E-03
   5.40000  4.3938750E-03  6.0786291E-03  5.7930223E-03
   5.60000  4.8781638E-03  6.7071925E-03  6.4164933E-03
   5.80000  5.3938221E-03  7.3323282E-03  7.0053093E-03
   6.00000  5.9490146E-03  7.9755188E-03  7.5637529E-03
   6.20000  6.5437755E-03  8.6574882E-03  8.0971558E-03
   6.40000  7.1729532E-03  9.3959150E-03  8.6126058E-03
   6.60000  7.8320449E-03  1.0205523E-02  9.1215205E-03
   6.80000  8.5209660E-03  1.1099154E-02  9.6409234E-03
   7.00000  9.2446960E-03  1.2089548E-02  1.0192424E-02
   7.20000  1.0012194E-02  1.3191392E-02  1.0799846E-02
   7.40000  1.0834932E-02  1.4422969E-02  1.1487012E-02
   7.60000  1.1725612E-02  1.5806795E-02  1.2276102E-02
   7.80000  1.2697158E-02  1.7369102E-02  1.3185916E-02
   8.00000  1.3761874E-02  1.9138316E-02  1.4229460E-02
   8.20000  1.4930645E-02  2.1142738E-02  1.5411285E-02
   8.40000  1.6212023E-02  2.3407850E-02  1.6726016E-02
   8.60000  1.7611117E-02  2.5953715E-02  1.8159606E-02
   8.80000  1.9128244E-02  2.8792400E-02  1.9693537E-02
   9.00000  2.0757538E-02  3.1924717E-02  2.1310031E-02
   9.20000  2.2485556E-02  3.5335612E-02  2.2995026E-02
   9.40000  2.4289895E-02  3.8987902E-02  2.4736780E-02
   9.60000  2.6138439E-02  4.2814511E-02  2.6521848E-02
   9.80000  2.7990215E-02  4.6710574E-02  2.8332640E-02
   10.0000  2.9797992E-02  5.0528322E-02  3.0147193E-02
   10.2500  3.1920168E-02  5.4899868E-02  3.2377177E-02
   10.5000  3.3804979E-02  5.8434038E-02  3.4498965E-02
   10.7500  3.5381650E-02  6.0745996E-02  3.6441498E-02
   11.0000  3.6608778E-02  6.1592332E-02  3.8150564E-02
   11.2500  3.7475314E-02  6.0942414E-02  3.9593775E-02
   11.5000  3.7998318E-02  5.8978884E-02  4.0757300E-02
   11.7500  3.8220077E-02  5.6032128E-02  4.1642228E-02
   12.0000  3.8200510E-02  5.2484714E-02  4.2261891E-02
   12.2500  3.8007383E-02  4.8686603E-02  4.2640133E-02
   12.5000  3.7708713E-02  4.4907518E-02  4.2808889E-02
   12.7500  3.7365675E-02  4.1327897E-02  4.2802998E-02
   13.0000  3.7026969E-02  3.8051896E-02  4.2655276E-02
   13.2500  3.6727414E-02  3.5126476E-02  4.2395291E-02
   13.5000  3.6489664E-02  3.2559648E-02  4.2050510E-02
   13.7500  3.6326767E-02  3.0335671E-02  4.1647492E-02
   14.0000  3.6244535E-02  2.8426315E-02  4.1212352E-02
   14.2500  3.6243391E-02  2.6798354E-02  4.0770458E-02
   14.5000  3.6319608E-02  2.5418083E-02  4.0345503E-02
   14.7500  3.6466001E-02  2.4253781E-02  3.9958218E-02
   15.0000  3.6672212E-02  2.3276850E-02  3.9625015E-02
   15.2500  3.6924817E-02  2.2462177E-02  3.9356842E-02
   15.5000  3.7207440E-02  2.1788082E-02  3.9158420E-02
   15.7500  3.7501074E-02  2.1236038E-02  3.9027978E-02
   16.0000  3.7784705E-02  2.0790313E-02  3.8957528E-02
   16.2500  3.8036358E-02  2.0437594E-02  3.8933694E-02
   16.5000  3.8234570E-02  2.0166640E-02  3.8939077E-02
   16.7500  3.8360188E-02  1.9967969E-02  3.8954055E-02
   17.0000  3.8398273E-02  1.9833599E-02  3.8958839E-02
   17.2500  3.8339788E-02  1.9756818E-02  3.8935500E-02
   17.5000  3.8182714E-02  1.9731986E-02  3.8869691E-02
   17.7500  3.7932337E-02  1.9754360E-02  3.8751778E-02
   18.0000  3.7600599E-02  1.9819938E-02  3.8577254E-02
   18.2500  3.7204649E-02  1.9925328E-02  3.8346455E-02
   18.5000  3.6764858E-02  2.0067647E-02  3.8063727E-02
   18.7500  3.6302702E-02  2.0244439E-02  3.7736285E-02
   19.0000  3.5838817E-02  2.0453641E-02  3.7372986E-02
   19.2500  3.5391474E-02  2.0693572E-02  3.6983194E-02
   19.5000  3.4975561E-02  2.0962937E-02  3.6575830E-02
   19.7500  3.4602103E-02  2.1260798E-02  3.6158727E-02
   20.0000  3.4278323E-02  2.1586409E-02  3.5738403E-02
   21.0000  3.3529414E-02  2.3145361E-02  3.4123127E-02
   22.0000  3.3569270E-02  2.5062572E-02  3.2727287E-02
   23.0000  3.4042095E-02  2.7263858E-02  3.1516077E-02
   24.0000  3.4444322E-02  2.9619450E-02  3.0374088E-02
   25.0000  3.4287340E-02  3.1890946E-02  2.9220028E-02
   26.0000  3.3321012E-02  3.3757012E-02  2.8050482E-02
   27.0000  3.1669762E-02  3.4995141E-02  2.6919167E-02
   28.0000  2.9719808E-02  3.5543929E-02  2.5915915E-02
   29.0000  2.7866098E-02  3.5489875E-02  2.5125112E-02
   30.0000  2.6346883E-02  3.5006500E-02  2.4582703E-02
   31.0000  2.5226311E-02  3.4273106E-02  2.4265563E-02
   32.0000  2.4454446E-02  3.3424159E-02  2.4108101E-02
   33.0000  2.3933219E-02  3.2537277E-02  2.4027304E-02
   34.0000  2.3559223E-02  3.1643668E-02  2.3943300E-02
   35.0000  2.3244013E-02  3.0746084E-02  2.3791748E-02
   36.0000  2.2922910E-02  2.9837146E-02  2.3531693E-02
   37.0000  2.2560152E-02  2.8915838E-02  2.3153315E-02
   38.0000  2.2153421E-02  2.8002013E-02  2.2685267E-02
   39.0000  2.1736933E-02  2.7150050E-02  2.2195633E-02
   40.0000  2.1374212E-02  2.6450268E-02  2.1774666E-02
