    Energy   (100,001)      (010,001)      (001,110)   
  -25.0000  1.6926881E-04  1.7914757E-04  1.8275064E-04
  -24.0000  1.7507727E-04  1.8621396E-04  1.8892160E-04
  -23.0000  1.8125802E-04  1.9380490E-04  1.9549064E-04
  -22.0000  1.8784686E-04  2.0197906E-04  2.0249684E-04
  -21.0000  1.9488433E-04  2.1080401E-04  2.0998455E-04
  -20.0000  2.0241640E-04  2.2035795E-04  2.1800428E-04
  -19.0000  2.1049548E-04  2.3073192E-04  2.2661379E-04
  -18.0000  2.1918153E-04  2.4203241E-04  2.3587953E-04
  -17.0000  2.2854354E-04  2.5438482E-04  2.4587820E-04
  -16.0000  2.3866122E-04  2.6793772E-04  2.5669893E-04
  -15.0000  2.4962721E-04  2.8286844E-04  2.6844589E-04
  -14.0000  2.6154979E-04  2.9939026E-04  2.8124156E-04
  -13.0000  2.7455638E-04  3.1776182E-04  2.9523102E-04
  -12.0000  2.8879793E-04  3.3829971E-04  3.1058749E-04
  -11.0000  3.0445472E-04  3.6139536E-04  3.2751952E-04
  -10.0000  3.2174392E-04  3.8753823E-04  3.4628071E-04
  -9.00000  3.4092962E-04  4.1734796E-04  3.6718272E-04
  -8.00000  3.6233661E-04  4.5162007E-04  3.9061340E-04
  -7.00000  3.8636924E-04  4.9139204E-04  4.1706232E-04
  -6.00000  4.1353822E-04  5.3804146E-04  4.4715771E-04
  -5.00000  4.4449961E-04  5.9343566E-04  4.8172170E-04
  -4.00000  4.8011321E-04  6.6016760E-04  5.2185604E-04
  -3.00000  5.2153384E-04  7.4194242E-04  5.6908090E-04
  -2.00000  5.7036094E-04  8.4424119E-04  6.2557340E-04
  -1.00000  6.2889984E-04  9.7552967E-04  6.9460759E-04
   0.00000  7.0065752E-04  1.1496322E-03  7.8144739E-04
   1.00000  7.9139689E-04  1.3908933E-03  8.9540485E-04
   2.00000  9.1177437E-04  1.7471495E-03  1.0555065E-03
   3.00000  1.0857621E-03  2.3304154E-03  1.3106863E-03
   4.00000  1.3899519E-03  3.4993118E-03  1.8455058E-03
   5.00000  2.1588817E-03  6.8101848E-03  3.5375007E-03
   5.20000  2.3877253E-03  7.8614937E-03  4.0084125E-03
   5.40000  2.6098817E-03  8.9279485E-03  4.3872910E-03
   5.60000  2.8198492E-03  9.9836610E-03  4.6499076E-03
   5.80000  3.0231171E-03  1.1040643E-02  4.8170419E-03
   6.00000  3.2277260E-03  1.2120166E-02  4.9256433E-03
   6.20000  3.4395968E-03  1.3242707E-02  5.0112632E-03
   6.40000  3.6612081E-03  1.4430255E-02  5.1001344E-03
   6.60000  3.8924452E-03  1.5709564E-02  5.2070459E-03
   6.80000  4.1325241E-03  1.7111146E-02  5.3373024E-03
   7.00000  4.3815465E-03  1.8665365E-02  5.4907058E-03
   7.20000  4.6409841E-03  2.0399693E-02  5.6655627E-03
   7.40000  4.9134424E-03  2.2339147E-02  5.8616978E-03
   7.60000  5.2023057E-03  2.4509019E-02  6.0821590E-03
   7.80000  5.5115155E-03  2.6938109E-02  6.3335694E-03
   8.00000  5.8454387E-03  2.9660479E-02  6.6253963E-03
   8.20000  6.2087301E-03  3.2713952E-02  6.9687199E-03
   8.40000  6.6061499E-03  3.6134024E-02  7.3750808E-03
   8.60000  7.0423215E-03  3.9942333E-02  7.8557023E-03
   8.80000  7.5214144E-03  4.4129051E-02  8.4210838E-03
   9.00000  8.0467424E-03  4.8629592E-02  9.0807966E-03
   9.20000  8.6203199E-03  5.3298910E-02  9.8432849E-03
   9.40000  9.2425174E-03  5.7892234E-02  1.0715514E-02
   9.60000  9.9120616E-03  6.2067809E-02  1.1702376E-02
   9.80000  1.0626612E-02  6.5428442E-02  1.2805894E-02
   10.0000  1.1383862E-02  6.7605127E-02  1.4024371E-02
   10.2500  1.2388944E-02  6.8313578E-02  1.5699545E-02
   10.5000  1.3461013E-02  6.6784603E-02  1.7524076E-02
   10.7500  1.4605269E-02  6.3453986E-02  1.9470655E-02
   11.0000  1.5825839E-02  5.8997635E-02  2.1508071E-02
   11.2500  1.7120568E-02  5.4073025E-02  2.3601528E-02
   11.5000  1.8477953E-02  4.9169189E-02  2.5709967E-02
   11.7500  1.9877367E-02  4.4580914E-02  2.7783235E-02
   12.0000  2.1292277E-02  4.0449746E-02  2.9763214E-02
   12.2500  2.2695935E-02  3.6819190E-02  3.1590307E-02
   12.5000  2.4067680E-02  3.3678815E-02  3.3212604E-02
   12.7500  2.5397052E-02  3.0991182E-02  3.4593014E-02
   13.0000  2.6684652E-02  2.8706641E-02  3.5712364E-02
   13.2500  2.7940014E-02  2.6772372E-02  3.6570325E-02
   13.5000  2.9176687E-02  2.5138194E-02  3.7186491E-02
   13.7500  3.0406768E-02  2.3759517E-02  3.7598913E-02
   14.0000  3.1638201E-02  2.2598256E-02  3.7857116E-02
   14.2500  3.2874476E-02  2.1622746E-02  3.8013108E-02
   14.5000  3.4114895E-02  2.0807196E-02  3.8114661E-02
   14.7500  3.5354828E-02  2.0130900E-02  3.8201624E-02
   15.0000  3.6586066E-02  1.9577383E-02  3.8304369E-02
   15.2500  3.7797306E-02  1.9133544E-02  3.8443477E-02
   15.5000  3.8974754E-02  1.8788905E-02  3.8630077E-02
   15.7500  4.0102790E-02  1.8534969E-02  3.8866523E-02
   16.0000  4.1164665E-02  1.8364696E-02  3.9147266E-02
   16.2500  4.2143236E-02  1.8272105E-02  3.9459899E-02
   16.5000  4.3021754E-02  1.8251961E-02  3.9786466E-02
   16.7500  4.3784745E-02  1.8299552E-02  4.0105075E-02
   17.0000  4.4418972E-02  1.8410518E-02  4.0391895E-02
   17.2500  4.4914433E-02  1.8580731E-02  4.0623445E-02
   17.5000  4.5265299E-02  1.8806224E-02  4.0778996E-02
   17.7500  4.5470656E-02  1.9083150E-02  4.0842772E-02
   18.0000  4.5534906E-02  1.9407767E-02  4.0805576E-02
   18.2500  4.5467690E-02  1.9776448E-02  4.0665553E-02
   18.5000  4.5283306E-02  2.0185701E-02  4.0427965E-02
   18.7500  4.4999634E-02  2.0632194E-02  4.0104055E-02
   19.0000  4.4636700E-02  2.1112788E-02  3.9709257E-02
   19.2500  4.4215067E-02  2.1624590E-02  3.9261104E-02
   19.5000  4.3754267E-02  2.2165000E-02  3.8777201E-02
   19.7500  4.3271561E-02  2.2731675E-02  3.8273608E-02
   20.0000  4.2781385E-02  2.3322225E-02  3.7764012E-02
   21.0000  4.0955640E-02  2.5848672E-02  3.5867306E-02
   22.0000  3.9597109E-02  2.8421446E-02  3.4436504E-02
   23.0000  3.8683201E-02  3.0746060E-02  3.3459353E-02
   24.0000  3.7961783E-02  3.2539620E-02  3.2781731E-02
   25.0000  3.7111193E-02  3.3616727E-02  3.2254184E-02
   26.0000  3.5921028E-02  3.3956113E-02  3.1769209E-02
   27.0000  3.4417023E-02  3.3682306E-02  3.1274891E-02
   28.0000  3.2806478E-02  3.2987227E-02  3.0779160E-02
   29.0000  3.1317977E-02  3.2055964E-02  3.0328980E-02
   30.0000  3.0092644E-02  3.1028074E-02  2.9969454E-02
   31.0000  2.9167274E-02  2.9993724E-02  2.9714771E-02
   32.0000  2.8504107E-02  2.9002772E-02  2.9546587E-02
   33.0000  2.8031201E-02  2.8066504E-02  2.9427295E-02
   34.0000  2.7666954E-02  2.7173721E-02  2.9319526E-02
   35.0000  2.7331182E-02  2.6307196E-02  2.9195421E-02
   36.0000  2.6954624E-02  2.5454334E-02  2.9037006E-02
   37.0000  2.6492784E-02  2.4616062E-02  2.8835634E-02
   38.0000  2.5943262E-02  2.3813547E-02  2.8594030E-02
   39.0000  2.5359325E-02  2.3091694E-02  2.8333013E-02
   40.0000  2.4842943E-02  2.2512774E-02  2.8097858E-02
