    Energy   (100,001)      (010,001)      (001,110)   
  -25.0000  1.6104709E-04  1.7493198E-04  1.6740743E-04
  -24.0000  1.6706715E-04  1.8193691E-04  1.7375133E-04
  -23.0000  1.7350015E-04  1.8946677E-04  1.8054110E-04
  -22.0000  1.8038819E-04  1.9758070E-04  1.8782360E-04
  -21.0000  1.8777915E-04  2.0634688E-04  1.9565241E-04
  -20.0000  1.9572773E-04  2.1584428E-04  2.0408899E-04
  -19.0000  2.0429668E-04  2.2616493E-04  2.1320423E-04
  -18.0000  2.1355832E-04  2.3741661E-04  2.2308027E-04
  -17.0000  2.2359642E-04  2.4972637E-04  2.3381284E-04
  -16.0000  2.3450856E-04  2.6324497E-04  2.4551415E-04
  -15.0000  2.4640904E-04  2.7815259E-04  2.5831660E-04
  -14.0000  2.5943262E-04  2.9466630E-04  2.7237748E-04
  -13.0000  2.7373925E-04  3.1304978E-04  2.8788512E-04
  -12.0000  2.8952027E-04  3.3362646E-04  3.0506690E-04
  -11.0000  3.0700645E-04  3.5679709E-04  3.2419995E-04
  -10.0000  3.2647866E-04  3.8306402E-04  3.4562552E-04
  -9.00000  3.4828232E-04  4.1306498E-04  3.6976873E-04
  -8.00000  3.7284712E-04  4.4762133E-04  3.9716625E-04
  -7.00000  4.0071455E-04  4.8780809E-04  4.2850563E-04
  -6.00000  4.3257726E-04  5.3505859E-04  4.6468317E-04
  -5.00000  4.6933667E-04  5.9132492E-04  5.0689077E-04
  -4.00000  5.1218991E-04  6.5933258E-04  5.5675155E-04
  -3.00000  5.6276603E-04  7.4300072E-04  6.1653952E-04
  -2.00000  6.2334919E-04  8.4816917E-04  6.8955379E-04
  -1.00000  6.9726587E-04  9.8393293E-04  7.8079531E-04
   0.00000  7.8960978E-04  1.1652819E-03  8.9828891E-04
   1.00000  9.0874703E-04  1.4188718E-03  1.0559416E-03
   2.00000  1.0699507E-03  1.7975401E-03  1.2806545E-03
   3.00000  1.3064789E-03  2.4254489E-03  1.6340949E-03
   4.00000  1.7187036E-03  3.6957584E-03  2.3053387E-03
   5.00000  2.7273583E-03  7.3044732E-03  4.0986932E-03
   5.20000  3.0317430E-03  8.4917727E-03  4.7050224E-03
   5.40000  3.3359333E-03  9.7461101E-03  5.3760844E-03
   5.60000  3.6323633E-03  1.1050136E-02  6.1113471E-03
   5.80000  3.9256999E-03  1.2423231E-02  6.9236080E-03
   6.00000  4.2248663E-03  1.3893720E-02  7.8276337E-03
   6.20000  4.5393720E-03  1.5484428E-02  8.8322321E-03
   6.40000  4.8785483E-03  1.7207405E-02  9.9339187E-03
   6.60000  5.2514491E-03  1.9061046E-02  1.1109923E-02
   6.80000  5.6666024E-03  2.1028672E-02  1.2311824E-02
   7.00000  6.1314474E-03  2.3081023E-02  1.3464562E-02
   7.20000  6.6515492E-03  2.5184984E-02  1.4477071E-02
   7.40000  7.2299397E-03  2.7317701E-02  1.5266949E-02
   7.60000  7.8671574E-03  2.9480999E-02  1.5791267E-02
   7.80000  8.5624701E-03  3.1708246E-02  1.6066513E-02
   8.00000  9.3161333E-03  3.4058617E-02  1.6164326E-02
   8.20000  1.0131664E-02  3.6600582E-02  1.6185741E-02
   8.40000  1.1016836E-02  3.9390409E-02  1.6229866E-02
   8.60000  1.1982809E-02  4.2449571E-02  1.6372315E-02
   8.80000  1.3041749E-02  4.5742471E-02  1.6658985E-02
   9.00000  1.4203778E-02  4.9158384E-02  1.7111650E-02
   9.20000  1.5474039E-02  5.2506494E-02  1.7737860E-02
   9.40000  1.6850473E-02  5.5532739E-02  1.8538651E-02
   9.60000  1.8322724E-02  5.7959751E-02  1.9511397E-02
   9.80000  1.9872185E-02  5.9541691E-02  2.0649045E-02
   10.0000  2.1472832E-02  6.0118420E-02  2.1938450E-02
   10.2500  2.3496544E-02  5.9377886E-02  2.3732313E-02
   10.5000  2.5481775E-02  5.7202765E-02  2.5677834E-02
   10.7500  2.7364596E-02  5.3989146E-02  2.7711119E-02
   11.0000  2.9093785E-02  5.0202752E-02  2.9766284E-02
   11.2500  3.0635043E-02  4.6258700E-02  3.1781872E-02
   11.5000  3.1973703E-02  4.2457409E-02  3.3704998E-02
   11.7500  3.3114837E-02  3.8975909E-02  3.5493389E-02
   12.0000  3.4080953E-02  3.5892636E-02  3.7114063E-02
   12.2500  3.4906707E-02  3.3221165E-02  3.8540396E-02
   12.5000  3.5631602E-02  3.0938728E-02  3.9750869E-02
   12.7500  3.6293416E-02  2.9005539E-02  4.0733364E-02
   13.0000  3.6923798E-02  2.7376373E-02  4.1491123E-02
   13.2500  3.7546134E-02  2.6007374E-02  4.2042826E-02
   13.5000  3.8174912E-02  2.4859603E-02  4.2417573E-02
   13.7500  3.8815747E-02  2.3900144E-02  4.2648896E-02
   14.0000  3.9465801E-02  2.3101817E-02  4.2769617E-02
   14.2500  4.0114572E-02  2.2442330E-02  4.2808069E-02
   14.5000  4.0745142E-02  2.1903352E-02  4.2785907E-02
   14.7500  4.1335883E-02  2.1469728E-02  4.2717432E-02
   15.0000  4.1862602E-02  2.1128856E-02  4.2610159E-02
   15.2500  4.2300977E-02  2.0870223E-02  4.2466207E-02
   15.5000  4.2629112E-02  2.0685053E-02  4.2284118E-02
   15.7500  4.2829909E-02  2.0566026E-02  4.2060738E-02
   16.0000  4.2892998E-02  2.0507025E-02  4.1792897E-02
   16.2500  4.2815982E-02  2.0502916E-02  4.1478717E-02
   16.5000  4.2604832E-02  2.0549348E-02  4.1118466E-02
   16.7500  4.2273412E-02  2.0642576E-02  4.0714925E-02
   17.0000  4.1842176E-02  2.0779316E-02  4.0273311E-02
   17.2500  4.1336262E-02  2.0956631E-02  3.9800842E-02
   17.5000  4.0783259E-02  2.1171828E-02  3.9306066E-02
   17.7500  4.0210971E-02  2.1422392E-02  3.8798098E-02
   18.0000  3.9645443E-02  2.1705921E-02  3.8285897E-02
   18.2500  3.9109445E-02  2.2020089E-02  3.7777663E-02
   18.5000  3.8621498E-02  2.2362618E-02  3.7280423E-02
   18.7500  3.8195407E-02  2.2731279E-02  3.6799781E-02
   19.0000  3.7840242E-02  2.3123915E-02  3.6339830E-02
   19.2500  3.7560637E-02  2.3538504E-02  3.5903172E-02
   19.5000  3.7357273E-02  2.3973236E-02  3.5490996E-02
   19.7500  3.7227422E-02  2.4426526E-02  3.5103233E-02
   20.0000  3.7165397E-02  2.4896822E-02  3.4738830E-02
   21.0000  3.7404157E-02  2.6899930E-02  3.3480657E-02
   22.0000  3.7868248E-02  2.8959708E-02  3.2445972E-02
   23.0000  3.7857010E-02  3.0873651E-02  3.1509123E-02
   24.0000  3.6950469E-02  3.2392284E-02  3.0593788E-02
   25.0000  3.5199457E-02  3.3285242E-02  2.9683198E-02
   26.0000  3.3028104E-02  3.3461529E-02  2.8806299E-02
   27.0000  3.0875874E-02  3.3018934E-02  2.8006212E-02
   28.0000  2.9008790E-02  3.2164385E-02  2.7327077E-02
   29.0000  2.7514700E-02  3.1107326E-02  2.6795572E-02
   30.0000  2.6365965E-02  2.9999908E-02  2.6406415E-02
   31.0000  2.5484299E-02  2.8926452E-02  2.6125246E-02
   32.0000  2.4780746E-02  2.7917704E-02  2.5900617E-02
   33.0000  2.4173627E-02  2.6970363E-02  2.5674920E-02
   34.0000  2.3596209E-02  2.6064591E-02  2.5391929E-02
   35.0000  2.3002685E-02  2.5178221E-02  2.5002907E-02
   36.0000  2.2375433E-02  2.4297945E-02  2.4474581E-02
   37.0000  2.1728741E-02  2.3427829E-02  2.3801267E-02
   38.0000  2.1102262E-02  2.2594693E-02  2.3020049E-02
   39.0000  2.0546426E-02  2.1848912E-02  2.2222017E-02
   40.0000  2.0107419E-02  2.1254224E-02  2.1539170E-02
