    Energy   (100,001)      (010,001)      (001,110)   
  -25.0000  1.7293637E-04  1.7902848E-04  1.7967073E-04
  -24.0000  1.7909112E-04  1.8595718E-04  1.8612074E-04
  -23.0000  1.8565944E-04  1.9339179E-04  1.9301142E-04
  -22.0000  1.9268339E-04  2.0138808E-04  2.0038852E-04
  -21.0000  2.0021083E-04  2.1001021E-04  2.0830428E-04
  -20.0000  2.0829654E-04  2.1933229E-04  2.1681865E-04
  -19.0000  2.1700342E-04  2.2944043E-04  2.2600074E-04
  -18.0000  2.2640414E-04  2.4043522E-04  2.3593065E-04
  -17.0000  2.3658305E-04  2.5243482E-04  2.4670173E-04
  -16.0000  2.4763866E-04  2.6557902E-04  2.5842349E-04
  -15.0000  2.5968674E-04  2.8003426E-04  2.7122519E-04
  -14.0000  2.7286424E-04  2.9600031E-04  2.8526060E-04
  -13.0000  2.8733446E-04  3.1371890E-04  3.0071407E-04
  -12.0000  3.0329372E-04  3.3348519E-04  3.1780860E-04
  -11.0000  3.2098015E-04  3.5566325E-04  3.3681664E-04
  -10.0000  3.4068567E-04  3.8070713E-04  3.5807475E-04
  -9.00000  3.6277220E-04  4.0919014E-04  3.8200391E-04
  -8.00000  3.8769430E-04  4.4184629E-04  4.0913817E-04
  -7.00000  4.1603149E-04  4.7963012E-04  4.4016619E-04
  -6.00000  4.4853528E-04  5.2380545E-04  4.7599288E-04
  -5.00000  4.8619993E-04  5.7608035E-04  5.1783403E-04
  -4.00000  5.3037255E-04  6.3881988E-04  5.6736705E-04
  -3.00000  5.8293158E-04  7.1539424E-04  6.2698219E-04
  -2.00000  6.4659127E-04  8.1077700E-04  7.0022522E-04
  -1.00000  7.2545580E-04  9.3263622E-04  7.9263353E-04
   0.00000  8.2611494E-04  1.0934855E-03  9.1346386E-04
   1.00000  9.6006864E-04  1.3153933E-03  1.0797169E-03
   2.00000  1.1500178E-03  1.6419615E-03  1.3272192E-03
   3.00000  1.4505990E-03  2.1766309E-03  1.7496781E-03
   4.00000  2.0477532E-03  3.2594366E-03  2.6991998E-03
   5.00000  3.7774194E-03  6.3808218E-03  5.8538495E-03
   5.20000  4.2930508E-03  7.3369449E-03  6.7618462E-03
   5.40000  4.7712618E-03  8.2644302E-03  7.5052930E-03
   5.60000  5.1953068E-03  9.1418856E-03  8.0295774E-03
   5.80000  5.5812707E-03  9.9969356E-03  8.3794353E-03
   6.00000  5.9559484E-03  1.0869087E-02  8.6425452E-03
   6.20000  6.3453018E-03  1.1792352E-02  8.9046353E-03
   6.40000  6.7713130E-03  1.2793005E-02  9.2302714E-03
   6.60000  7.2518096E-03  1.3892221E-02  9.6616189E-03
   6.80000  7.8009927E-03  1.5108884E-02  1.0224006E-02
   7.00000  8.4299319E-03  1.6461398E-02  1.0931071E-02
   7.20000  9.1465338E-03  1.7968554E-02  1.1786905E-02
   7.40000  9.9545822E-03  1.9649729E-02  1.2785195E-02
   7.60000  1.0851843E-02  2.1524590E-02  1.3906500E-02
   7.80000  1.1827752E-02  2.3612341E-02  1.5115512E-02
   8.00000  1.2861719E-02  2.5930488E-02  1.6360581E-02
   8.20000  1.3923464E-02  2.8492960E-02  1.7577542E-02
   8.40000  1.4976617E-02  3.1307380E-02  1.8698475E-02
   8.60000  1.5985725E-02  3.4371146E-02  1.9663968E-02
   8.80000  1.6924678E-02  3.7665939E-02  2.0435316E-02
   9.00000  1.7782760E-02  4.1150537E-02  2.1002104E-02
   9.20000  1.8565798E-02  4.4752476E-02  2.1382562E-02
   9.40000  1.9292862E-02  4.8360250E-02  2.1617589E-02
   9.60000  1.9990081E-02  5.1819228E-02  2.1761081E-02
   9.80000  2.0683506E-02  5.4935870E-02  2.1869670E-02
   10.0000  2.1393060E-02  5.7494503E-02  2.1994538E-02
   10.2500  2.2316923E-02  5.9596162E-02  2.2234815E-02
   10.5000  2.3276734E-02  6.0218873E-02  2.2617839E-02
   10.7500  2.4246704E-02  5.9305403E-02  2.3170562E-02
   11.0000  2.5189399E-02  5.7058163E-02  2.3896626E-02
   11.2500  2.6068410E-02  5.3865679E-02  2.4780076E-02
   11.5000  2.6860597E-02  5.0172801E-02  2.5788797E-02
   11.7500  2.7562313E-02  4.6365632E-02  2.6879186E-02
   12.0000  2.8186772E-02  4.2714097E-02  2.8002441E-02
   12.2500  2.8756722E-02  3.9371644E-02  2.9111552E-02
   12.5000  2.9297466E-02  3.6404037E-02  3.0168111E-02
   12.7500  2.9832205E-02  3.3820307E-02  3.1147161E-02
   13.0000  3.0378474E-02  3.1597011E-02  3.2037897E-02
   13.2500  3.0945342E-02  2.9696086E-02  3.2841543E-02
   13.5000  3.1533114E-02  2.8076333E-02  3.3568906E-02
   13.7500  3.2135385E-02  2.6699025E-02  3.4237365E-02
   14.0000  3.2741639E-02  2.5529897E-02  3.4867139E-02
   14.2500  3.3339373E-02  2.4539577E-02  3.5477822E-02
   14.5000  3.3915669E-02  2.3703401E-02  3.6085793E-02
   14.7500  3.4458356E-02  2.3000943E-02  3.6702531E-02
   15.0000  3.4956846E-02  2.2415427E-02  3.7333675E-02
   15.2500  3.5402718E-02  2.1933131E-02  3.7978620E-02
   15.5000  3.5790093E-02  2.1542823E-02  3.8630570E-02
   15.7500  3.6115830E-02  2.1235271E-02  3.9276999E-02
   16.0000  3.6379550E-02  2.1002821E-02  3.9900561E-02
   16.2500  3.6583500E-02  2.0839057E-02  4.0480469E-02
   16.5000  3.6732309E-02  2.0738522E-02  4.0994331E-02
   16.7500  3.6832630E-02  2.0696493E-02  4.1420338E-02
   17.0000  3.6892695E-02  2.0708809E-02  4.1739564E-02
   17.2500  3.6921801E-02  2.0771726E-02  4.1938075E-02
   17.5000  3.6929750E-02  2.0881812E-02  4.2008484E-02
   17.7500  3.6926302E-02  2.1035858E-02  4.1950680E-02
   18.0000  3.6920667E-02  2.1230828E-02  4.1771632E-02
   18.2500  3.6921087E-02  2.1463818E-02  4.1484315E-02
   18.5000  3.6934509E-02  2.1732034E-02  4.1106035E-02
   18.7500  3.6966371E-02  2.2032798E-02  4.0656462E-02
   19.0000  3.7020478E-02  2.2363562E-02  4.0155699E-02
   19.2500  3.7098983E-02  2.2721961E-02  3.9622618E-02
   19.5000  3.7202431E-02  2.3105862E-02  3.9073606E-02
   19.7500  3.7329809E-02  2.3513360E-02  3.8521833E-02
   20.0000  3.7478533E-02  2.3942578E-02  3.7977198E-02
   21.0000  3.8181417E-02  2.5822775E-02  3.5990583E-02
   22.0000  3.8724643E-02  2.7818270E-02  3.4401795E-02
   23.0000  3.8698562E-02  2.9740553E-02  3.3101515E-02
   24.0000  3.7910607E-02  3.1397736E-02  3.1924485E-02
   25.0000  3.6443275E-02  3.2625611E-02  3.0778846E-02
   26.0000  3.4551845E-02  3.3335514E-02  2.9669763E-02
   27.0000  3.2530176E-02  3.3541763E-02  2.8666917E-02
   28.0000  3.0618990E-02  3.3341021E-02  2.7846993E-02
   29.0000  2.8969522E-02  3.2858600E-02  2.7245728E-02
   30.0000  2.7647015E-02  3.2202162E-02  2.6847225E-02
   31.0000  2.6649254E-02  3.1449886E-02  2.6603406E-02
   32.0000  2.5928888E-02  3.0653256E-02  2.6457589E-02
   33.0000  2.5421363E-02  2.9827634E-02  2.6360347E-02
   34.0000  2.5065267E-02  2.8966275E-02  2.6272961E-02
   35.0000  2.4810374E-02  2.8058106E-02  2.6167373E-02
   36.0000  2.4618319E-02  2.7099282E-02  2.6027546E-02
   37.0000  2.4459553E-02  2.6103687E-02  2.5850332E-02
   38.0000  2.4311531E-02  2.5111725E-02  2.5644545E-02
   39.0000  2.4164158E-02  2.4195387E-02  2.5430630E-02
   40.0000  2.4028718E-02  2.3450983E-02  2.5242211E-02
