    Energy   (100,001)      (010,001)      (001,110)   
  -25.0000  1.7709682E-04  1.9071345E-04  1.8397266E-04
  -24.0000  1.8326231E-04  1.9770340E-04  1.9028574E-04
  -23.0000  1.8983441E-04  2.0518671E-04  1.9701236E-04
  -22.0000  1.9685377E-04  2.1321657E-04  2.0419367E-04
  -21.0000  2.0436667E-04  2.2185405E-04  2.1187645E-04
  -20.0000  2.1242589E-04  2.3116959E-04  2.2011402E-04
  -19.0000  2.2109202E-04  2.4124479E-04  2.2896750E-04
  -18.0000  2.3043486E-04  2.5217480E-04  2.3850723E-04
  -17.0000  2.4053533E-04  2.6407117E-04  2.4881464E-04
  -16.0000  2.5148770E-04  2.7706549E-04  2.5998442E-04
  -15.0000  2.6340254E-04  2.9131414E-04  2.7212745E-04
  -14.0000  2.7641042E-04  3.0700432E-04  2.8537435E-04
  -13.0000  2.9066662E-04  3.2436199E-04  2.9988008E-04
  -12.0000  3.0635743E-04  3.4366235E-04  3.1583000E-04
  -11.0000  3.2370829E-04  3.6524394E-04  3.3344763E-04
  -10.0000  3.4299488E-04  3.8952784E-04  3.5300523E-04
  -9.00000  3.6455813E-04  4.1704424E-04  3.7483791E-04
  -8.00000  3.8882518E-04  4.4847001E-04  3.9936319E-04
  -7.00000  4.1633918E-04  4.8468287E-04  4.2710851E-04
  -6.00000  4.4780268E-04  5.2684156E-04  4.5875083E-04
  -5.00000  4.8414282E-04  5.7650771E-04  4.9517532E-04
  -4.00000  5.2661271E-04  6.3583773E-04  5.3756524E-04
  -3.00000  5.7695573E-04  7.0789688E-04  5.8754517E-04
  -2.00000  6.3768591E-04  7.9719939E-04  6.4742088E-04
  -1.00000  7.1259833E-04  9.1069585E-04  7.2060677E-04
   0.00000  8.0777886E-04  1.0597267E-03  8.1245215E-04
   1.00000  9.3383790E-04  1.2643231E-03  9.3202298E-04
   2.00000  1.1116912E-03  1.5642212E-03  1.0965865E-03
   3.00000  1.3914597E-03  2.0543299E-03  1.3458376E-03
   4.00000  1.9414556E-03  3.0488747E-03  1.8067813E-03
   5.00000  3.5215213E-03  5.9477604E-03  3.0363355E-03
   5.20000  4.0155614E-03  6.8601043E-03  3.4225606E-03
   5.40000  4.5021785E-03  7.7635152E-03  3.8156212E-03
   5.60000  4.9657698E-03  8.6294999E-03  4.2073893E-03
   5.80000  5.4117325E-03  9.4692502E-03  4.6032280E-03
   6.00000  5.8500376E-03  1.0305941E-02  5.0103131E-03
   6.20000  6.2877112E-03  1.1161726E-02  5.4318926E-03
   6.40000  6.7281377E-03  1.2055119E-02  5.8661687E-03
   6.60000  7.1730603E-03  1.3001418E-02  6.3074263E-03
   6.80000  7.6252729E-03  1.4013550E-02  6.7485352E-03
   7.00000  8.0906615E-03  1.5102837E-02  7.1840979E-03
   7.20000  8.5785598E-03  1.6279636E-02  7.6130608E-03
   7.40000  9.1003782E-03  1.7553791E-02  8.0396872E-03
   7.60000  9.6674722E-03  1.8934878E-02  8.4727021E-03
   7.80000  1.0289379E-02  2.0432267E-02  8.9233846E-03
   8.00000  1.0972958E-02  2.2055177E-02  9.4036357E-03
   8.20000  1.1722083E-02  2.3812659E-02  9.9245997E-03
   8.40000  1.2537134E-02  2.5713170E-02  1.0495874E-02
   8.60000  1.3413980E-02  2.7763673E-02  1.1125142E-02
   8.80000  1.4342704E-02  2.9968246E-02  1.1818086E-02
   9.00000  1.5306711E-02  3.2326004E-02  1.2578516E-02
   9.20000  1.6283129E-02  3.4828085E-02  1.3408656E-02
   9.40000  1.7245362E-02  3.7453620E-02  1.4309470E-02
   9.60000  1.8167801E-02  4.0164993E-02  1.5280951E-02
   9.80000  1.9031371E-02  4.2903329E-02  1.6322342E-02
   10.0000  1.9827711E-02  4.5585580E-02  1.7432026E-02
   10.2500  2.0734513E-02  4.8695415E-02  1.8910191E-02
   10.5000  2.1566891E-02  5.1310609E-02  2.0479373E-02
   10.7500  2.2356681E-02  5.3204002E-02  2.2124570E-02
   11.0000  2.3128178E-02  5.4218592E-02  2.3827324E-02
   11.2500  2.3889289E-02  5.4303348E-02  2.5564995E-02
   11.5000  2.4631461E-02  5.3511951E-02  2.7308657E-02
   11.7500  2.5336519E-02  5.1973884E-02  2.9021596E-02
   12.0000  2.5985399E-02  4.9855698E-02  3.0660148E-02
   12.2500  2.6565415E-02  4.7329846E-02  3.2177644E-02
   12.5000  2.7074790E-02  4.4558935E-02  3.3531232E-02
   12.7500  2.7524312E-02  4.1690411E-02  3.4689393E-02
   13.0000  2.7936636E-02  3.8852955E-02  3.5637432E-02
   13.2500  2.8342365E-02  3.6150747E-02  3.6380047E-02
   13.5000  2.8771549E-02  3.3657718E-02  3.6940150E-02
   13.7500  2.9245477E-02  3.1415896E-02  3.7353431E-02
   14.0000  2.9774899E-02  2.9439529E-02  3.7660994E-02
   14.2500  3.0362500E-02  2.7722792E-02  3.7903087E-02
   14.5000  3.1005360E-02  2.6247791E-02  3.8115078E-02
   14.7500  3.1696434E-02  2.4990947E-02  3.8325425E-02
   15.0000  3.2425522E-02  2.3927299E-02  3.8554964E-02
   15.2500  3.3180103E-02  2.3033025E-02  3.8816909E-02
   15.5000  3.3946128E-02  2.2286672E-02  3.9117194E-02
   15.7500  3.4708781E-02  2.1669590E-02  3.9454968E-02
   16.0000  3.5453190E-02  2.1165913E-02  3.9823246E-02
   16.2500  3.6165071E-02  2.0762323E-02  4.0209791E-02
   16.5000  3.6831285E-02  2.0447738E-02  4.0598285E-02
   16.7500  3.7440315E-02  2.0212988E-02  4.0969828E-02
   17.0000  3.7982662E-02  2.0050513E-02  4.1304687E-02
   17.2500  3.8451170E-02  1.9954084E-02  4.1584171E-02
   17.5000  3.8841284E-02  1.9918547E-02  4.1792406E-02
   17.7500  3.9151232E-02  1.9939597E-02  4.1917786E-02
   18.0000  3.9382093E-02  2.0013574E-02  4.1953887E-02
   18.2500  3.9537725E-02  2.0137291E-02  4.1899746E-02
   18.5000  3.9624515E-02  2.0307899E-02  4.1759478E-02
   18.7500  3.9650950E-02  2.0522788E-02  4.1541378E-02
   19.0000  3.9627028E-02  2.0779534E-02  4.1256649E-02
   19.2500  3.9563555E-02  2.1075885E-02  4.0917991E-02
   19.5000  3.9471397E-02  2.1409773E-02  4.0538245E-02
   19.7500  3.9360810E-02  2.1779274E-02  4.0129306E-02
   20.0000  3.9241013E-02  2.2182395E-02  3.9701589E-02
   21.0000  3.8816456E-02  2.4072823E-02  3.7967208E-02
   22.0000  3.8668007E-02  2.6248118E-02  3.6411550E-02
   23.0000  3.8765439E-02  2.8496481E-02  3.5058301E-02
   24.0000  3.8865828E-02  3.0603972E-02  3.3811886E-02
   25.0000  3.8648306E-02  3.2382738E-02  3.2592994E-02
   26.0000  3.7843904E-02  3.3701456E-02  3.1377989E-02
   27.0000  3.6369811E-02  3.4503105E-02  3.0195122E-02
   28.0000  3.4393420E-02  3.4809074E-02  2.9107358E-02
   29.0000  3.2248642E-02  3.4706984E-02  2.8187498E-02
   30.0000  3.0261741E-02  3.4319636E-02  2.7487735E-02
   31.0000  2.8631642E-02  3.3765386E-02  2.7021302E-02
   32.0000  2.7417634E-02  3.3138812E-02  2.6766589E-02
   33.0000  2.6584342E-02  3.2503538E-02  2.6681186E-02
   34.0000  2.6056070E-02  3.1869992E-02  2.6715664E-02
   35.0000  2.5751822E-02  3.1217282E-02  2.6822631E-02
   36.0000  2.5596591E-02  3.0523257E-02  2.6959705E-02
   37.0000  2.5523284E-02  2.9780885E-02  2.7090416E-02
   38.0000  2.5475901E-02  2.9009708E-02  2.7187021E-02
   39.0000  2.5418675E-02  2.8266082E-02  2.7237053E-02
   40.0000  2.5348881E-02  2.7643567E-02  2.7251012E-02
