    Energy   (100,001)      (010,001)      (001,110)   
  -25.0000  1.6593608E-04  1.8792532E-04  1.7139121E-04
  -24.0000  1.7219304E-04  1.9495973E-04  1.7788051E-04
  -23.0000  1.7888496E-04  2.0249915E-04  1.8482738E-04
  -22.0000  1.8605689E-04  2.1059882E-04  1.9228016E-04
  -21.0000  1.9376020E-04  2.1932222E-04  2.0029410E-04
  -20.0000  2.0205370E-04  2.2874265E-04  2.0893263E-04
  -19.0000  2.1100503E-04  2.3894524E-04  2.1826895E-04
  -18.0000  2.2069236E-04  2.5002934E-04  2.2838792E-04
  -17.0000  2.3120651E-04  2.6211167E-04  2.3938848E-04
  -16.0000  2.4265360E-04  2.7533013E-04  2.5138664E-04
  -15.0000  2.5515837E-04  2.8984892E-04  2.6451936E-04
  -14.0000  2.6886848E-04  3.0586493E-04  2.7894937E-04
  -13.0000  2.8395990E-04  3.2361626E-04  2.9487155E-04
  -12.0000  3.0064416E-04  3.4339347E-04  3.1252118E-04
  -11.0000  3.1917765E-04  3.6555463E-04  3.3218498E-04
  -10.0000  3.3987428E-04  3.9054594E-04  3.5421580E-04
  -9.00000  3.6312258E-04  4.1893025E-04  3.7905292E-04
  -8.00000  3.8940944E-04  4.5142729E-04  4.0725008E-04
  -7.00000  4.1935356E-04  4.8897179E-04  4.3951546E-04
  -6.00000  4.5375396E-04  5.3279914E-04  4.7676971E-04
  -5.00000  4.9366209E-04  5.8457549E-04  5.2023271E-04
  -4.00000  5.4049263E-04  6.4660154E-04  5.7155750E-04
  -3.00000  5.9620068E-04  7.2214415E-04  6.3304497E-04
  -2.00000  6.6357908E-04  8.1600166E-04  7.0800514E-04
  -1.00000  7.4678902E-04  9.3552428E-04  8.0140249E-04
   0.00000  8.5238641E-04  1.0925987E-03  9.2110330E-04
   1.00000  9.9153590E-04  1.3079151E-03  1.0805602E-03
   2.00000  1.1855935E-03  1.6215610E-03  1.3055578E-03
   3.00000  1.4839342E-03  2.1258439E-03  1.6557010E-03
   4.00000  2.0465864E-03  3.1111167E-03  2.3242339E-03
   5.00000  3.5769026E-03  5.8143023E-03  4.1495753E-03
   5.20000  4.0439271E-03  6.6558279E-03  4.6923587E-03
   5.40000  4.4997075E-03  7.5018819E-03  5.2112718E-03
   5.60000  4.9305490E-03  8.3358242E-03  5.6952484E-03
   5.80000  5.3442556E-03  9.1758478E-03  6.1598751E-03
   6.00000  5.7547206E-03  1.0050372E-02  6.6263399E-03
   6.20000  6.1747838E-03  1.0987186E-02  7.1132887E-03
   6.40000  6.6149754E-03  1.2011820E-02  7.6362016E-03
   6.60000  7.0840762E-03  1.3148418E-02  8.2083178E-03
   6.80000  7.5898983E-03  1.4420768E-02  8.8413407E-03
   7.00000  8.1398639E-03  1.5853014E-02  9.5458616E-03
   7.20000  8.7413010E-03  1.7469985E-02  1.0331763E-02
   7.40000  9.4014465E-03  1.9297000E-02  1.1208777E-02
   7.60000  1.0127178E-02  2.1358826E-02  1.2187219E-02
   7.80000  1.0924543E-02  2.3677292E-02  1.3278752E-02
   8.00000  1.1798269E-02  2.6267009E-02  1.4496887E-02
   8.20000  1.2751605E-02  2.9129223E-02  1.5856852E-02
   8.40000  1.3786908E-02  3.2245290E-02  1.7374465E-02
   8.60000  1.4907003E-02  3.5573203E-02  1.9063855E-02
   8.80000  1.6116544E-02  3.9050520E-02  2.0934140E-02
   9.00000  1.7422112E-02  4.2602599E-02  2.2985455E-02
   9.20000  1.8830367E-02  4.6148786E-02  2.5204796E-02
   9.40000  2.0344754E-02  4.9599261E-02  2.7562190E-02
   9.60000  2.1962236E-02  5.2843989E-02  3.0008308E-02
   9.80000  2.3670697E-02  5.5742500E-02  3.2475474E-02
   10.0000  2.5446218E-02  5.8122943E-02  3.4883452E-02
   10.2500  2.7700041E-02  6.0089697E-02  3.7683693E-02
   10.5000  2.9891800E-02  6.0672690E-02  4.0116923E-02
   10.7500  3.1895013E-02  5.9786502E-02  4.2078750E-02
   11.0000  3.3589080E-02  5.7591495E-02  4.3511283E-02
   11.2500  3.4889726E-02  5.4429066E-02  4.4397194E-02
   11.5000  3.5768816E-02  5.0705438E-02  4.4754328E-02
   11.7500  3.6256980E-02  4.6790377E-02  4.4633179E-02
   12.0000  3.6431649E-02  4.2962670E-02  4.4112654E-02
   12.2500  3.6395500E-02  3.9399148E-02  4.3291730E-02
   12.5000  3.6253358E-02  3.6189827E-02  4.2277222E-02
   12.7500  3.6094615E-02  3.3363157E-02  4.1169836E-02
   13.0000  3.5984616E-02  3.0910421E-02  4.0053274E-02
   13.2500  3.5964676E-02  2.8803524E-02  3.8990209E-02
   13.5000  3.6056577E-02  2.7006138E-02  3.8023626E-02
   13.7500  3.6267706E-02  2.5480343E-02  3.7179854E-02
   14.0000  3.6595267E-02  2.4190307E-02  3.6471712E-02
   14.2500  3.7029299E-02  2.3103993E-02  3.5901490E-02
   14.5000  3.7554692E-02  2.2193658E-02  3.5463559E-02
   14.7500  3.8152522E-02  2.1435709E-02  3.5146514E-02
   15.0000  3.8800969E-02  2.0810265E-02  3.4934909E-02
   15.2500  3.9476072E-02  2.0300633E-02  3.4810707E-02
   15.5000  4.0152497E-02  1.9892786E-02  3.4754574E-02
   15.7500  4.0804472E-02  1.9574899E-02  3.4747074E-02
   16.0000  4.1406923E-02  1.9336962E-02  3.4769795E-02
   16.2500  4.1936811E-02  1.9170469E-02  3.4806337E-02
   16.5000  4.2374553E-02  1.9068167E-02  3.4843071E-02
   16.7500  4.2705352E-02  1.9023862E-02  3.4869615E-02
   17.0000  4.2920239E-02  1.9032255E-02  3.4878952E-02
   17.2500  4.3016623E-02  1.9088812E-02  3.4867233E-02
   17.5000  4.2998232E-02  1.9189643E-02  3.4833321E-02
   17.7500  4.2874432E-02  1.9331395E-02  3.4778181E-02
   18.0000  4.2659041E-02  1.9511166E-02  3.4704216E-02
   18.2500  4.2368819E-02  1.9726420E-02  3.4614656E-02
   18.5000  4.2021869E-02  1.9974930E-02  3.4513034E-02
   18.7500  4.1636164E-02  2.0254734E-02  3.4402810E-02
   19.0000  4.1228324E-02  2.0564127E-02  3.4287102E-02
   19.2500  4.0812721E-02  2.0901682E-02  3.4168533E-02
   19.5000  4.0400915E-02  2.1266280E-02  3.4049144E-02
   19.7500  4.0001420E-02  2.1657098E-02  3.3930382E-02
   20.0000  3.9619870E-02  2.2073423E-02  3.3813144E-02
   21.0000  3.8317441E-02  2.3967525E-02  3.3364785E-02
   22.0000  3.7320973E-02  2.6147939E-02  3.2927680E-02
   23.0000  3.6383985E-02  2.8482390E-02  3.2428636E-02
   24.0000  3.5225284E-02  3.0767516E-02  3.1787853E-02
   25.0000  3.3696480E-02  3.2727661E-02  3.0975340E-02
   26.0000  3.1859573E-02  3.4093429E-02  3.0039592E-02
   27.0000  2.9900820E-02  3.4767748E-02  2.9071067E-02
   28.0000  2.8043891E-02  3.4830029E-02  2.8167144E-02
   29.0000  2.6461901E-02  3.4452461E-02  2.7399914E-02
   30.0000  2.5226040E-02  3.3812062E-02  2.6800242E-02
   31.0000  2.4317818E-02  3.3041036E-02  2.6361942E-02
   32.0000  2.3669320E-02  3.2220207E-02  2.6050708E-02
   33.0000  2.3197405E-02  3.1390635E-02  2.5812132E-02
   34.0000  2.2823206E-02  3.0568375E-02  2.5580014E-02
   35.0000  2.2481526E-02  2.9757705E-02  2.5286077E-02
   36.0000  2.2126280E-02  2.8960779E-02  2.4872943E-02
   37.0000  2.1735495E-02  2.8183742E-02  2.4311845E-02
   38.0000  2.1315825E-02  2.7442307E-02  2.3623059E-02
   39.0000  2.0903435E-02  2.6770698E-02  2.2890643E-02
   40.0000  2.0553987E-02  2.6226714E-02  2.2249610E-02
