    Energy   (100,001)      (010,001)      (001,110)   
  -25.0000  1.7476124E-04  1.8230356E-04  1.8062601E-04
  -24.0000  1.8092015E-04  1.8929246E-04  1.8689941E-04
  -23.0000  1.8749175E-04  1.9678913E-04  1.9359019E-04
  -22.0000  1.9451811E-04  2.0484939E-04  2.0074068E-04
  -21.0000  2.0204716E-04  2.1353745E-04  2.0839914E-04
  -20.0000  2.1013378E-04  2.2292748E-04  2.1662075E-04
  -19.0000  2.1884110E-04  2.3310563E-04  2.2546895E-04
  -18.0000  2.2824208E-04  2.4417248E-04  2.3501704E-04
  -17.0000  2.3842155E-04  2.5624623E-04  2.4535012E-04
  -16.0000  2.4947871E-04  2.6946661E-04  2.5656767E-04
  -15.0000  2.6153030E-04  2.8399999E-04  2.6878660E-04
  -14.0000  2.7471470E-04  3.0004600E-04  2.8214536E-04
  -13.0000  2.8919720E-04  3.1784613E-04  2.9680911E-04
  -12.0000  3.0517694E-04  3.3769517E-04  3.1297653E-04
  -11.0000  3.2289607E-04  3.5995662E-04  3.3088883E-04
  -10.0000  3.4265219E-04  3.8508368E-04  3.5084189E-04
  -9.00000  3.6481535E-04  4.1364836E-04  3.7320285E-04
  -8.00000  3.8985180E-04  4.4638273E-04  3.9843318E-04
  -7.00000  4.1835801E-04  4.8423839E-04  4.2712161E-04
  -6.00000  4.5111041E-04  5.2847460E-04  4.6003209E-04
  -5.00000  4.8914033E-04  5.8079238E-04  4.9817580E-04
  -4.00000  5.3385102E-04  6.4354552E-04  5.4292299E-04
  -3.00000  5.8720749E-04  7.2008596E-04  5.9618379E-04
  -2.00000  6.5206058E-04  8.1535680E-04  6.6071555E-04
  -1.00000  7.3273553E-04  9.3697391E-04  7.4067885E-04
   0.00000  8.3618995E-04  1.0973590E-03  8.4272909E-04
   1.00000  9.7455267E-04  1.3184155E-03  9.7840866E-04
   2.00000  1.1716112E-03  1.6434549E-03  1.1702821E-03
   3.00000  1.4837225E-03  2.1755196E-03  1.4719178E-03
   4.00000  2.0972573E-03  3.2554716E-03  2.0628813E-03
   5.00000  3.8325443E-03  6.3829273E-03  3.7226638E-03
   5.20000  4.3578226E-03  7.3363932E-03  4.1959029E-03
   5.40000  4.8621834E-03  8.2556793E-03  4.6292825E-03
   5.60000  5.3327404E-03  9.1180398E-03  5.0237637E-03
   5.80000  5.7845594E-03  9.9483381E-03  5.4096302E-03
   6.00000  6.2410669E-03  1.0783082E-02  5.8193085E-03
   6.20000  6.7250839E-03  1.1655147E-02  6.2772770E-03
   6.40000  7.2570875E-03  1.2591843E-02  6.7995297E-03
   6.60000  7.8554775E-03  1.3616231E-02  7.3947963E-03
   6.80000  8.5370230E-03  1.4748502E-02  8.0654096E-03
   7.00000  9.3170401E-03  1.6007135E-02  8.8084184E-03
   7.20000  1.0209003E-02  1.7409951E-02  9.6181086E-03
   7.40000  1.1223425E-02  1.8975320E-02  1.0490063E-02
   7.60000  1.2365766E-02  2.0723476E-02  1.1425092E-02
   7.80000  1.3632940E-02  2.2677348E-02  1.2430204E-02
   8.00000  1.5008233E-02  2.4862153E-02  1.3514547E-02
   8.20000  1.6455428E-02  2.7303437E-02  1.4680759E-02
   8.40000  1.7914654E-02  3.0023734E-02  1.5915028E-02
   8.60000  1.9304197E-02  3.3038022E-02  1.7180931E-02
   8.80000  2.0532450E-02  3.6347704E-02  1.8422007E-02
   9.00000  2.1520100E-02  3.9932252E-02  1.9574868E-02
   9.20000  2.2225045E-02  4.3737833E-02  2.0588659E-02
   9.40000  2.2657301E-02  4.7663980E-02  2.1441160E-02
   9.60000  2.2875031E-02  5.1552751E-02  2.2142668E-02
   9.80000  2.2964259E-02  5.5188032E-02  2.2726652E-02
   10.0000  2.3013642E-02  5.8313035E-02  2.3234720E-02
   10.2500  2.3126556E-02  6.1114272E-02  2.3821178E-02
   10.5000  2.3371537E-02  6.2356355E-02  2.4408012E-02
   10.7500  2.3773683E-02  6.1945625E-02  2.5032903E-02
   11.0000  2.4318168E-02  6.0071432E-02  2.5709097E-02
   11.2500  2.4967031E-02  5.7114847E-02  2.6428096E-02
   11.5000  2.5670337E-02  5.3515346E-02  2.7166935E-02
   11.7500  2.6374952E-02  4.9659351E-02  2.7894943E-02
   12.0000  2.7033014E-02  4.5827145E-02  2.8579831E-02
   12.2500  2.7609609E-02  4.2192208E-02  2.9195159E-02
   12.5000  2.8086000E-02  3.8846225E-02  2.9725553E-02
   12.7500  2.8459002E-02  3.5827304E-02  3.0167689E-02
   13.0000  2.8740339E-02  3.3141204E-02  3.0529094E-02
   13.2500  2.8954544E-02  3.0775418E-02  3.0825655E-02
   13.5000  2.9133262E-02  2.8708282E-02  3.1078668E-02
   13.7500  2.9307578E-02  2.6914263E-02  3.1312300E-02
   14.0000  2.9502009E-02  2.5366741E-02  3.1551359E-02
   14.2500  2.9732428E-02  2.4039703E-02  3.1819081E-02
   14.5000  3.0006874E-02  2.2908839E-02  3.2135235E-02
   14.7500  3.0327191E-02  2.1952054E-02  3.2514871E-02
   15.0000  3.0690550E-02  2.1149604E-02  3.2967581E-02
   15.2500  3.1090607E-02  2.0484025E-02  3.3497004E-02
   15.5000  3.1518324E-02  1.9939997E-02  3.4100441E-02
   15.7500  3.1962594E-02  1.9504182E-02  3.4768570E-02
   16.0000  3.2410820E-02  1.9165043E-02  3.5485377E-02
   16.2500  3.2849558E-02  1.8912678E-02  3.6228504E-02
   16.5000  3.3265324E-02  1.8738646E-02  3.6970198E-02
   16.7500  3.3645529E-02  1.8635804E-02  3.7679028E-02
   17.0000  3.3979497E-02  1.8598162E-02  3.8322341E-02
   17.2500  3.4259410E-02  1.8620740E-02  3.8869274E-02
   17.5000  3.4481043E-02  1.8699436E-02  3.9293897E-02
   17.7500  3.4644155E-02  1.8830904E-02  3.9577944E-02
   18.0000  3.4752456E-02  1.9012430E-02  3.9712599E-02
   18.2500  3.4813154E-02  1.9241822E-02  3.9698998E-02
   18.5000  3.4836156E-02  1.9517298E-02  3.9547391E-02
   18.7500  3.4833041E-02  1.9837408E-02  3.9275216E-02
   19.0000  3.4815969E-02  2.0200966E-02  3.8904518E-02
   19.2500  3.4796656E-02  2.0607020E-02  3.8459215E-02
   19.5000  3.4785509E-02  2.1054839E-02  3.7962616E-02
   19.7500  3.4790974E-02  2.1543816E-02  3.7435586E-02
   20.0000  3.4819161E-02  2.2073165E-02  3.6895690E-02
   21.0000  3.5202449E-02  2.4549930E-02  3.4862744E-02
   22.0000  3.5917354E-02  2.7432531E-02  3.3339735E-02
   23.0000  3.6595521E-02  3.0398241E-02  3.2330532E-02
   24.0000  3.6834076E-02  3.3010285E-02  3.1649358E-02
   25.0000  3.6433361E-02  3.4859844E-02  3.1102920E-02
   26.0000  3.5458592E-02  3.5751271E-02  3.0561545E-02
   27.0000  3.4139517E-02  3.5761634E-02  2.9987442E-02
   28.0000  3.2724549E-02  3.5140628E-02  2.9421858E-02
   29.0000  3.1388927E-02  3.4165991E-02  2.8935535E-02
   30.0000  3.0219801E-02  3.3054085E-02  2.8574873E-02
   31.0000  2.9241779E-02  3.1936740E-02  2.8340224E-02
   32.0000  2.8443412E-02  3.0874965E-02  2.8199426E-02
   33.0000  2.7791539E-02  2.9888826E-02  2.8109599E-02
   34.0000  2.7243484E-02  2.8977546E-02  2.8031229E-02
   35.0000  2.6766048E-02  2.8115292E-02  2.7936609E-02
   36.0000  2.6339429E-02  2.7271141E-02  2.7807373E-02
   37.0000  2.5954800E-02  2.6429959E-02  2.7631622E-02
   38.0000  2.5612508E-02  2.5602492E-02  2.7407831E-02
   39.0000  2.5320096E-02  2.4833663E-02  2.7155640E-02
   40.0000  2.5090274E-02  2.4201393E-02  2.6923593E-02
