    Energy   (100,001)      (010,001)      (001,110)   
  -25.0000  1.7024203E-04  1.8591304E-04  1.7300019E-04
  -24.0000  1.7671510E-04  1.9280619E-04  1.7971358E-04
  -23.0000  1.8364543E-04  2.0018936E-04  1.8691300E-04
  -22.0000  1.9108127E-04  2.0811562E-04  1.9465114E-04
  -21.0000  1.9907776E-04  2.1664592E-04  2.0298850E-04
  -20.0000  2.0769820E-04  2.2585051E-04  2.1199473E-04
  -19.0000  2.1701556E-04  2.3581090E-04  2.2175055E-04
  -18.0000  2.2711442E-04  2.4662207E-04  2.3234991E-04
  -17.0000  2.3809332E-04  2.5839541E-04  2.4390284E-04
  -16.0000  2.5006775E-04  2.7126239E-04  2.5653897E-04
  -15.0000  2.6317390E-04  2.8537921E-04  2.7041212E-04
  -14.0000  2.7757350E-04  3.0093290E-04  2.8570609E-04
  -13.0000  2.9346001E-04  3.1814917E-04  3.0264236E-04
  -12.0000  3.1106679E-04  3.3730293E-04  3.2149011E-04
  -11.0000  3.3067785E-04  3.5873225E-04  3.4257979E-04
  -10.0000  3.5264226E-04  3.8285744E-04  3.6632147E-04
  -9.00000  3.7739395E-04  4.1020742E-04  3.9323031E-04
  -8.00000  4.0547902E-04  4.4145678E-04  4.2396248E-04
  -7.00000  4.3759456E-04  4.7747921E-04  4.5936700E-04
  -6.00000  4.7464485E-04  5.1942604E-04  5.0056246E-04
  -5.00000  5.1782517E-04  5.6884509E-04  5.4905409E-04
  -4.00000  5.6875043E-04  6.2786642E-04  6.0691846E-04
  -3.00000  6.2966058E-04  6.9950355E-04  6.7710775E-04
  -2.00000  7.0376364E-04  7.8816526E-04  7.6397684E-04
  -1.00000  7.9584300E-04  9.0057649E-04  8.7425668E-04
   0.00000  9.1341584E-04  1.0475628E-03  1.0190050E-03
   1.00000  1.0691800E-03  1.2478727E-03  1.2179661E-03
   2.00000  1.2869945E-03  1.5376270E-03  1.5109161E-03
   3.00000  1.6201890E-03  1.9994316E-03  1.9946632E-03
   4.00000  2.2323331E-03  2.8907211E-03  2.9947457E-03
   5.00000  3.8109136E-03  5.3049445E-03  5.9918252E-03
   5.20000  4.2945049E-03  6.0630312E-03  6.9785011E-03
   5.40000  4.7792381E-03  6.8345401E-03  8.0014853E-03
   5.60000  5.2544360E-03  7.6043441E-03  9.0328785E-03
   5.80000  5.7306969E-03  8.3862329E-03  1.0060908E-02
   6.00000  6.2273044E-03  9.2027844E-03  1.1063297E-02
   6.20000  6.7657886E-03  1.0076475E-02  1.2009595E-02
   6.40000  7.3674391E-03  1.1028228E-02  1.2881268E-02
   6.60000  8.0519471E-03  1.2077763E-02  1.3686622E-02
   6.80000  8.8366290E-03  1.3243900E-02  1.4457844E-02
   7.00000  9.7356744E-03  1.4544460E-02  1.5235450E-02
   7.20000  1.0758291E-02  1.5995613E-02  1.6052892E-02
   7.40000  1.1905298E-02  1.7610577E-02  1.6928677E-02
   7.60000  1.3165651E-02  1.9398032E-02  1.7866478E-02
   7.80000  1.4516328E-02  2.1361432E-02  1.8861320E-02
   8.00000  1.5928550E-02  2.3500522E-02  1.9908782E-02
   8.20000  1.7378741E-02  2.5814738E-02  2.1012108E-02
   8.40000  1.8857257E-02  2.8305702E-02  2.2182347E-02
   8.60000  2.0368711E-02  3.0975862E-02  2.3431717E-02
   8.80000  2.1924993E-02  3.3822995E-02  2.4765698E-02
   9.00000  2.3537255E-02  3.6832787E-02  2.6179206E-02
   9.20000  2.5209871E-02  3.9971167E-02  2.7657958E-02
   9.40000  2.6933809E-02  4.3176123E-02  2.9182819E-02
   9.60000  2.8681031E-02  4.6351049E-02  3.0734412E-02
   9.80000  3.0406096E-02  4.9364675E-02  3.2295945E-02
   10.0000  3.2054155E-02  5.2059420E-02  3.3853248E-02
   10.2500  3.3924338E-02  5.4723978E-02  3.5771508E-02
   10.5000  3.5509168E-02  5.6334966E-02  3.7621160E-02
   10.7500  3.6766006E-02  5.6713952E-02  3.9347728E-02
   11.0000  3.7687284E-02  5.5857144E-02  4.0888152E-02
   11.2500  3.8294674E-02  5.3935489E-02  4.2180217E-02
   11.5000  3.8634310E-02  5.1237768E-02  4.3171691E-02
   11.7500  3.8769873E-02  4.8088750E-02  4.3829734E-02
   12.0000  3.8771890E-02  4.4778692E-02  4.4148468E-02
   12.2500  3.8707012E-02  4.1525391E-02  4.4151012E-02
   12.5000  3.8631185E-02  3.8468423E-02  4.3885004E-02
   12.7500  3.8586791E-02  3.5682762E-02  4.3413760E-02
   13.0000  3.8602349E-02  3.3197985E-02  4.2806415E-02
   13.2500  3.8693721E-02  3.1014952E-02  4.2129603E-02
   13.5000  3.8866419E-02  2.9118059E-02  4.1441545E-02
   13.7500  3.9117928E-02  2.7483545E-02  4.0788464E-02
   14.0000  3.9438799E-02  2.6084618E-02  4.0202689E-02
   14.2500  3.9813193E-02  2.4894400E-02  3.9702432E-02
   14.5000  4.0220346E-02  2.3887598E-02  3.9293384E-02
   14.7500  4.0636654E-02  2.3041409E-02  3.8971154E-02
   15.0000  4.1037521E-02  2.2335877E-02  3.8723603E-02
   15.2500  4.1398830E-02  2.1753895E-02  3.8532914E-02
   15.5000  4.1698227E-02  2.1281008E-02  3.8377614E-02
   15.7500  4.1916334E-02  2.0905107E-02  3.8234685E-02
   16.0000  4.2037916E-02  2.0616076E-02  3.8081773E-02
   16.2500  4.2052912E-02  2.0405452E-02  3.7899333E-02
   16.5000  4.1957187E-02  2.0266093E-02  3.7672444E-02
   16.7500  4.1752834E-02  2.0191892E-02  3.7392026E-02
   17.0000  4.1447942E-02  2.0177521E-02  3.7055242E-02
   17.2500  4.1055764E-02  2.0218231E-02  3.6665056E-02
   17.5000  4.0593423E-02  2.0309681E-02  3.6229101E-02
   17.7500  4.0080299E-02  2.0447824E-02  3.5758148E-02
   18.0000  3.9536364E-02  2.0628818E-02  3.5264492E-02
   18.2500  3.8980672E-02  2.0848986E-02  3.4760540E-02
   18.5000  3.8430162E-02  2.1104790E-02  3.4257731E-02
   18.7500  3.7898858E-02  2.1392853E-02  3.3765857E-02
   19.0000  3.7397458E-02  2.1710002E-02  3.3292715E-02
   19.2500  3.6933243E-02  2.2053349E-02  3.2844013E-02
   19.5000  3.6510241E-02  2.2420387E-02  3.2423448E-02
   19.7500  3.6129539E-02  2.2809029E-02  3.2032896E-02
   20.0000  3.5789737E-02  2.3217470E-02  3.1672756E-02
   21.0000  3.4757416E-02  2.5007528E-02  3.0518860E-02
   22.0000  3.3970155E-02  2.6955203E-02  2.9737342E-02
   23.0000  3.3050035E-02  2.8929181E-02  2.9162575E-02
   24.0000  3.1788125E-02  3.0732739E-02  2.8627853E-02
   25.0000  3.0209120E-02  3.2195106E-02  2.8015501E-02
   26.0000  2.8506302E-02  3.3195050E-02  2.7293538E-02
   27.0000  2.6896908E-02  3.3693911E-02  2.6512400E-02
   28.0000  2.5526275E-02  3.3755353E-02  2.5756269E-02
   29.0000  2.4455372E-02  3.3505870E-02  2.5094734E-02
   30.0000  2.3679364E-02  3.3073150E-02  2.4561859E-02
   31.0000  2.3149522E-02  3.2547634E-02  2.4155870E-02
   32.0000  2.2795488E-02  3.1974317E-02  2.3848307E-02
   33.0000  2.2545095E-02  3.1362229E-02  2.3596566E-02
   34.0000  2.2338511E-02  3.0701600E-02  2.3355690E-02
   35.0000  2.2135578E-02  2.9982673E-02  2.3087744E-02
   36.0000  2.1917422E-02  2.9210265E-02  2.2769657E-02
   37.0000  2.1683755E-02  2.8408391E-02  2.2399350E-02
   38.0000  2.1447414E-02  2.7616947E-02  2.1999029E-02
   39.0000  2.1228652E-02  2.6891105E-02  2.1613309E-02
   40.0000  2.1049671E-02  2.6302727E-02  2.1295749E-02
