    Energy   (100,001)      (010,001)      (001,110)   
  -25.0000  1.7212197E-04  1.8191159E-04  1.7912803E-04
  -24.0000  1.7826909E-04  1.8886054E-04  1.8557570E-04
  -23.0000  1.8483084E-04  1.9631280E-04  1.9246467E-04
  -22.0000  1.9184959E-04  2.0432356E-04  1.9984078E-04
  -21.0000  1.9937356E-04  2.1295625E-04  2.0775634E-04
  -20.0000  2.0745799E-04  2.2228413E-04  2.1627135E-04
  -19.0000  2.1616638E-04  2.3239226E-04  2.2545496E-04
  -18.0000  2.2557211E-04  2.4337990E-04  2.3538727E-04
  -17.0000  2.3576046E-04  2.5536366E-04  2.4616158E-04
  -16.0000  2.4683110E-04  2.6848132E-04  2.5788721E-04
  -15.0000  2.5890130E-04  2.8289688E-04  2.7069310E-04
  -14.0000  2.7210997E-04  2.9880699E-04  2.8473242E-04
  -13.0000  2.8662289E-04  3.1644945E-04  3.0018851E-04
  -12.0000  3.0263969E-04  3.3611438E-04  3.1728273E-04
  -11.0000  3.2040288E-04  3.5815934E-04  3.3628486E-04
  -10.0000  3.4021022E-04  3.8302987E-04  3.5752716E-04
  -9.00000  3.6243159E-04  4.1128802E-04  3.8142368E-04
  -8.00000  3.8753251E-04  4.4365263E-04  4.0849725E-04
  -7.00000  4.1610783E-04  4.8105761E-04  4.3941808E-04
  -6.00000  4.4893095E-04  5.2473798E-04  4.7506030E-04
  -5.00000  4.8702809E-04  5.7636097E-04  5.1658721E-04
  -4.00000  5.3179415E-04  6.3823208E-04  5.6558411E-04
  -3.00000  5.8518138E-04  7.1363199E-04  6.2427385E-04
  -2.00000  6.5002234E-04  8.0739464E-04  6.9588401E-04
  -1.00000  7.3061987E-04  9.2695970E-04  7.8531163E-04
   0.00000  8.3391787E-04  1.0844425E-03  9.0042497E-04
   1.00000  9.7210002E-04  1.3011517E-03  1.0548949E-03
   2.00000  1.1693455E-03  1.6190222E-03  1.2753420E-03
   3.00000  1.4840941E-03  2.1368681E-03  1.6239390E-03
   4.00000  2.1154421E-03  3.1753531E-03  2.3010064E-03
   5.00000  3.9564124E-03  6.1393883E-03  4.1666312E-03
   5.20000  4.5088120E-03  7.0720481E-03  4.7376312E-03
   5.40000  5.0288960E-03  8.0053235E-03  5.3073927E-03
   5.60000  5.5028021E-03  8.9150169E-03  5.8731858E-03
   5.80000  5.9471804E-03  9.8146485E-03  6.4554232E-03
   6.00000  6.3855802E-03  1.0727485E-02  7.0762859E-03
   6.20000  6.8382522E-03  1.1674289E-02  7.7517345E-03
   6.40000  7.3208164E-03  1.2672176E-02  8.4913081E-03
   6.60000  7.8455483E-03  1.3736993E-02  9.3004539E-03
   6.80000  8.4231487E-03  1.4885964E-02  1.0184259E-02
   7.00000  9.0644470E-03  1.6139269E-02  1.1151844E-02
   7.20000  9.7813321E-03  1.7520001E-02  1.2218938E-02
   7.40000  1.0585802E-02  1.9052856E-02  1.3405199E-02
   7.60000  1.1486420E-02  2.0762609E-02  1.4724771E-02
   7.80000  1.2482670E-02  2.2673042E-02  1.6172291E-02
   8.00000  1.3559017E-02  2.4805934E-02  1.7709523E-02
   8.20000  1.4681635E-02  2.7179092E-02  1.9259471E-02
   8.40000  1.5801346E-02  2.9802781E-02  2.0715017E-02
   8.60000  1.6864588E-02  3.2674823E-02  2.1964841E-02
   8.80000  1.7829326E-02  3.5775192E-02  2.2928836E-02
   9.00000  1.8677999E-02  3.9060648E-02  2.3585410E-02
   9.20000  1.9420360E-02  4.2459725E-02  2.3975679E-02
   9.40000  2.0085635E-02  4.5869176E-02  2.4184863E-02
   9.60000  2.0709978E-02  4.9154205E-02  2.4314041E-02
   9.80000  2.1326061E-02  5.2155163E-02  2.4455414E-02
   10.0000  2.1957716E-02  5.4701778E-02  2.4677140E-02
   10.2500  2.2788892E-02  5.7004201E-02  2.5123330E-02
   10.5000  2.3669170E-02  5.8113494E-02  2.5769522E-02
   10.7500  2.4580901E-02  5.7939539E-02  2.6584158E-02
   11.0000  2.5491920E-02  5.6565188E-02  2.7509932E-02
   11.2500  2.6365560E-02  5.4223535E-02  2.8483161E-02
   11.5000  2.7169673E-02  5.1232243E-02  2.9446517E-02
   11.7500  2.7882904E-02  4.7913784E-02  3.0354497E-02
   12.0000  2.8497600E-02  4.4535206E-02  3.1176324E-02
   12.2500  2.9019802E-02  4.1284393E-02  3.1897040E-02
   12.5000  2.9466785E-02  3.8274910E-02  3.2514128E-02
   12.7500  2.9862189E-02  3.5562302E-02  3.3033095E-02
   13.0000  3.0230683E-02  3.3162003E-02  3.3465152E-02
   13.2500  3.0594608E-02  3.1064933E-02  3.3826239E-02
   13.5000  3.0972404E-02  2.9249118E-02  3.4135991E-02
   13.7500  3.1377563E-02  2.7687331E-02  3.4416189E-02
   14.0000  3.1817746E-02  2.6351545E-02  3.4688995E-02
   14.2500  3.2294327E-02  2.5215233E-02  3.4975236E-02
   14.5000  3.2802691E-02  2.4254443E-02  3.5292715E-02
   14.7500  3.3333074E-02  2.3448154E-02  3.5654692E-02
   15.0000  3.3871697E-02  2.2778247E-02  3.6068771E-02
   15.2500  3.4402074E-02  2.2229267E-02  3.6536280E-02
   15.5000  3.4906483E-02  2.1788108E-02  3.7052082E-02
   15.7500  3.5367516E-02  2.1443668E-02  3.7604785E-02
   16.0000  3.5769577E-02  2.1186513E-02  3.8177302E-02
   16.2500  3.6100223E-02  2.1008549E-02  3.8747822E-02
   16.5000  3.6351203E-02  2.0902743E-02  3.9291222E-02
   16.7500  3.6519133E-02  2.0862875E-02  3.9780926E-02
   17.0000  3.6605743E-02  2.0883331E-02  4.0191125E-02
   17.2500  3.6617684E-02  2.0958941E-02  4.0499145E-02
   17.5000  3.6565912E-02  2.1084856E-02  4.0687646E-02
   17.7500  3.6464723E-02  2.1256478E-02  4.0746289E-02
   18.0000  3.6330537E-02  2.1469418E-02  4.0672556E-02
   18.2500  3.6180558E-02  2.1719494E-02  4.0471605E-02
   18.5000  3.6031477E-02  2.2002754E-02  4.0155195E-02
   18.7500  3.5898330E-02  2.2315518E-02  3.9739953E-02
   19.0000  3.5793630E-02  2.2654431E-02  3.9245296E-02
   19.2500  3.5726804E-02  2.3016542E-02  3.8691357E-02
   19.5000  3.5703939E-02  2.3399367E-02  3.8097185E-02
   19.7500  3.5727735E-02  2.3800892E-02  3.7479479E-02
   20.0000  3.5797589E-02  2.4219380E-02  3.6852164E-02
   21.0000  3.6427837E-02  2.6019817E-02  3.4456212E-02
   22.0000  3.7199189E-02  2.7915220E-02  3.2520245E-02
   23.0000  3.7531834E-02  2.9769694E-02  3.1102087E-02
   24.0000  3.7102028E-02  3.1421195E-02  3.0101353E-02
   25.0000  3.5973425E-02  3.2699618E-02  2.9387361E-02
   26.0000  3.4452642E-02  3.3484154E-02  2.8846235E-02
   27.0000  3.2844885E-02  3.3750986E-02  2.8400081E-02
   28.0000  3.1322503E-02  3.3573463E-02  2.8010860E-02
   29.0000  2.9946239E-02  3.3078350E-02  2.7671309E-02
   30.0000  2.8736817E-02  3.2392185E-02  2.7386492E-02
   31.0000  2.7707774E-02  3.1607310E-02  2.7155301E-02
   32.0000  2.6861515E-02  3.0775858E-02  2.6962550E-02
   33.0000  2.6181935E-02  2.9925599E-02  2.6782725E-02
   34.0000  2.5638934E-02  2.9073959E-02  2.6589775E-02
   35.0000  2.5202903E-02  2.8223759E-02  2.6367469E-02
   36.0000  2.4847639E-02  2.7372384E-02  2.6112949E-02
   37.0000  2.4550011E-02  2.6522776E-02  2.5836001E-02
   38.0000  2.4293012E-02  2.5691893E-02  2.5557075E-02
   39.0000  2.4070350E-02  2.4923471E-02  2.5303977E-02
   40.0000  2.3889109E-02  2.4293006E-02  2.5103879E-02
