    Energy   (100,001)      (010,001)      (001,110)   
  -25.0000  1.6380904E-04  1.8585997E-04  1.7913285E-04
  -24.0000  1.6970634E-04  1.9279789E-04  1.8552976E-04
  -23.0000  1.7599553E-04  2.0023077E-04  1.9235839E-04
  -22.0000  1.8271549E-04  2.0821226E-04  1.9966273E-04
  -21.0000  1.8991033E-04  2.1680401E-04  2.0749291E-04
  -20.0000  1.9763028E-04  2.2607707E-04  2.1590624E-04
  -19.0000  2.0593281E-04  2.3611388E-04  2.2496855E-04
  -18.0000  2.1488395E-04  2.4701050E-04  2.3475587E-04
  -17.0000  2.2455996E-04  2.5887958E-04  2.4535640E-04
  -16.0000  2.3504938E-04  2.7185405E-04  2.5687311E-04
  -15.0000  2.4645561E-04  2.8609186E-04  2.6942691E-04
  -14.0000  2.5890015E-04  3.0178210E-04  2.8316072E-04
  -13.0000  2.7252682E-04  3.1915294E-04  2.9824477E-04
  -12.0000  2.8750705E-04  3.3848226E-04  3.1488339E-04
  -11.0000  3.0404704E-04  3.6011171E-04  3.3332401E-04
  -10.0000  3.2239703E-04  3.8446605E-04  3.5386924E-04
  -9.00000  3.4286399E-04  4.1207968E-04  3.7689324E-04
  -8.00000  3.6582897E-04  4.4363418E-04  4.0286432E-04
  -7.00000  3.9177146E-04  4.8001225E-04  4.3237693E-04
  -6.00000  4.2130442E-04  5.2237725E-04  4.6619780E-04
  -5.00000  4.5522611E-04  5.7229361E-04  5.0533446E-04
  -4.00000  4.9459934E-04  6.3191550E-04  5.5114024E-04
  -3.00000  5.4087786E-04  7.0429372E-04  6.0548145E-04
  -2.00000  5.9611842E-04  7.9389937E-04  6.7101604E-04
  -1.00000  6.6336033E-04  9.0757193E-04  7.5168624E-04
   0.00000  7.4736468E-04  1.0563724E-03  8.5365655E-04
   1.00000  8.5622826E-04  1.2596008E-03  9.8728791E-04
   2.00000  1.0055236E-03  1.5548878E-03  1.1719201E-03
   3.00000  1.2318026E-03  2.0299264E-03  1.4501949E-03
   4.00000  1.6565027E-03  2.9654149E-03  1.9483989E-03
   5.00000  2.8274481E-03  5.5845600E-03  3.1899833E-03
   5.20000  3.1878479E-03  6.4154992E-03  3.5943505E-03
   5.40000  3.5377249E-03  7.2584325E-03  4.0338022E-03
   5.60000  3.8624297E-03  8.0921671E-03  4.5058690E-03
   5.80000  4.1641013E-03  8.9264017E-03  5.0166606E-03
   6.00000  4.4508607E-03  9.7789682E-03  5.5726415E-03
   6.20000  4.7313686E-03  1.0665312E-02  6.1759115E-03
   6.40000  5.0134230E-03  1.1596769E-02  6.8223348E-03
   6.60000  5.3038428E-03  1.2581740E-02  7.5014919E-03
   6.80000  5.6086500E-03  1.3627754E-02  8.1987929E-03
   7.00000  5.9333484E-03  1.4743869E-02  8.9000390E-03
   7.20000  6.2832167E-03  1.5942664E-02  9.5972449E-03
   7.40000  6.6635405E-03  1.7241098E-02  1.0292927E-02
   7.60000  7.0797130E-03  1.8660067E-02  1.1000337E-02
   7.80000  7.5371362E-03  2.0223129E-02  1.1739470E-02
   8.00000  8.0408802E-03  2.1954980E-02  1.2530840E-02
   8.20000  8.5951121E-03  2.3879860E-02  1.3389379E-02
   8.40000  9.2023653E-03  2.6019517E-02  1.4319827E-02
   8.60000  9.8627842E-03  2.8390310E-02  1.5314315E-02
   8.80000  1.0573584E-02  3.0999049E-02  1.6353106E-02
   9.00000  1.1329045E-02  3.3837702E-02  1.7409543E-02
   9.20000  1.2121264E-02  3.6878060E-02  1.8458716E-02
   9.40000  1.2941680E-02  4.0067973E-02  1.9486029E-02
   9.60000  1.3783118E-02  4.3330226E-02  2.0490431E-02
   9.80000  1.4641742E-02  4.6563986E-02  2.1480381E-02
   10.0000  1.5518055E-02  4.9647630E-02  2.2466127E-02
   10.2500  1.6644883E-02  5.3078750E-02  2.3701094E-02
   10.5000  1.7816916E-02  5.5770567E-02  2.4938189E-02
   10.7500  1.9041348E-02  5.7463270E-02  2.6167717E-02
   11.0000  2.0316153E-02  5.7989896E-02  2.7376573E-02
   11.2500  2.1627063E-02  5.7329356E-02  2.8554699E-02
   11.5000  2.2946971E-02  5.5616685E-02  2.9698754E-02
   11.7500  2.4240125E-02  5.3101998E-02  3.0808956E-02
   12.0000  2.5469958E-02  5.0080584E-02  3.1883397E-02
   12.2500  2.6605802E-02  4.6829881E-02  3.2916626E-02
   12.5000  2.7627330E-02  4.3571636E-02  3.3901533E-02
   12.7500  2.8526926E-02  4.0459981E-02  3.4830253E-02
   13.0000  2.9310159E-02  3.7587127E-02  3.5694749E-02
   13.2500  2.9994386E-02  3.4996834E-02  3.6489449E-02
   13.5000  3.0605079E-02  3.2699845E-02  3.7214489E-02
   13.7500  3.1171030E-02  3.0687459E-02  3.7877001E-02
   14.0000  3.1720551E-02  2.8940671E-02  3.8489753E-02
   14.2500  3.2279056E-02  2.7435524E-02  3.9068158E-02
   14.5000  3.2867516E-02  2.6146358E-02  3.9626924E-02
   14.7500  3.3501593E-02  2.5047891E-02  4.0177088E-02
   15.0000  3.4191334E-02  2.4116459E-02  4.0723851E-02
   15.2500  3.4941265E-02  2.3330693E-02  4.1265366E-02
   15.5000  3.5750708E-02  2.2671798E-02  4.1792583E-02
   15.7500  3.6614161E-02  2.2123593E-02  4.2290123E-02
   16.0000  3.7521683E-02  2.1672382E-02  4.2738090E-02
   16.2500  3.8459280E-02  2.1306754E-02  4.3114599E-02
   16.5000  3.9409391E-02  2.1017310E-02  4.3398649E-02
   16.7500  4.0351588E-02  2.0796371E-02  4.3572878E-02
   17.0000  4.1263617E-02  2.0637679E-02  4.3625738E-02
   17.2500  4.2122854E-02  2.0536086E-02  4.3552752E-02
   17.5000  4.2908120E-02  2.0487289E-02  4.3356688E-02
   17.7500  4.3601641E-02  2.0487599E-02  4.3046773E-02
   18.0000  4.4190847E-02  2.0533766E-02  4.2637187E-02
   18.2500  4.4669638E-02  2.0622869E-02  4.2145230E-02
   18.5000  4.5038849E-02  2.0752257E-02  4.1589485E-02
   18.7500  4.5305784E-02  2.0919531E-02  4.0988253E-02
   19.0000  4.5482943E-02  2.1122563E-02  4.0358368E-02
   19.2500  4.5586167E-02  2.1359531E-02  3.9714417E-02
   19.5000  4.5632569E-02  2.1628955E-02  3.9068302E-02
   19.7500  4.5638603E-02  2.1929676E-02  3.8429150E-02
   20.0000  4.5618617E-02  2.2260676E-02  3.7803684E-02
   21.0000  4.5463521E-02  2.3857853E-02  3.5531571E-02
   22.0000  4.5264877E-02  2.5805966E-02  3.3733489E-02
   23.0000  4.4636610E-02  2.7957320E-02  3.2374874E-02
   24.0000  4.3073390E-02  3.0093786E-02  3.1339071E-02
   25.0000  4.0436209E-02  3.1962017E-02  3.0506980E-02
   26.0000  3.7074867E-02  3.3348408E-02  2.9784441E-02
   27.0000  3.3606556E-02  3.4144409E-02  2.9119943E-02
   28.0000  3.0580101E-02  3.4367893E-02  2.8512096E-02
   29.0000  2.8213926E-02  3.4129643E-02  2.7982236E-02
   30.0000  2.6485449E-02  3.3573058E-02  2.7554050E-02
   31.0000  2.5281535E-02  3.2830658E-02  2.7237557E-02
   32.0000  2.4471448E-02  3.2002108E-02  2.7020601E-02
   33.0000  2.3935852E-02  3.1148574E-02  2.6872681E-02
   34.0000  2.3573553E-02  3.0299526E-02  2.6754220E-02
   35.0000  2.3299574E-02  2.9465155E-02  2.6625082E-02
   36.0000  2.3043189E-02  2.8648695E-02  2.6451492E-02
   37.0000  2.2751057E-02  2.7855653E-02  2.6212809E-02
   38.0000  2.2398421E-02  2.7100771E-02  2.5909268E-02
   39.0000  2.2005748E-02  2.6417040E-02  2.5571358E-02
   40.0000  2.1642486E-02  2.5862121E-02  2.5263352E-02
