    Energy   (100,001)      (010,001)      (001,110)   
  -25.0000  1.6647384E-04  1.8073928E-04  1.7188974E-04
  -24.0000  1.7276283E-04  1.8762588E-04  1.7832951E-04
  -23.0000  1.7949304E-04  1.9500989E-04  1.8522040E-04
  -22.0000  1.8671079E-04  2.0294570E-04  1.9260980E-04
  -21.0000  1.9446901E-04  2.1149580E-04  2.0055189E-04
  -20.0000  2.0282837E-04  2.2073236E-04  2.0910880E-04
  -19.0000  2.1185886E-04  2.3073910E-04  2.1835220E-04
  -18.0000  2.2164153E-04  2.4161373E-04  2.2836509E-04
  -17.0000  2.3227078E-04  2.5347091E-04  2.3924419E-04
  -16.0000  2.4385725E-04  2.6644608E-04  2.5110284E-04
  -15.0000  2.5653135E-04  2.8070035E-04  2.6407465E-04
  -14.0000  2.7044796E-04  2.9642677E-04  2.7831831E-04
  -13.0000  2.8579231E-04  3.1385856E-04  2.9402361E-04
  -12.0000  3.0278784E-04  3.3328003E-04  3.1141947E-04
  -11.0000  3.2170656E-04  3.5504118E-04  3.3078450E-04
  -10.0000  3.4288290E-04  3.7957757E-04  3.5246117E-04
  -9.00000  3.6673279E-04  4.0743781E-04  3.7687522E-04
  -8.00000  3.9378008E-04  4.3932235E-04  4.0456252E-04
  -7.00000  4.2469417E-04  4.7613920E-04  4.3620729E-04
  -6.00000  4.6034468E-04  5.1908601E-04  4.7269744E-04
  -5.00000  5.0188316E-04  5.6977434E-04  5.1520717E-04
  -4.00000  5.5086927E-04  6.3042372E-04  5.6532424E-04
  -3.00000  6.0947305E-04  7.0417650E-04  6.2525354E-04
  -2.00000  6.8081480E-04  7.9563252E-04  6.9815903E-04
  -1.00000  7.6957049E-04  9.1181077E-04  7.8877349E-04
   0.00000  8.8313416E-04  1.0640117E-03  9.0457562E-04
   1.00000  1.0340878E-03  1.2718036E-03  1.0583236E-03
   2.00000  1.2462607E-03  1.5728723E-03  1.2744352E-03
   3.00000  1.5732420E-03  2.0533671E-03  1.6094430E-03
   4.00000  2.1791008E-03  2.9817214E-03  2.2482003E-03
   5.00000  3.7511950E-03  5.5015252E-03  3.9877615E-03
   5.20000  4.2423540E-03  6.2973522E-03  4.4882688E-03
   5.40000  4.7478050E-03  7.1114138E-03  4.9536518E-03
   5.60000  5.2616555E-03  7.9268527E-03  5.3797718E-03
   5.80000  5.7963870E-03  8.7540054E-03  5.7890929E-03
   6.00000  6.3698554E-03  9.6093478E-03  6.2058252E-03
   6.20000  6.9992231E-03  1.0506756E-02  6.6476625E-03
   6.40000  7.6995735E-03  1.1457271E-02  7.1268610E-03
   6.60000  8.4836819E-03  1.2471367E-02  7.6529482E-03
   6.80000  9.3615639E-03  1.3561551E-02  8.2345634E-03
   7.00000  1.0339415E-02  1.4745064E-02  8.8805047E-03
   7.20000  1.1417825E-02  1.6046774E-02  9.6008435E-03
   7.40000  1.2589336E-02  1.7501771E-02  1.0408693E-02
   7.60000  1.3835505E-02  1.9155841E-02  1.1321980E-02
   7.80000  1.5124404E-02  2.1062042E-02  1.2363474E-02
   8.00000  1.6411370E-02  2.3274199E-02  1.3557901E-02
   8.20000  1.7646624E-02  2.5839975E-02  1.4926900E-02
   8.40000  1.8790487E-02  2.8794992E-02  1.6483886E-02
   8.60000  1.9830596E-02  3.2156954E-02  1.8230463E-02
   8.80000  2.0790752E-02  3.5917377E-02  2.0154954E-02
   9.00000  2.1724325E-02  4.0029240E-02  2.2232914E-02
   9.20000  2.2695236E-02  4.4391444E-02  2.4429293E-02
   9.40000  2.3756864E-02  4.8834924E-02  2.6701749E-02
   9.60000  2.4937845E-02  5.3119284E-02  2.9004165E-02
   9.80000  2.6237389E-02  5.6950052E-02  3.1289033E-02
   10.0000  2.7627985E-02  6.0020852E-02  3.3507323E-02
   10.2500  2.9420771E-02  6.2406235E-02  3.6106060E-02
   10.5000  3.1164701E-02  6.2949195E-02  3.8409289E-02
   10.7500  3.2737661E-02  6.1729564E-02  4.0312538E-02
   11.0000  3.4035416E-02  5.9097878E-02  4.1729907E-02
   11.2500  3.5000951E-02  5.5530116E-02  4.2610617E-02
   11.5000  3.5639813E-02  5.1495745E-02  4.2954066E-02
   11.7500  3.6008327E-02  4.7376489E-02  4.2812930E-02
   12.0000  3.6185924E-02  4.3435955E-02  4.2281851E-02
   12.2500  3.6250171E-02  3.9826094E-02  4.1477843E-02
   12.5000  3.6263502E-02  3.6613067E-02  4.0520295E-02
   12.7500  3.6270461E-02  3.3806933E-02  3.9515660E-02
   13.0000  3.6300590E-02  3.1385881E-02  3.8548723E-02
   13.2500  3.6372398E-02  2.9312838E-02  3.7679930E-02
   13.5000  3.6496205E-02  2.7545725E-02  3.6946989E-02
   13.7500  3.6675732E-02  2.6043233E-02  3.6368615E-02
   14.0000  3.6908985E-02  2.4767666E-02  3.5948854E-02
   14.2500  3.7188916E-02  2.3686048E-02  3.5681027E-02
   14.5000  3.7504115E-02  2.2770291E-02  3.5550955E-02
   14.7500  3.7839625E-02  2.1996911E-02  3.5539437E-02
   15.0000  3.8177896E-02  2.1346548E-02  3.5624152E-02
   15.2500  3.8499862E-02  2.0803437E-02  3.5781169E-02
   15.5000  3.8786113E-02  2.0354878E-02  3.5986243E-02
   15.7500  3.9018173E-02  1.9990742E-02  3.6215963E-02
   16.0000  3.9179812E-02  1.9703008E-02  3.6448813E-02
   16.2500  3.9258329E-02  1.9485357E-02  3.6666082E-02
   16.5000  3.9245653E-02  1.9332794E-02  3.6852592E-02
   16.7500  3.9139113E-02  1.9241332E-02  3.6997171E-02
   17.0000  3.8941747E-02  1.9207709E-02  3.7092809E-02
   17.2500  3.8662061E-02  1.9229160E-02  3.7136494E-02
   17.5000  3.8313253E-02  1.9303237E-02  3.7128753E-02
   17.7500  3.7911999E-02  1.9427673E-02  3.7072978E-02
   18.0000  3.7476985E-02  1.9600289E-02  3.6974623E-02
   18.2500  3.7027376E-02  1.9818933E-02  3.6840382E-02
   18.5000  3.6581421E-02  2.0081459E-02  3.6677425E-02
   18.7500  3.6155332E-02  2.0385721E-02  3.6492744E-02
   19.0000  3.5762494E-02  2.0729608E-02  3.6292657E-02
   19.2500  3.5413010E-02  2.1111096E-02  3.6082458E-02
   19.5000  3.5113544E-02  2.1528318E-02  3.5866216E-02
   19.7500  3.4867374E-02  2.1979546E-02  3.5646726E-02
   20.0000  3.4674639E-02  2.2462972E-02  3.5425618E-02
   21.0000  3.4359086E-02  2.4660633E-02  3.4532306E-02
   22.0000  3.4440666E-02  2.7110656E-02  3.3588678E-02
   23.0000  3.4396449E-02  2.9567436E-02  3.2506985E-02
   24.0000  3.3822794E-02  3.1757861E-02  3.1238348E-02
   25.0000  3.2604289E-02  3.3438098E-02  2.9829831E-02
   26.0000  3.0938590E-02  3.4467102E-02  2.8429927E-02
   27.0000  2.9182418E-02  3.4846524E-02  2.7219653E-02
   28.0000  2.7605342E-02  3.4702236E-02  2.6299956E-02
   29.0000  2.6324879E-02  3.4201034E-02  2.5675274E-02
   30.0000  2.5350170E-02  3.3490301E-02  2.5294170E-02
   31.0000  2.4633699E-02  3.2675522E-02  2.5084885E-02
   32.0000  2.4107298E-02  3.1816331E-02  2.4972253E-02
   33.0000  2.3700384E-02  3.0934245E-02  2.4884448E-02
   34.0000  2.3348110E-02  3.0026917E-02  2.4757810E-02
   35.0000  2.2997186E-02  2.9084321E-02  2.4543044E-02
   36.0000  2.2613223E-02  2.8102802E-02  2.4214363E-02
   37.0000  2.2188013E-02  2.7094750E-02  2.3779509E-02
   38.0000  2.1741981E-02  2.6095526E-02  2.3283846E-02
   39.0000  2.1319096E-02  2.5171341E-02  2.2800796E-02
   40.0000  2.0972022E-02  2.4417668E-02  2.2405941E-02
