    Energy   (100,001)      (010,001)      (001,110)   
  -25.0000  1.6959130E-04  1.8783258E-04  1.7641363E-04
  -24.0000  1.7590540E-04  1.9469225E-04  1.8304028E-04
  -23.0000  1.8265846E-04  2.0203375E-04  1.9013604E-04
  -22.0000  1.8989626E-04  2.0990875E-04  1.9775105E-04
  -21.0000  1.9767107E-04  2.1837650E-04  2.0594272E-04
  -20.0000  2.0604281E-04  2.2750526E-04  2.1477717E-04
  -19.0000  2.1508051E-04  2.3737405E-04  2.2433087E-04
  -18.0000  2.2486407E-04  2.4807491E-04  2.3469275E-04
  -17.0000  2.3548649E-04  2.5971556E-04  2.4596683E-04
  -16.0000  2.4705663E-04  2.7242298E-04  2.5827560E-04
  -15.0000  2.5970274E-04  2.8634775E-04  2.7176421E-04
  -14.0000  2.7357692E-04  3.0166987E-04  2.8660601E-04
  -13.0000  2.8886092E-04  3.1860616E-04  3.0300971E-04
  -12.0000  3.0577371E-04  3.3742012E-04  3.2122892E-04
  -11.0000  3.2458145E-04  3.5843505E-04  3.4157483E-04
  -10.0000  3.4561092E-04  3.8205196E-04  3.6443367E-04
  -9.00000  3.6926781E-04  4.0877407E-04  3.9029082E-04
  -8.00000  3.9606204E-04  4.3924133E-04  4.1976502E-04
  -7.00000  4.2664365E-04  4.7427988E-04  4.5365793E-04
  -6.00000  4.6185479E-04  5.1497447E-04  4.9302790E-04
  -5.00000  5.0280692E-04  5.6277779E-04  5.3930319E-04
  -4.00000  5.5099939E-04  6.1968028E-04  5.9446202E-04
  -3.00000  6.0850809E-04  6.8848474E-04  6.6133171E-04
  -2.00000  6.7829986E-04  7.7327081E-04  7.4411229E-04
  -1.00000  7.6478700E-04  8.8022814E-04  8.4935476E-04
   0.00000  8.7487989E-04  1.0192678E-03  9.8794715E-04
   1.00000  1.0201948E-03  1.2074764E-03  1.1796137E-03
   2.00000  1.2223939E-03  1.4776955E-03  1.4647711E-03
   3.00000  1.5292534E-03  1.9052575E-03  1.9435242E-03
   4.00000  2.0836269E-03  2.7280070E-03  2.9564800E-03
   5.00000  3.4795727E-03  4.9706988E-03  6.0918930E-03
   5.20000  3.9217698E-03  5.6703011E-03  7.1703036E-03
   5.40000  4.3866417E-03  6.3728320E-03  8.3116952E-03
   5.60000  4.8672396E-03  7.0604424E-03  9.4698247E-03
   5.80000  5.3675994E-03  7.7427173E-03  1.0621052E-02
   6.00000  5.8934273E-03  8.4366230E-03  1.1747058E-02
   6.20000  6.4494165E-03  9.1573388E-03  1.2823474E-02
   6.40000  7.0400045E-03  9.9169510E-03  1.3814215E-02
   6.60000  7.6699050E-03  1.0725925E-02  1.4675109E-02
   6.80000  8.3441637E-03  1.1595433E-02  1.5370842E-02
   7.00000  9.0688045E-03  1.2539618E-02  1.5897282E-02
   7.20000  9.8520823E-03  1.3576876E-02  1.6291699E-02
   7.40000  1.0705283E-02  1.4729731E-02  1.6621708E-02
   7.60000  1.1642430E-02  1.6023933E-02  1.6961699E-02
   7.80000  1.2679172E-02  1.7487586E-02  1.7372464E-02
   8.00000  1.3831238E-02  1.9150391E-02  1.7892247E-02
   8.20000  1.5112558E-02  2.1042616E-02  1.8537009E-02
   8.40000  1.6533023E-02  2.3193305E-02  1.9304171E-02
   8.60000  1.8095980E-02  2.5627313E-02  2.0177650E-02
   8.80000  1.9795960E-02  2.8361080E-02  2.1134369E-02
   9.00000  2.1617186E-02  3.1397433E-02  2.2151684E-02
   9.20000  2.3532949E-02  3.4719989E-02  2.3213781E-02
   9.40000  2.5505556E-02  3.8287642E-02  2.4314349E-02
   9.60000  2.7487004E-02  4.2028810E-02  2.5453817E-02
   9.80000  2.9421414E-02  4.5835336E-02  2.6632983E-02
   10.0000  3.1250083E-02  4.9558172E-02  2.7847314E-02
   10.2500  3.3304540E-02  5.3804321E-02  2.9395214E-02
   10.5000  3.5025401E-02  5.7207171E-02  3.0940418E-02
   10.7500  3.6364781E-02  5.9381592E-02  3.2439993E-02
   11.0000  3.7309426E-02  6.0085426E-02  3.3856191E-02
   11.2500  3.7876260E-02  5.9298214E-02  3.5157170E-02
   11.5000  3.8107806E-02  5.7223113E-02  3.6310792E-02
   11.7500  3.8064256E-02  5.4213527E-02  3.7283575E-02
   12.0000  3.7815544E-02  5.0666557E-02  3.8046322E-02
   12.2500  3.7434173E-02  4.6933773E-02  3.8580423E-02
   12.5000  3.6987246E-02  4.3275586E-02  3.8881384E-02
   12.7500  3.6530078E-02  3.9855450E-02  3.8960031E-02
   13.0000  3.6103956E-02  3.6756915E-02  3.8842507E-02
   13.2500  3.5736750E-02  3.4008118E-02  3.8567808E-02
   13.5000  3.5444587E-02  3.1603862E-02  3.8182662E-02
   13.7500  3.5233979E-02  2.9521157E-02  3.7735606E-02
   14.0000  3.5103718E-02  2.7729028E-02  3.7271536E-02
   14.2500  3.5046410E-02  2.6194518E-02  3.6827791E-02
   14.5000  3.5050128E-02  2.4885973E-02  3.6432528E-02
   14.7500  3.5100058E-02  2.3774555E-02  3.6104814E-02
   15.0000  3.5179799E-02  2.2834764E-02  3.5855428E-02
   15.2500  3.5272386E-02  2.2044457E-02  3.5687853E-02
   15.5000  3.5361179E-02  2.1384613E-02  3.5599303E-02
   15.7500  3.5430755E-02  2.0838977E-02  3.5581735E-02
   16.0000  3.5467799E-02  2.0393691E-02  3.5622863E-02
   16.2500  3.5461988E-02  2.0036938E-02  3.5707215E-02
   16.5000  3.5406809E-02  1.9758648E-02  3.5817314E-02
   16.7500  3.5300204E-02  1.9550246E-02  3.5934995E-02
   17.0000  3.5144916E-02  1.9404448E-02  3.6042830E-02
   17.2500  3.4948424E-02  1.9315090E-02  3.6125528E-02
   17.5000  3.4722406E-02  1.9276984E-02  3.6171157E-02
   17.7500  3.4481757E-02  1.9285784E-02  3.6171995E-02
   18.0000  3.4243266E-02  1.9337871E-02  3.6124874E-02
   18.2500  3.4024130E-02  1.9430243E-02  3.6030974E-02
   18.5000  3.3840518E-02  1.9560426E-02  3.5895130E-02
   18.7500  3.3706363E-02  1.9726391E-02  3.5724808E-02
   19.0000  3.3632511E-02  1.9926502E-02  3.5528941E-02
   19.2500  3.3626273E-02  2.0159480E-02  3.5316798E-02
   19.5000  3.3691313E-02  2.0424391E-02  3.5097013E-02
   19.7500  3.3827733E-02  2.0720582E-02  3.4876883E-02
   20.0000  3.4032147E-02  2.1047513E-02  3.4662030E-02
   21.0000  3.5351544E-02  2.2642898E-02  3.3916692E-02
   22.0000  3.6859297E-02  2.4641732E-02  3.3357270E-02
   23.0000  3.7668171E-02  2.6946501E-02  3.2822325E-02
   24.0000  3.7173879E-02  2.9379499E-02  3.2124610E-02
   25.0000  3.5422122E-02  3.1676140E-02  3.1179086E-02
   26.0000  3.3029975E-02  3.3558077E-02  3.0031471E-02
   27.0000  3.0672539E-02  3.4840279E-02  2.8813241E-02
   28.0000  2.8682582E-02  3.5484454E-02  2.7669679E-02
   29.0000  2.7089977E-02  3.5576892E-02  2.6710894E-02
   30.0000  2.5844658E-02  3.5267046E-02  2.5990744E-02
   31.0000  2.4897964E-02  3.4695065E-02  2.5495524E-02
   32.0000  2.4197522E-02  3.3960884E-02  2.5167734E-02
   33.0000  2.3681043E-02  3.3127718E-02  2.4934947E-02
   34.0000  2.3286739E-02  3.2235978E-02  2.4728738E-02
   35.0000  2.2965441E-02  3.1315334E-02  2.4497423E-02
   36.0000  2.2683535E-02  3.0390972E-02  2.4214870E-02
   37.0000  2.2422450E-02  2.9487892E-02  2.3885701E-02
   38.0000  2.2177468E-02  2.8635971E-02  2.3542112E-02
   39.0000  2.1956116E-02  2.7877861E-02  2.3229142E-02
   40.0000  2.1774399E-02  2.7273397E-02  2.2983630E-02
