    Energy   (100,001)      (010,001)      (001,110)   
  -25.0000  1.6584678E-04  1.9394692E-04  1.7949763E-04
  -24.0000  1.7182548E-04  2.0083675E-04  1.8598775E-04
  -23.0000  1.7820366E-04  2.0820149E-04  1.9292140E-04
  -22.0000  1.8502127E-04  2.1609140E-04  2.0034437E-04
  -21.0000  1.9232368E-04  2.2456400E-04  2.0830891E-04
  -20.0000  2.0016266E-04  2.3368551E-04  2.1687487E-04
  -19.0000  2.0859746E-04  2.4353248E-04  2.2611113E-04
  -18.0000  2.1769631E-04  2.5419390E-04  2.3609741E-04
  -17.0000  2.2753811E-04  2.6577382E-04  2.4692640E-04
  -16.0000  2.3821460E-04  2.7839467E-04  2.5870655E-04
  -15.0000  2.4983314E-04  2.9220145E-04  2.7156554E-04
  -14.0000  2.6252013E-04  3.0736717E-04  2.8565474E-04
  -13.0000  2.7642545E-04  3.2409994E-04  3.0115494E-04
  -12.0000  2.9172823E-04  3.4265224E-04  3.1828390E-04
  -11.0000  3.0864439E-04  3.6333337E-04  3.3730625E-04
  -10.0000  3.2743671E-04  3.8652633E-04  3.5854692E-04
  -9.00000  3.4842842E-04  4.1271100E-04  3.8240933E-04
  -8.00000  3.7202201E-04  4.4249676E-04  4.0940088E-04
  -7.00000  3.9872560E-04  4.7666918E-04  4.4016888E-04
  -6.00000  4.2919111E-04  5.1625860E-04  4.7555305E-04
  -5.00000  4.6427072E-04  5.6264368E-04  5.1666374E-04
  -4.00000  5.0510371E-04  6.1771278E-04  5.6500263E-04
  -3.00000  5.5325512E-04  6.8412591E-04  6.2265624E-04
  -2.00000  6.1094913E-04  7.6576033E-04  6.9262064E-04
  -1.00000  6.8148757E-04  8.6851599E-04  7.7937922E-04
   0.00000  7.7006630E-04  1.0018898E-03  8.9000953E-04
   1.00000  8.8555912E-04  1.1823956E-03  1.0365262E-03
   2.00000  1.0450954E-03  1.4422062E-03  1.2415869E-03
   3.00000  1.2889963E-03  1.8566142E-03  1.5556859E-03
   4.00000  1.7515529E-03  2.6697223E-03  2.1302381E-03
   5.00000  3.0362479E-03  4.9538720E-03  3.5991518E-03
   5.20000  3.4285874E-03  5.6678459E-03  4.0777667E-03
   5.40000  3.8071159E-03  6.3781702E-03  4.5918391E-03
   5.60000  4.1577324E-03  7.0644830E-03  5.1334510E-03
   5.80000  4.4849460E-03  7.7363159E-03  5.7044884E-03
   6.00000  4.7988333E-03  8.4118601E-03  6.3078775E-03
   6.20000  5.1090380E-03  9.1083053E-03  6.9444660E-03
   6.40000  5.4237401E-03  9.8403080E-03  7.6146897E-03
   6.60000  5.7500702E-03  1.0620761E-02  8.3222284E-03
   6.80000  6.0946252E-03  1.1461599E-02  9.0772771E-03
   7.00000  6.4637716E-03  1.2374124E-02  9.8974693E-03
   7.20000  6.8636853E-03  1.3368939E-02  1.0805571E-02
   7.40000  7.3001453E-03  1.4455740E-02  1.1824424E-02
   7.60000  7.7781578E-03  1.5643173E-02  1.2970546E-02
   7.80000  8.3015684E-03  1.6938802E-02  1.4248069E-02
   8.00000  8.8728897E-03  1.8349265E-02  1.5644452E-02
   8.20000  9.4935087E-03  1.9880681E-02  1.7128905E-02
   8.40000  1.0164200E-02  2.1539112E-02  1.8653626E-02
   8.60000  1.0885618E-02  2.3330522E-02  2.0157459E-02
   8.80000  1.1658454E-02  2.5259369E-02  2.1572148E-02
   9.00000  1.2483325E-02  2.7325200E-02  2.2832292E-02
   9.20000  1.3360759E-02  2.9517830E-02  2.3888973E-02
   9.40000  1.4291557E-02  3.1813253E-02  2.4723454E-02
   9.60000  1.5277305E-02  3.4173248E-02  2.5354363E-02
   9.80000  1.6320306E-02  3.6550225E-02  2.5833152E-02
   10.0000  1.7422246E-02  3.8894761E-02  2.6228902E-02
   10.2500  1.8879707E-02  4.1709726E-02  2.6708933E-02
   10.5000  2.0409890E-02  4.4318836E-02  2.7260422E-02
   10.7500  2.1977699E-02  4.6641998E-02  2.7927083E-02
   11.0000  2.3530783E-02  4.8597887E-02  2.8709930E-02
   11.2500  2.5004230E-02  5.0094801E-02  2.9584883E-02
   11.5000  2.6330151E-02  5.1029678E-02  3.0514632E-02
   11.7500  2.7455348E-02  5.1318472E-02  3.1456171E-02
   12.0000  2.8359080E-02  5.0933641E-02  3.2367816E-02
   12.2500  2.9059204E-02  4.9917812E-02  3.3214555E-02
   12.5000  2.9603674E-02  4.8371486E-02  3.3970772E-02
   12.7500  3.0054475E-02  4.6427495E-02  3.4621410E-02
   13.0000  3.0472484E-02  4.4226135E-02  3.5162281E-02
   13.2500  3.0907322E-02  4.1897546E-02  3.5598777E-02
   13.5000  3.1392839E-02  3.9551131E-02  3.5943271E-02
   13.7500  3.1946670E-02  3.7271044E-02  3.6212578E-02
   14.0000  3.2572173E-02  3.5116335E-02  3.6425875E-02
   14.2500  3.3261638E-02  3.3123807E-02  3.6602956E-02
   14.5000  3.3999839E-02  3.1312136E-02  3.6762869E-02
   14.7500  3.4767358E-02  2.9686366E-02  3.6922918E-02
   15.0000  3.5543418E-02  2.8242163E-02  3.7097930E-02
   15.2500  3.6308128E-02  2.6969439E-02  3.7299676E-02
   15.5000  3.7044070E-02  2.5855163E-02  3.7536386E-02
   15.7500  3.7737231E-02  2.4885340E-02  3.7812306E-02
   16.0000  3.8377288E-02  2.4046270E-02  3.8127330E-02
   16.2500  3.8957381E-02  2.3325238E-02  3.8476743E-02
   16.5000  3.9473559E-02  2.2710815E-02  3.8851181E-02
   16.7500  3.9924114E-02  2.2192904E-02  3.9236909E-02
   17.0000  4.0308999E-02  2.1762668E-02  3.9616542E-02
   17.2500  4.0629440E-02  2.1412375E-02  3.9970250E-02
   17.5000  4.0887771E-02  2.1135245E-02  4.0277425E-02
   17.7500  4.1087442E-02  2.0925294E-02  4.0518655E-02
   18.0000  4.1233084E-02  2.0777201E-02  4.0677741E-02
   18.2500  4.1330532E-02  2.0686199E-02  4.0743430E-02
   18.5000  4.1386726E-02  2.0647985E-02  4.0710525E-02
   18.7500  4.1409436E-02  2.0658670E-02  4.0580172E-02
   19.0000  4.1406844E-02  2.0714754E-02  4.0359281E-02
   19.2500  4.1387014E-02  2.0813127E-02  4.0059197E-02
   19.5000  4.1357324E-02  2.0951096E-02  3.9693948E-02
   19.7500  4.1323958E-02  2.1126373E-02  3.9278468E-02
   20.0000  4.1291545E-02  2.1336960E-02  3.8827353E-02
   21.0000  4.1209338E-02  2.2492991E-02  3.6926401E-02
   22.0000  4.1152193E-02  2.4071587E-02  3.5264186E-02
   23.0000  4.0919126E-02  2.5977704E-02  3.3963633E-02
   24.0000  4.0304967E-02  2.8075908E-02  3.2918598E-02
   25.0000  3.9166557E-02  3.0169260E-02  3.1982590E-02
   26.0000  3.7450517E-02  3.2028427E-02  3.1040459E-02
   27.0000  3.5276192E-02  3.3452991E-02  3.0046029E-02
   28.0000  3.2943310E-02  3.4342735E-02  2.9033526E-02
   29.0000  3.0734074E-02  3.4739656E-02  2.8071229E-02
   30.0000  2.8825558E-02  3.4763330E-02  2.7232970E-02
   31.0000  2.7285009E-02  3.4542316E-02  2.6571534E-02
   32.0000  2.6094133E-02  3.4178555E-02  2.6099584E-02
   33.0000  2.5189482E-02  3.3734087E-02  2.5792520E-02
   34.0000  2.4495432E-02  3.3234786E-02  2.5603799E-02
   35.0000  2.3942726E-02  3.2683255E-02  2.5480272E-02
   36.0000  2.3475905E-02  3.2074644E-02  2.5373122E-02
   37.0000  2.3055611E-02  3.1412019E-02  2.5245050E-02
   38.0000  2.2660982E-02  3.0719703E-02  2.5076798E-02
   39.0000  2.2294749E-02  3.0053757E-02  2.4875818E-02
   40.0000  2.1985347E-02  2.9500398E-02  2.4681823E-02
