    Energy   (100,001)      (010,001)      (001,110)   
  -25.0000  1.6927173E-04  1.8206904E-04  1.8101848E-04
  -24.0000  1.7524777E-04  1.8909392E-04  1.8749332E-04
  -23.0000  1.8161801E-04  1.9663181E-04  1.9440763E-04
  -22.0000  1.8842156E-04  2.0473938E-04  2.0180663E-04
  -21.0000  1.9570277E-04  2.1348181E-04  2.0974192E-04
  -20.0000  2.0351218E-04  2.2293449E-04  2.1827258E-04
  -19.0000  2.1190764E-04  2.3318498E-04  2.2746665E-04
  -18.0000  2.2095565E-04  2.4433565E-04  2.3740280E-04
  -17.0000  2.3073306E-04  2.5650681E-04  2.4817260E-04
  -16.0000  2.4132914E-04  2.6984085E-04  2.5988317E-04
  -15.0000  2.5284823E-04  2.8450743E-04  2.7266066E-04
  -14.0000  2.6541302E-04  3.0071028E-04  2.8665472E-04
  -13.0000  2.7916884E-04  3.1869609E-04  3.0204420E-04
  -12.0000  2.9428911E-04  3.3876630E-04  3.1904467E-04
  -11.0000  3.1098260E-04  3.6129302E-04  3.3791842E-04
  -10.0000  3.2950294E-04  3.8674067E-04  3.5898792E-04
  -9.00000  3.5016162E-04  4.1569621E-04  3.8265434E-04
  -8.00000  3.7334573E-04  4.4891182E-04  4.0942334E-04
  -7.00000  3.9954301E-04  4.8736668E-04  4.3994210E-04
  -6.00000  4.2937782E-04  5.3235865E-04  4.7505347E-04
  -5.00000  4.6366437E-04  5.8564389E-04  5.1587780E-04
  -4.00000  5.0348834E-04  6.4965714E-04  5.6394102E-04
  -3.00000  5.5033711E-04  7.2787261E-04  6.2138340E-04
  -2.00000  6.0631852E-04  8.2542477E-04  6.9131819E-04
  -1.00000  6.7455299E-04  9.5024169E-04  7.7848867E-04
   0.00000  7.5993854E-04  1.1152805E-03  8.9057657E-04
   1.00000  8.7082401E-04  1.3434207E-03  1.0411136E-03
   2.00000  1.0233069E-03  1.6798855E-03  1.2570471E-03
   3.00000  1.2552423E-03  2.2317358E-03  1.6034482E-03
   4.00000  1.6921548E-03  3.3478622E-03  2.2984869E-03
   5.00000  2.9096696E-03  6.5687409E-03  4.3555375E-03
   5.20000  3.2998265E-03  7.5934093E-03  5.0490942E-03
   5.40000  3.6897792E-03  8.6229496E-03  5.7709389E-03
   5.60000  4.0559395E-03  9.6232943E-03  6.4794288E-03
   5.80000  4.3877845E-03  1.0598881E-02  7.1420951E-03
   6.00000  4.6842699E-03  1.1567527E-02  7.7326640E-03
   6.20000  4.9527909E-03  1.2551268E-02  8.2393056E-03
   6.40000  5.2067383E-03  1.3575511E-02  8.6723970E-03
   6.60000  5.4607279E-03  1.4667701E-02  9.0612970E-03
   6.80000  5.7268233E-03  1.5855046E-02  9.4428296E-03
   7.00000  6.0137539E-03  1.7163652E-02  9.8507710E-03
   7.20000  6.3280247E-03  1.8619379E-02  1.0311368E-02
   7.40000  6.6751291E-03  2.0248867E-02  1.0843645E-02
   7.60000  7.0601490E-03  2.2079743E-02  1.1461317E-02
   7.80000  7.4878422E-03  2.4139851E-02  1.2174253E-02
   8.00000  7.9624415E-03  2.6455531E-02  1.2988868E-02
   8.20000  8.4872685E-03  2.9048950E-02  1.3907541E-02
   8.40000  9.0642087E-03  3.1934291E-02  1.4927393E-02
   8.60000  9.6932098E-03  3.5112127E-02  1.6038916E-02
   8.80000  1.0372151E-02  3.8561829E-02  1.7225078E-02
   9.00000  1.1097484E-02  4.2232926E-02  1.8461941E-02
   9.20000  1.1865785E-02  4.6036566E-02  1.9721830E-02
   9.40000  1.2675837E-02  4.9838680E-02  2.0978188E-02
   9.60000  1.3530265E-02  5.3458613E-02  2.2209498E-02
   9.80000  1.4435521E-02  5.6679393E-02  2.3401083E-02
   10.0000  1.5399770E-02  5.9273850E-02  2.4544967E-02
   10.2500  1.6697575E-02  6.1339372E-02  2.5903805E-02
   10.5000  1.8099470E-02  6.1892657E-02  2.7185108E-02
   10.7500  1.9592126E-02  6.0946192E-02  2.8393518E-02
   11.0000  2.1147701E-02  5.8732971E-02  2.9534385E-02
   11.2500  2.2729267E-02  5.5611489E-02  3.0611873E-02
   11.5000  2.4298400E-02  5.1960925E-02  3.1626374E-02
   11.7500  2.5821429E-02  4.8110851E-02  3.2569247E-02
   12.0000  2.7272996E-02  4.4311399E-02  3.3420314E-02
   12.2500  2.8637354E-02  4.0731512E-02  3.4155640E-02
   12.5000  2.9907586E-02  3.7470278E-02  3.4758801E-02
   12.7500  3.1083823E-02  3.4571313E-02  3.5226166E-02
   13.0000  3.2171145E-02  3.2038103E-02  3.5566395E-02
   13.2500  3.3176850E-02  2.9849329E-02  3.5798627E-02
   13.5000  3.4107721E-02  2.7971647E-02  3.5950340E-02
   13.7500  3.4968953E-02  2.6368277E-02  3.6053433E-02
   14.0000  3.5764727E-02  2.5003760E-02  3.6139529E-02
   14.2500  3.6499055E-02  2.3846159E-02  3.6236352E-02
   14.5000  3.7176008E-02  2.2867777E-02  3.6365577E-02
   14.7500  3.7799295E-02  2.2045075E-02  3.6541822E-02
   15.0000  3.8371471E-02  2.1358228E-02  3.6772397E-02
   15.2500  3.8893109E-02  2.0790553E-02  3.7057517E-02
   15.5000  3.9362193E-02  2.0327972E-02  3.7390851E-02
   15.7500  3.9773979E-02  1.9958535E-02  3.7760325E-02
   16.0000  4.0121415E-02  1.9672059E-02  3.8149206E-02
   16.2500  4.0396146E-02  1.9459843E-02  3.8537476E-02
   16.5000  4.0589949E-02  1.9314461E-02  3.8903495E-02
   16.7500  4.0696373E-02  1.9229595E-02  3.9225848E-02
   17.0000  4.0712275E-02  1.9199904E-02  3.9485229E-02
   17.2500  4.0638955E-02  1.9220903E-02  3.9666104E-02
   17.5000  4.0482676E-02  1.9288856E-02  3.9757960E-02
   17.7500  4.0254490E-02  1.9400670E-02  3.9755954E-02
   18.0000  3.9969421E-02  1.9553795E-02  3.9660918E-02
   18.2500  3.9645203E-02  1.9746139E-02  3.9478770E-02
   18.5000  3.9300804E-02  1.9975984E-02  3.9219473E-02
   18.7500  3.8954959E-02  2.0241922E-02  3.8895740E-02
   19.0000  3.8624907E-02  2.0542805E-02  3.8521659E-02
   19.2500  3.8325415E-02  2.0877722E-02  3.8111406E-02
   19.5000  3.8068128E-02  2.1245973E-02  3.7678148E-02
   19.7500  3.7861233E-02  2.1646990E-02  3.7233300E-02
   20.0000  3.7709446E-02  2.2080083E-02  3.6786292E-02
   21.0000  3.7650905E-02  2.4097278E-02  3.5116561E-02
   22.0000  3.8250668E-02  2.6443185E-02  3.3809060E-02
   23.0000  3.8974954E-02  2.8907473E-02  3.2854592E-02
   24.0000  3.9215124E-02  3.1233506E-02  3.2120995E-02
   25.0000  3.8556523E-02  3.3158593E-02  3.1474582E-02
   26.0000  3.6987257E-02  3.4477689E-02  3.0836328E-02
   27.0000  3.4865362E-02  3.5106772E-02  3.0191201E-02
   28.0000  3.2658737E-02  3.5099001E-02  2.9570370E-02
   29.0000  3.0713990E-02  3.4610962E-02  2.9030333E-02
   30.0000  2.9181637E-02  3.3834659E-02  2.8622846E-02
   31.0000  2.8045622E-02  3.2914057E-02  2.8354876E-02
   32.0000  2.7218950E-02  3.1930244E-02  2.8193026E-02
   33.0000  2.6606645E-02  3.0920346E-02  2.8084252E-02
   34.0000  2.6125626E-02  2.9896139E-02  2.7971807E-02
   35.0000  2.5709620E-02  2.8859341E-02  2.7806520E-02
   36.0000  2.5310309E-02  2.7812876E-02  2.7554064E-02
   37.0000  2.4898460E-02  2.6769405E-02  2.7200584E-02
   38.0000  2.4467063E-02  2.5759717E-02  2.6759661E-02
   39.0000  2.4038092E-02  2.4842136E-02  2.6281523E-02
   40.0000  2.3665666E-02  2.4101208E-02  2.5854726E-02
