    Energy   (100,001)      (010,001)      (001,110)   
  -25.0000  1.6899958E-04  1.8578288E-04  1.7245470E-04
  -24.0000  1.7528309E-04  1.9265514E-04  1.7896012E-04
  -23.0000  1.8200071E-04  2.0001397E-04  1.8592365E-04
  -22.0000  1.8919730E-04  2.0791181E-04  1.9339372E-04
  -21.0000  1.9692399E-04  2.1640884E-04  2.0142568E-04
  -20.0000  2.0523932E-04  2.2557442E-04  2.1008310E-04
  -19.0000  2.1421057E-04  2.3548892E-04  2.1943937E-04
  -18.0000  2.2391551E-04  2.4624594E-04  2.2957959E-04
  -17.0000  2.3444447E-04  2.5795518E-04  2.4060306E-04
  -16.0000  2.4590295E-04  2.7074595E-04  2.5262626E-04
  -15.0000  2.5841492E-04  2.8477180E-04  2.6578681E-04
  -14.0000  2.7212702E-04  3.0021633E-04  2.8024839E-04
  -13.0000  2.8721398E-04  3.1730093E-04  2.9620721E-04
  -12.0000  3.0388559E-04  3.3629488E-04  3.1390045E-04
  -11.0000  3.2239595E-04  3.5752892E-04  3.3361761E-04
  -10.0000  3.4305578E-04  3.8141367E-04  3.5571561E-04
  -9.00000  3.6624906E-04  4.0846510E-04  3.8063982E-04
  -8.00000  3.9245602E-04  4.3934025E-04  4.0895317E-04
  -7.00000  4.2228540E-04  4.7488861E-04  4.4137805E-04
  -6.00000  4.5652072E-04  5.1622764E-04  4.7885746E-04
  -5.00000  4.9618857E-04  5.6485689E-04  5.2264734E-04
  -4.00000  5.4266227E-04  6.2283612E-04  5.7446046E-04
  -3.00000  5.9782504E-04  6.9307436E-04  6.3670005E-04
  -2.00000  6.6433879E-04  7.7982126E-04  7.1285845E-04
  -1.00000  7.4611202E-04  8.8955371E-04  8.0824101E-04
   0.00000  8.4917643E-04  1.0327028E-03  9.3139093E-04
   1.00000  9.8350227E-04  1.2273874E-03  1.0972146E-03
   2.00000  1.1673432E-03  1.5087829E-03  1.3349664E-03
   3.00000  1.4402579E-03  1.9586553E-03  1.7138705E-03
   4.00000  1.9194309E-03  2.8394940E-03  2.4606368E-03
   5.00000  3.0841522E-03  5.2975889E-03  4.6027035E-03
   5.20000  3.4375750E-03  6.0673259E-03  5.3101823E-03
   5.40000  3.7991399E-03  6.8353799E-03  6.0426671E-03
   5.60000  4.1671238E-03  7.5777312E-03  6.7662402E-03
   5.80000  4.5519979E-03  8.3008212E-03  7.4596467E-03
   6.00000  4.9639765E-03  9.0206059E-03  8.1037274E-03
   6.20000  5.4073462E-03  9.7541414E-03  8.6848481E-03
   6.40000  5.8814794E-03  1.0519568E-02  9.2058675E-03
   6.60000  6.3853724E-03  1.1337653E-02  9.6915607E-03
   6.80000  6.9218079E-03  1.2232090E-02  1.0183027E-02
   7.00000  7.4986269E-03  1.3228226E-02  1.0726696E-02
   7.20000  8.1275308E-03  1.4350908E-02  1.1365946E-02
   7.40000  8.8221827E-03  1.5622334E-02  1.2137592E-02
   7.60000  9.5967032E-03  1.7060540E-02  1.3070689E-02
   7.80000  1.0464686E-02  1.8678778E-02  1.4184607E-02
   8.00000  1.1438445E-02  2.0485810E-02  1.5485216E-02
   8.20000  1.2528269E-02  2.2486864E-02  1.6960176E-02
   8.40000  1.3741697E-02  2.4684861E-02  1.8576183E-02
   8.60000  1.5082947E-02  2.7081456E-02  2.0281666E-02
   8.80000  1.6552659E-02  2.9677321E-02  2.2016595E-02
   9.00000  1.8147818E-02  3.2471006E-02  2.3726783E-02
   9.20000  1.9861565E-02  3.5455937E-02  2.5376327E-02
   9.40000  2.1682695E-02  3.8614866E-02  2.6952594E-02
   9.60000  2.3594914E-02  4.1911400E-02  2.8462867E-02
   9.80000  2.5575624E-02  4.5279931E-02  2.9924723E-02
   10.0000  2.7593935E-02  4.8617004E-02  3.1352317E-02
   10.2500  3.0105295E-02  5.2520917E-02  3.3085390E-02
   10.5000  3.2504098E-02  5.5799297E-02  3.4723178E-02
   10.7500  3.4668427E-02  5.8092050E-02  3.6203524E-02
   11.0000  3.6483830E-02  5.9121393E-02  3.7464018E-02
   11.2500  3.7871555E-02  5.8782236E-02  3.8456238E-02
   11.5000  3.8807309E-02  5.7180026E-02  3.9152449E-02
   11.7500  3.9322308E-02  5.4589362E-02  3.9548622E-02
   12.0000  3.9490383E-02  5.1361296E-02  3.9662704E-02
   12.2500  3.9407342E-02  4.7833777E-02  3.9529857E-02
   12.5000  3.9170186E-02  4.4276550E-02  3.9197776E-02
   12.7500  3.8863374E-02  4.0873788E-02  3.8722926E-02
   13.0000  3.8553016E-02  3.7732373E-02  3.8166049E-02
   13.2500  3.8285676E-02  3.4901346E-02  3.7585507E-02
   13.5000  3.8089371E-02  3.2392007E-02  3.7030727E-02
   13.7500  3.7976472E-02  3.0193373E-02  3.6539290E-02
   14.0000  3.7947840E-02  2.8282701E-02  3.6137352E-02
   14.2500  3.7996668E-02  2.6632350E-02  3.5841220E-02
   14.5000  3.8111196E-02  2.5213962E-02  3.5658949E-02
   14.7500  3.8276417E-02  2.4000738E-02  3.5591643E-02
   15.0000  3.8475157E-02  2.2968470E-02  3.5634436E-02
   15.2500  3.8688811E-02  2.2095869E-02  3.5777169E-02
   15.5000  3.8897997E-02  2.1364487E-02  3.6004876E-02
   15.7500  3.9083252E-02  2.0758465E-02  3.6298285E-02
   16.0000  3.9225878E-02  2.0264207E-02  3.6634553E-02
   16.2500  3.9308986E-02  1.9870055E-02  3.6988432E-02
   16.5000  3.9318698E-02  1.9565991E-02  3.7333930E-02
   16.7500  3.9245373E-02  1.9343370E-02  3.7646371E-02
   17.0000  3.9084663E-02  1.9194694E-02  3.7904526E-02
   17.2500  3.8838179E-02  1.9113420E-02  3.8092429E-02
   17.5000  3.8513567E-02  1.9093796E-02  3.8200503E-02
   17.7500  3.8123934E-02  1.9130719E-02  3.8225788E-02
   18.0000  3.7686656E-02  1.9219630E-02  3.8171298E-02
   18.2500  3.7221768E-02  1.9356419E-02  3.8044737E-02
   18.5000  3.6750188E-02  1.9537372E-02  3.7856911E-02
   18.7500  3.6292043E-02  1.9759126E-02  3.7620139E-02
   19.0000  3.5865285E-02  2.0018663E-02  3.7346890E-02
   19.2500  3.5484716E-02  2.0313334E-02  3.7048747E-02
   19.5000  3.5161413E-02  2.0640893E-02  3.6735705E-02
   19.7500  3.4902511E-02  2.0999489E-02  3.6415814E-02
   20.0000  3.4711298E-02  2.1387494E-02  3.6095209E-02
   21.0000  3.4583889E-02  2.3193762E-02  3.4883704E-02
   22.0000  3.5155475E-02  2.5317461E-02  3.3852350E-02
   23.0000  3.5740584E-02  2.7657785E-02  3.2935299E-02
   24.0000  3.5628613E-02  3.0045662E-02  3.2008549E-02
   25.0000  3.4514420E-02  3.2211499E-02  3.0984926E-02
   26.0000  3.2675438E-02  3.3920826E-02  2.9848833E-02
   27.0000  3.0666557E-02  3.5032531E-02  2.8666939E-02
   28.0000  2.8891231E-02  3.5527458E-02  2.7555826E-02
   29.0000  2.7475613E-02  3.5496435E-02  2.6622258E-02
   30.0000  2.6387926E-02  3.5080457E-02  2.5919325E-02
   31.0000  2.5558626E-02  3.4413441E-02  2.5438699E-02
   32.0000  2.4920973E-02  3.3594813E-02  2.5129160E-02
   33.0000  2.4414183E-02  3.2687763E-02  2.4920625E-02
   34.0000  2.3984354E-02  3.1729771E-02  2.4741220E-02
   35.0000  2.3588222E-02  3.0745180E-02  2.4526701E-02
   36.0000  2.3197310E-02  2.9755079E-02  2.4227833E-02
   37.0000  2.2800592E-02  2.8783742E-02  2.3820228E-02
   38.0000  2.2405068E-02  2.7863479E-02  2.3316511E-02
   39.0000  2.2035254E-02  2.7041795E-02  2.2776458E-02
   40.0000  2.1728910E-02  2.6385019E-02  2.2299759E-02
