    Energy   (100,001)      (010,001)      (001,110)   
  -25.0000  1.7218268E-04  1.7976220E-04  1.7850498E-04
  -24.0000  1.7865414E-04  1.8680226E-04  1.8506261E-04
  -23.0000  1.8558188E-04  1.9436257E-04  1.9207566E-04
  -22.0000  1.9301438E-04  2.0250117E-04  1.9959184E-04
  -21.0000  2.0100710E-04  2.1128487E-04  2.0766570E-04
  -20.0000  2.0962383E-04  2.2079104E-04  2.1635981E-04
  -19.0000  2.1893826E-04  2.3110967E-04  2.2574632E-04
  -18.0000  2.2903599E-04  2.4234605E-04  2.3590885E-04
  -17.0000  2.4001704E-04  2.5462415E-04  2.4694485E-04
  -16.0000  2.5199894E-04  2.6809084E-04  2.5896852E-04
  -15.0000  2.6512078E-04  2.8292145E-04  2.7211461E-04
  -14.0000  2.7954835E-04  2.9932679E-04  2.8654316E-04
  -13.0000  2.9548079E-04  3.1756261E-04  3.0244576E-04
  -12.0000  3.1315948E-04  3.3794197E-04  3.2005364E-04
  -11.0000  3.3287979E-04  3.6085205E-04  3.3964847E-04
  -10.0000  3.5500703E-04  3.8677717E-04  3.6157689E-04
  -9.00000  3.7999850E-04  4.1633075E-04  3.8627035E-04
  -8.00000  4.0843443E-04  4.5030080E-04  4.1427281E-04
  -7.00000  4.4106233E-04  4.8971589E-04  4.4628014E-04
  -6.00000  4.7886239E-04  5.3594309E-04  4.8319752E-04
  -5.00000  5.2314631E-04  5.9083792E-04  5.2622547E-04
  -4.00000  5.7571210E-04  6.5698112E-04  5.7699308E-04
  -3.00000  6.3909599E-04  7.3806787E-04  6.3777266E-04
  -2.00000  7.1700315E-04  8.3957855E-04  7.1184269E-04
  -1.00000  8.1508903E-04  9.7000514E-04  8.0414031E-04
   0.00000  9.4249142E-04  1.1432712E-03  9.2253112E-04
   1.00000  1.1151607E-03  1.3840213E-03  1.0805616E-03
   2.00000  1.3642396E-03  1.7409928E-03  1.3044145E-03
   3.00000  1.7623937E-03  2.3291978E-03  1.6550938E-03
   4.00000  2.5421947E-03  3.5199743E-03  2.3307900E-03
   5.00000  4.6940471E-03  6.9367116E-03  4.2012044E-03
   5.20000  5.3523564E-03  8.0270230E-03  4.7754219E-03
   5.40000  6.0084699E-03  9.1327703E-03  5.3376520E-03
   5.60000  6.6614320E-03  1.0224465E-02  5.8713605E-03
   5.80000  7.3422768E-03  1.1312606E-02  6.3862461E-03
   6.00000  8.0886242E-03  1.2418961E-02  6.9003032E-03
   6.20000  8.9332915E-03  1.3564801E-02  7.4320737E-03
   6.40000  9.9019315E-03  1.4770636E-02  7.9994991E-03
   6.60000  1.1012757E-02  1.6058977E-02  8.6201233E-03
   6.80000  1.2275356E-02  1.7456765E-02  9.3106827E-03
   7.00000  1.3687301E-02  1.8996481E-02  1.0085713E-02
   7.20000  1.5228095E-02  2.0715623E-02  1.0955379E-02
   7.40000  1.6851585E-02  2.2654759E-02  1.1922831E-02
   7.60000  1.8481714E-02  2.4854997E-02  1.2981708E-02
   7.80000  2.0020410E-02  2.7355852E-02  1.4115793E-02
   8.00000  2.1373843E-02  3.0193166E-02  1.5303746E-02
   8.20000  2.2488800E-02  3.3394723E-02  1.6528883E-02
   8.40000  2.3375700E-02  3.6970698E-02  1.7788072E-02
   8.60000  2.4100456E-02  4.0898146E-02  1.9092490E-02
   8.80000  2.4752805E-02  4.5101937E-02  2.0459668E-02
   9.00000  2.5414521E-02  4.9437186E-02  2.1903145E-02
   9.20000  2.6142832E-02  5.3680705E-02  2.3425823E-02
   9.40000  2.6968340E-02  5.7540974E-02  2.5018439E-02
   9.60000  2.7899213E-02  6.0694616E-02  2.6661188E-02
   9.80000  2.8925843E-02  6.2848484E-02  2.8326323E-02
   10.0000  3.0024380E-02  6.3808987E-02  2.9981135E-02
   10.2500  3.1442887E-02  6.3270970E-02  3.1983858E-02
   10.5000  3.2825357E-02  6.1020657E-02  3.3859010E-02
   10.7500  3.4068653E-02  5.7520262E-02  3.5560679E-02
   11.0000  3.5077212E-02  5.3311243E-02  3.7055766E-02
   11.2500  3.5782705E-02  4.8873613E-02  3.8322764E-02
   11.5000  3.6158896E-02  4.4555542E-02  3.9349884E-02
   11.7500  3.6228024E-02  4.0567276E-02  4.0132605E-02
   12.0000  3.6052584E-02  3.7009205E-02  4.0672527E-02
   12.2500  3.5715793E-02  3.3907835E-02  4.0978207E-02
   12.5000  3.5301939E-02  3.1246590E-02  4.1066247E-02
   12.7500  3.4882782E-02  2.8987509E-02  4.0962584E-02
   13.0000  3.4510852E-02  2.7084742E-02  4.0703935E-02
   13.2500  3.4217973E-02  2.5492544E-02  4.0335653E-02
   13.5000  3.4017665E-02  2.4169271E-02  3.9906056E-02
   13.7500  3.3909887E-02  2.3078373E-02  3.9461276E-02
   14.0000  3.3885844E-02  2.2188070E-02  3.9041600E-02
   14.2500  3.3931594E-02  2.1470862E-02  3.8678647E-02
   14.5000  3.4030401E-02  2.0903135E-02  3.8393530E-02
   14.7500  3.4164188E-02  2.0464794E-02  3.8196246E-02
   15.0000  3.4314443E-02  2.0138897E-02  3.8086156E-02
   15.2500  3.4462849E-02  1.9911278E-02  3.8053292E-02
   15.5000  3.4591869E-02  1.9770172E-02  3.8080224E-02
   15.7500  3.4685450E-02  1.9705851E-02  3.8144373E-02
   16.0000  3.4729921E-02  1.9710283E-02  3.8220647E-02
   16.2500  3.4715040E-02  1.9776813E-02  3.8284222E-02
   16.5000  3.4635000E-02  1.9899873E-02  3.8313166E-02
   16.7500  3.4489157E-02  2.0074704E-02  3.8290552E-02
   17.0000  3.4282249E-02  2.0297121E-02  3.8205728E-02
   17.2500  3.4023991E-02  2.0563304E-02  3.8054612E-02
   17.5000  3.3728069E-02  2.0869639E-02  3.7839054E-02
   17.7500  3.3410736E-02  2.1212606E-02  3.7565544E-02
   18.0000  3.3089227E-02  2.1588720E-02  3.7243623E-02
   18.2500  3.2780285E-02  2.1994508E-02  3.6884322E-02
   18.5000  3.2498950E-02  2.2426528E-02  3.6498872E-02
   18.7500  3.2257728E-02  2.2881401E-02  3.6097769E-02
   19.0000  3.2066141E-02  2.3355888E-02  3.5690179E-02
   19.2500  3.1930594E-02  2.3846973E-02  3.5283618E-02
   19.5000  3.1854483E-02  2.4351965E-02  3.4883816E-02
   19.7500  3.1838412E-02  2.4868513E-02  3.4494745E-02
   20.0000  3.1880392E-02  2.5394391E-02  3.4118859E-02
   21.0000  3.2514668E-02  2.7529232E-02  3.2767576E-02
   22.0000  3.3498432E-02  2.9549937E-02  3.1639871E-02
   23.0000  3.4245362E-02  3.1263190E-02  3.0629414E-02
   24.0000  3.4320121E-02  3.2505010E-02  2.9641109E-02
   25.0000  3.3653045E-02  3.3179944E-02  2.8661197E-02
   26.0000  3.2505329E-02  3.3294035E-02  2.7762012E-02
   27.0000  3.1207464E-02  3.2947583E-02  2.7051986E-02
   28.0000  2.9961896E-02  3.2290519E-02  2.6597647E-02
   29.0000  2.8848243E-02  3.1474166E-02  2.6375811E-02
   30.0000  2.7891497E-02  3.0616295E-02  2.6294000E-02
   31.0000  2.7083115E-02  2.9774113E-02  2.6249212E-02
   32.0000  2.6391685E-02  2.8960598E-02  2.6168665E-02
   33.0000  2.5777155E-02  2.8168143E-02  2.6016672E-02
   34.0000  2.5203658E-02  2.7382131E-02  2.5785860E-02
   35.0000  2.4648180E-02  2.6590019E-02  2.5488825E-02
   36.0000  2.4103640E-02  2.5787553E-02  2.5153826E-02
   37.0000  2.3577581E-02  2.4983003E-02  2.4818963E-02
   38.0000  2.3088190E-02  2.4201233E-02  2.4520093E-02
   39.0000  2.2660410E-02  2.3489025E-02  2.4278619E-02
   40.0000  2.2322322E-02  2.2912835E-02  2.4100513E-02
