    Energy   (100,001)      (010,001)      (001,110)   
  -25.0000  1.6957929E-04  1.8341099E-04  1.7845723E-04
  -24.0000  1.7565661E-04  1.9037627E-04  1.8483355E-04
  -23.0000  1.8214093E-04  1.9784501E-04  1.9164053E-04
  -22.0000  1.8907320E-04  2.0587242E-04  1.9892217E-04
  -21.0000  1.9650002E-04  2.1452194E-04  2.0672861E-04
  -20.0000  2.0447457E-04  2.2386684E-04  2.1511721E-04
  -19.0000  2.1305785E-04  2.3399218E-04  2.2415395E-04
  -18.0000  2.2232011E-04  2.4499729E-04  2.3391505E-04
  -17.0000  2.3234274E-04  2.5699877E-04  2.4448905E-04
  -16.0000  2.4322053E-04  2.7013448E-04  2.5597942E-04
  -15.0000  2.5506453E-04  2.8456848E-04  2.6850783E-04
  -14.0000  2.6800568E-04  3.0049749E-04  2.8221837E-04
  -13.0000  2.8219954E-04  3.1815942E-04  2.9728292E-04
  -12.0000  2.9783234E-04  3.3784449E-04  3.1390829E-04
  -11.0000  3.1512896E-04  3.5991040E-04  3.3234559E-04
  -10.0000  3.3436359E-04  3.8480277E-04  3.5290292E-04
  -9.00000  3.5587421E-04  4.1308367E-04  3.7596265E-04
  -8.00000  3.8008250E-04  4.4547177E-04  4.0200562E-04
  -7.00000  4.0752197E-04  4.8290037E-04  4.3164566E-04
  -6.00000  4.3887848E-04  5.2660305E-04  4.6568004E-04
  -5.00000  4.7505049E-04  5.7824371E-04  5.0516568E-04
  -4.00000  5.1724142E-04  6.4012069E-04  5.5153804E-04
  -3.00000  5.6710715E-04  7.1549939E-04  6.0680496E-04
  -2.00000  6.2700375E-04  8.0918061E-04  6.7387963E-04
  -1.00000  7.0043021E-04  9.2852968E-04  7.5719070E-04
   0.00000  7.9288737E-04  1.0854861E-03  8.6389950E-04
   1.00000  9.1374035E-04  1.3009076E-03  1.0066158E-03
   2.00000  1.0809454E-03  1.6154239E-03  1.2104826E-03
   3.00000  1.3362507E-03  2.1232995E-03  1.5364364E-03
   4.00000  1.8160101E-03  3.1237028E-03  2.1901711E-03
   5.00000  3.1242174E-03  5.9018578E-03  4.1194065E-03
   5.20000  3.5260980E-03  6.7730447E-03  4.7551767E-03
   5.40000  3.9207919E-03  7.6525747E-03  5.4097740E-03
   5.60000  4.2964948E-03  8.5241130E-03  6.0580721E-03
   5.80000  4.6586803E-03  9.4070901E-03  6.6893716E-03
   6.00000  5.0170740E-03  1.0330298E-02  7.2921073E-03
   6.20000  5.3798871E-03  1.1319178E-02  7.8501971E-03
   6.40000  5.7532069E-03  1.2392952E-02  8.3488718E-03
   6.60000  6.1420324E-03  1.3565344E-02  8.7830948E-03
   6.80000  6.5514091E-03  1.4846561E-02  9.1622326E-03
   7.00000  6.9870344E-03  1.6245611E-02  9.5078149E-03
   7.20000  7.4552410E-03  1.7772639E-02  9.8467480E-03
   7.40000  7.9626676E-03  1.9441250E-02  1.0205188E-02
   7.60000  8.5159064E-03  2.1270211E-02  1.0605754E-02
   7.80000  9.1210854E-03  2.3283210E-02  1.1066822E-02
   8.00000  9.7831099E-03  2.5505693E-02  1.1601664E-02
   8.20000  1.0504430E-02  2.7959163E-02  1.2216918E-02
   8.40000  1.1283707E-02  3.0654255E-02  1.2911678E-02
   8.60000  1.2115259E-02  3.3583951E-02  1.3678912E-02
   8.80000  1.2989829E-02  3.6718790E-02  1.4509466E-02
   9.00000  1.3896533E-02  4.0005930E-02  1.5396901E-02
   9.20000  1.4825510E-02  4.3371120E-02  1.6340647E-02
   9.40000  1.5770609E-02  4.6720878E-02  1.7345910E-02
   9.60000  1.6731005E-02  4.9943524E-02  1.8420735E-02
   9.80000  1.7710992E-02  5.2910306E-02  1.9572067E-02
   10.0000  1.8718236E-02  5.5479139E-02  2.0802334E-02
   10.2500  2.0028787E-02  5.7907889E-02  2.2443580E-02
   10.5000  2.1409719E-02  5.9230798E-02  2.4174502E-02
   10.7500  2.2867923E-02  5.9287285E-02  2.5951587E-02
   11.0000  2.4395686E-02  5.8068430E-02  2.7718408E-02
   11.2500  2.5963004E-02  5.5734156E-02  2.9412168E-02
   11.5000  2.7517987E-02  5.2578901E-02  3.0971364E-02
   11.7500  2.8997599E-02  4.8956265E-02  3.2342813E-02
   12.0000  3.0343920E-02  4.5197206E-02  3.3487508E-02
   12.2500  3.1519291E-02  4.1555063E-02  3.4385364E-02
   12.5000  3.2514069E-02  3.8188594E-02  3.5037737E-02
   12.7500  3.3343967E-02  3.5175533E-02  3.5466201E-02
   13.0000  3.4040401E-02  3.2538521E-02  3.5707861E-02
   13.2500  3.4640062E-02  3.0267129E-02  3.5809605E-02
   13.5000  3.5177281E-02  2.8332584E-02  3.5822447E-02
   13.7500  3.5680430E-02  2.6697634E-02  3.5795616E-02
   14.0000  3.6171129E-02  2.5323117E-02  3.5771962E-02
   14.2500  3.6664259E-02  2.4172172E-02  3.5786226E-02
   14.5000  3.7168169E-02  2.3212536E-02  3.5865312E-02
   14.7500  3.7685360E-02  2.2417108E-02  3.6028857E-02
   15.0000  3.8213457E-02  2.1763514E-02  3.6289539E-02
   15.2500  3.8746081E-02  2.1233385E-02  3.6653201E-02
   15.5000  3.9273534E-02  2.0811663E-02  3.7118849E-02
   15.7500  3.9783342E-02  2.0485981E-02  3.7678528E-02
   16.0000  4.0260802E-02  2.0246132E-02  3.8317188E-02
   16.2500  4.0689626E-02  2.0083618E-02  3.9012744E-02
   16.5000  4.1052815E-02  1.9991288E-02  3.9736609E-02
   16.7500  4.1333793E-02  1.9963048E-02  4.0454920E-02
   17.0000  4.1517777E-02  1.9993628E-02  4.1130647E-02
   17.2500  4.1593239E-02  2.0078396E-02  4.1726510E-02
   17.5000  4.1553235E-02  2.0213191E-02  4.2208441E-02
   17.7500  4.1396365E-02  2.0394187E-02  4.2549054E-02
   18.0000  4.1127148E-02  2.0617758E-02  4.2730475E-02
   18.2500  4.0755752E-02  2.0880379E-02  4.2745981E-02
   18.5000  4.0297089E-02  2.1178549E-02  4.2600096E-02
   18.7500  3.9769445E-02  2.1508762E-02  4.2307200E-02
   19.0000  3.9192849E-02  2.1867531E-02  4.1888978E-02
   19.2500  3.8587407E-02  2.2251478E-02  4.1371257E-02
   19.5000  3.7971806E-02  2.2657459E-02  4.0780820E-02
   19.7500  3.7362226E-02  2.3082646E-02  4.0142795E-02
   20.0000  3.6771965E-02  2.3524412E-02  3.9479181E-02
   21.0000  3.4797053E-02  2.5396346E-02  3.6904465E-02
   22.0000  3.3668211E-02  2.7304151E-02  3.4885686E-02
   23.0000  3.3336318E-02  2.9125201E-02  3.3470686E-02
   24.0000  3.3531082E-02  3.0747145E-02  3.2456068E-02
   25.0000  3.3886010E-02  3.2055642E-02  3.1620647E-02
   26.0000  3.4028478E-02  3.2963177E-02  3.0818353E-02
   27.0000  3.3714340E-02  3.3443249E-02  3.0014288E-02
   28.0000  3.2927178E-02  3.3539348E-02  2.9252394E-02
   29.0000  3.1851931E-02  3.3322001E-02  2.8601891E-02
   30.0000  3.0721078E-02  3.2856122E-02  2.8106872E-02
   31.0000  2.9684694E-02  3.2195920E-02  2.7765218E-02
   32.0000  2.8789386E-02  3.1390156E-02  2.7540102E-02
   33.0000  2.8016499E-02  3.0485247E-02  2.7381738E-02
   34.0000  2.7321870E-02  2.9525337E-02  2.7241301E-02
   35.0000  2.6660031E-02  2.8552289E-02  2.7075121E-02
   36.0000  2.5997959E-02  2.7605517E-02  2.6846752E-02
   37.0000  2.5323804E-02  2.6719720E-02  2.6532632E-02
   38.0000  2.4652238E-02  2.5923538E-02  2.6133055E-02
   39.0000  2.4027200E-02  2.5243928E-02  2.5687699E-02
   40.0000  2.3514403E-02  2.4714307E-02  2.5281841E-02
