    Energy   (100,001)      (010,001)      (001,110)   
  -25.0000  1.7204704E-04  1.7841865E-04  1.8620872E-04
  -24.0000  1.7795798E-04  1.8544057E-04  1.9269549E-04
  -23.0000  1.8425130E-04  1.9298235E-04  1.9961639E-04
  -22.0000  1.9096436E-04  2.0110200E-04  2.0701589E-04
  -21.0000  1.9813951E-04  2.0986633E-04  2.1494471E-04
  -20.0000  2.0582493E-04  2.1935265E-04  2.2346097E-04
  -19.0000  2.1407569E-04  2.2965093E-04  2.3263162E-04
  -18.0000  2.2295499E-04  2.4086640E-04  2.4253415E-04
  -17.0000  2.3253575E-04  2.5312297E-04  2.5325878E-04
  -16.0000  2.4290257E-04  2.6656745E-04  2.6491122E-04
  -15.0000  2.5415413E-04  2.8137503E-04  2.7761610E-04
  -14.0000  2.6640628E-04  2.9775643E-04  2.9152151E-04
  -13.0000  2.7979597E-04  3.1596722E-04  3.0680476E-04
  -12.0000  2.9448636E-04  3.3632026E-04  3.2368010E-04
  -11.0000  3.1067342E-04  3.5920250E-04  3.4240896E-04
  -10.0000  3.2859476E-04  3.8509794E-04  3.6331384E-04
  -9.00000  3.4854151E-04  4.1461969E-04  3.8679757E-04
  -8.00000  3.7087467E-04  4.4855544E-04  4.1337038E-04
  -7.00000  3.9604790E-04  4.8793353E-04  4.4368904E-04
  -6.00000  4.2464035E-04  5.3412120E-04  4.7861473E-04
  -5.00000  4.5740509E-04  5.8897504E-04  5.1930143E-04
  -4.00000  4.9534304E-04  6.5507911E-04  5.6733575E-04
  -3.00000  5.3982052E-04  7.3613713E-04  6.2496788E-04
  -2.00000  5.9276604E-04  8.3765028E-04  6.9551321E-04
  -1.00000  6.5702144E-04  9.6816115E-04  7.8409736E-04
   0.00000  7.3702410E-04  1.1417201E-03  8.9915676E-04
   1.00000  8.4029341E-04  1.3833091E-03  1.0558088E-03
   2.00000  9.8124329E-04  1.7426500E-03  1.2846598E-03
   3.00000  1.1936620E-03  2.3380877E-03  1.6606356E-03
   4.00000  1.5903329E-03  3.5553328E-03  2.4373956E-03
   5.00000  2.6748847E-03  7.0977769E-03  4.7608372E-03
   5.20000  2.9978050E-03  8.2413648E-03  5.5020276E-03
   5.40000  3.3040320E-03  9.4102224E-03  6.2418458E-03
   5.60000  3.5846380E-03  1.0574453E-02  6.9625468E-03
   5.80000  3.8463256E-03  1.1744760E-02  7.6849467E-03
   6.00000  4.0983211E-03  1.2941451E-02  8.4431260E-03
   6.20000  4.3476048E-03  1.4179210E-02  9.2659096E-03
   6.40000  4.5996377E-03  1.5463361E-02  1.0165295E-02
   6.60000  4.8602502E-03  1.6790813E-02  1.1129054E-02
   6.80000  5.1367353E-03  1.8154710E-02  1.2118982E-02
   7.00000  5.4377471E-03  1.9553621E-02  1.3079394E-02
   7.20000  5.7724035E-03  2.1003710E-02  1.3958153E-02
   7.40000  6.1492080E-03  2.2547794E-02  1.4731918E-02
   7.60000  6.5751408E-03  2.4253983E-02  1.5418025E-02
   7.80000  7.0549222E-03  2.6203553E-02  1.6062810E-02
   8.00000  7.5902795E-03  2.8475201E-02  1.6714930E-02
   8.20000  8.1791441E-03  3.1132243E-02  1.7400925E-02
   8.40000  8.8150022E-03  3.4213077E-02  1.8113340E-02
   8.60000  9.4870072E-03  3.7721098E-02  1.8812671E-02
   8.80000  1.0181643E-02  4.1611292E-02  1.9440996E-02
   9.00000  1.0886286E-02  4.5775055E-02  1.9943841E-02
   9.20000  1.1593716E-02  5.0029242E-02  2.0293111E-02
   9.40000  1.2305262E-02  5.4117759E-02  2.0500166E-02
   9.60000  1.3030512E-02  5.7733780E-02  2.0611413E-02
   9.80000  1.3783572E-02  6.0565584E-02  2.0689333E-02
   10.0000  1.4577835E-02  6.2357751E-02  2.0790551E-02
   10.2500  1.5640773E-02  6.2932960E-02  2.1004244E-02
   10.5000  1.6782262E-02  6.1710062E-02  2.1337137E-02
   10.7500  1.7989535E-02  5.9035419E-02  2.1781697E-02
   11.0000  1.9240842E-02  5.5417218E-02  2.2318534E-02
   11.2500  2.0510055E-02  5.1358405E-02  2.2929031E-02
   11.5000  2.1769576E-02  4.7250898E-02  2.3598212E-02
   11.7500  2.2993558E-02  4.3347203E-02  2.4313099E-02
   12.0000  2.4162771E-02  3.9780991E-02  2.5060680E-02
   12.2500  2.5268553E-02  3.6603988E-02  2.5827724E-02
   12.5000  2.6311243E-02  3.3819269E-02  2.6600728E-02
   12.7500  2.7295712E-02  3.1404318E-02  2.7366003E-02
   13.0000  2.8230420E-02  2.9324921E-02  2.8111263E-02
   13.2500  2.9127849E-02  2.7543478E-02  2.8827298E-02
   13.5000  3.0002536E-02  2.6023965E-02  2.9509249E-02
   13.7500  3.0867878E-02  2.4734071E-02  3.0157854E-02
   14.0000  3.1733997E-02  2.3645485E-02  3.0779522E-02
   14.2500  3.2606797E-02  2.2733530E-02  3.1384982E-02
   14.5000  3.3487616E-02  2.1976761E-02  3.1987292E-02
   14.7500  3.4373310E-02  2.1356599E-02  3.2599835E-02
   15.0000  3.5256723E-02  2.0856994E-02  3.3234574E-02
   15.2500  3.6127398E-02  2.0464107E-02  3.3900670E-02
   15.5000  3.6972365E-02  2.0166024E-02  3.4603437E-02
   15.7500  3.7776861E-02  1.9952488E-02  3.5343575E-02
   16.0000  3.8524964E-02  1.9814682E-02  3.6116602E-02
   16.2500  3.9200209E-02  1.9745031E-02  3.6912484E-02
   16.5000  3.9786286E-02  1.9737063E-02  3.7715536E-02
   16.7500  4.0267936E-02  1.9785289E-02  3.8504769E-02
   17.0000  4.0632104E-02  1.9885112E-02  3.9254891E-02
   17.2500  4.0869316E-02  2.0032746E-02  3.9938102E-02
   17.5000  4.0975126E-02  2.0225113E-02  4.0526677E-02
   17.7500  4.0951326E-02  2.0459731E-02  4.0996067E-02
   18.0000  4.0806575E-02  2.0734552E-02  4.1327972E-02
   18.2500  4.0556195E-02  2.1047797E-02  4.1512749E-02
   18.5000  4.0221027E-02  2.1397765E-02  4.1550543E-02
   18.7500  3.9825543E-02  2.1782692E-02  4.1450877E-02
   19.0000  3.9395546E-02  2.2200658E-02  4.1230825E-02
   19.2500  3.8955896E-02  2.2649596E-02  4.0912235E-02
   19.5000  3.8528592E-02  2.3127360E-02  4.0518655E-02
   19.7500  3.8131501E-02  2.3631779E-02  4.0072637E-02
   20.0000  3.7777905E-02  2.4160500E-02  3.9594070E-02
   21.0000  3.6936702E-02  2.6447994E-02  3.7650184E-02
   22.0000  3.7028288E-02  2.8825140E-02  3.6011645E-02
   23.0000  3.7678909E-02  3.1058221E-02  3.4693864E-02
   24.0000  3.8298410E-02  3.2896026E-02  3.3545456E-02
   25.0000  3.8341651E-02  3.4104335E-02  3.2466390E-02
   26.0000  3.7564818E-02  3.4554652E-02  3.1448313E-02
   27.0000  3.6114662E-02  3.4287540E-02  3.0542479E-02
   28.0000  3.4348795E-02  3.3486031E-02  2.9807556E-02
   29.0000  3.2599254E-02  3.2380029E-02  2.9273417E-02
   30.0000  3.1067848E-02  3.1167452E-02  2.8930659E-02
   31.0000  2.9826347E-02  2.9982331E-02  2.8737897E-02
   32.0000  2.8851725E-02  2.8881658E-02  2.8638784E-02
   33.0000  2.8084621E-02  2.7872228E-02  2.8582117E-02
   34.0000  2.7467607E-02  2.6939033E-02  2.8531317E-02
   35.0000  2.6955826E-02  2.6060658E-02  2.8463141E-02
   36.0000  2.6515495E-02  2.5219493E-02  2.8363338E-02
   37.0000  2.6120778E-02  2.4409065E-02  2.8223914E-02
   38.0000  2.5755886E-02  2.3640308E-02  2.8044656E-02
   39.0000  2.5423262E-02  2.2948104E-02  2.7840845E-02
   40.0000  2.5147228E-02  2.2389567E-02  2.7651370E-02
