    Energy   (100,001)      (010,001)      (001,110)   
  -25.0000  1.6617799E-04  1.8227423E-04  1.8061904E-04
  -24.0000  1.7210906E-04  1.8923757E-04  1.8705255E-04
  -23.0000  1.7843265E-04  1.9670542E-04  1.9392122E-04
  -22.0000  1.8518765E-04  2.0473313E-04  2.0126969E-04
  -21.0000  1.9241817E-04  2.1338431E-04  2.0914890E-04
  -20.0000  2.0017443E-04  2.2273246E-04  2.1761716E-04
  -19.0000  2.0851391E-04  2.3286288E-04  2.2674160E-04
  -18.0000  2.1750263E-04  2.4387521E-04  2.3659986E-04
  -17.0000  2.2721685E-04  2.5588641E-04  2.4728227E-04
  -16.0000  2.3774513E-04  2.6903477E-04  2.5889451E-04
  -15.0000  2.4919088E-04  2.8348491E-04  2.7156104E-04
  -14.0000  2.6167564E-04  2.9943426E-04  2.8542951E-04
  -13.0000  2.7534327E-04  3.1712158E-04  3.0067645E-04
  -12.0000  2.9036533E-04  3.3683830E-04  3.1751472E-04
  -11.0000  3.0694817E-04  3.5894364E-04  3.3620350E-04
  -10.0000  3.2534231E-04  3.8388540E-04  3.5706177E-04
  -9.00000  3.4585518E-04  4.1222866E-04  3.8048688E-04
  -8.00000  3.6886854E-04  4.4469652E-04  4.0698073E-04
  -7.00000  3.9486306E-04  4.8222891E-04  4.3718740E-04
  -6.00000  4.2445364E-04  5.2606973E-04  4.7194881E-04
  -5.00000  4.5844173E-04  5.7789955E-04  5.1238983E-04
  -4.00000  4.9789552E-04  6.4004481E-04  5.6005323E-04
  -3.00000  5.4427808E-04  7.1582047E-04  6.1712378E-04
  -2.00000  5.9966275E-04  8.1011949E-04  6.8682205E-04
  -1.00000  6.6711940E-04  9.3048973E-04  7.7414733E-04
   0.00000  7.5146789E-04  1.0892608E-03  8.8741260E-04
   1.00000  8.6092331E-04  1.3082094E-03  1.0418265E-03
   2.00000  1.0113059E-03  1.6304367E-03  1.2693810E-03
   3.00000  1.2396736E-03  2.1582519E-03  1.6537370E-03
   4.00000  1.6679559E-03  3.2261529E-03  2.5085755E-03
   5.00000  2.8396761E-03  6.3239972E-03  5.3490181E-03
   5.20000  3.2047115E-03  7.3220244E-03  6.2088820E-03
   5.40000  3.5711721E-03  8.3325516E-03  6.9677279E-03
   5.60000  3.9320406E-03  9.3169190E-03  7.5667976E-03
   5.80000  4.2921035E-03  1.0270323E-02  8.0088418E-03
   6.00000  4.6539720E-03  1.1200393E-02  8.3263321E-03
   6.20000  5.0133484E-03  1.2119699E-02  8.5607247E-03
   6.40000  5.3621533E-03  1.3046515E-02  8.7499554E-03
   6.60000  5.6945006E-03  1.4006178E-02  8.9216509E-03
   6.80000  6.0110174E-03  1.5030655E-02  9.0940932E-03
   7.00000  6.3191923E-03  1.6156137E-02  9.2833681E-03
   7.20000  6.6305294E-03  1.7419660E-02  9.5104068E-03
   7.40000  6.9570094E-03  1.8856315E-02  9.8025210E-03
   7.60000  7.3087884E-03  2.0497919E-02  1.0189528E-02
   7.80000  7.6935242E-03  2.2372751E-02  1.0698194E-02
   8.00000  8.1167127E-03  2.4505061E-02  1.1347732E-02
   8.20000  8.5823091E-03  2.6913069E-02  1.2146569E-02
   8.40000  9.0932598E-03  2.9604755E-02  1.3089544E-02
   8.60000  9.6518605E-03  3.2571431E-02  1.4155624E-02
   8.80000  1.0259937E-02  3.5779799E-02  1.5307759E-02
   9.00000  1.0918861E-02  3.9164247E-02  1.6497200E-02
   9.20000  1.1629443E-02  4.2622270E-02  1.7672986E-02
   9.40000  1.2391780E-02  4.6016312E-02  1.8793725E-02
   9.60000  1.3204939E-02  4.9184250E-02  1.9836718E-02
   9.80000  1.4066248E-02  5.1957953E-02  2.0800642E-02
   10.0000  1.4970498E-02  5.4186489E-02  2.1700811E-02
   10.2500  1.6148698E-02  5.6040535E-02  2.2770805E-02
   10.5000  1.7360783E-02  5.6775985E-02  2.3816080E-02
   10.7500  1.8584764E-02  5.6437129E-02  2.4860843E-02
   11.0000  1.9801879E-02  5.5176172E-02  2.5914985E-02
   11.2500  2.0999904E-02  5.3199679E-02  2.6980397E-02
   11.5000  2.2172611E-02  5.0724800E-02  2.8053571E-02
   11.7500  2.3316976E-02  4.7954435E-02  2.9125260E-02
   12.0000  2.4432004E-02  4.5062491E-02  3.0182654E-02
   12.2500  2.5518816E-02  4.2186102E-02  3.1212580E-02
   12.5000  2.6580105E-02  3.9425023E-02  3.2203634E-02
   12.7500  2.7618994E-02  3.6845648E-02  3.3147447E-02
   13.0000  2.8637906E-02  3.4486706E-02  3.4039343E-02
   13.2500  2.9637872E-02  3.2365279E-02  3.4878506E-02
   13.5000  3.0618919E-02  3.0482502E-02  3.5667317E-02
   13.7500  3.1581012E-02  2.8828723E-02  3.6410098E-02
   14.0000  3.2524678E-02  2.7387922E-02  3.7111804E-02
   14.2500  3.3451105E-02  2.6141158E-02  3.7776899E-02
   14.5000  3.4361845E-02  2.5068928E-02  3.8408469E-02
   14.7500  3.5258276E-02  2.4152603E-02  3.9007636E-02
   15.0000  3.6141003E-02  2.3375162E-02  3.9573324E-02
   15.2500  3.7009372E-02  2.2721475E-02  4.0102341E-02
   15.5000  3.7861205E-02  2.2178316E-02  4.0589709E-02
   15.7500  3.8692778E-02  2.1734241E-02  4.1029116E-02
   16.0000  3.9499028E-02  2.1379405E-02  4.1413390E-02
   16.2500  4.0273883E-02  2.1105371E-02  4.1734968E-02
   16.5000  4.1010664E-02  2.0904927E-02  4.1986375E-02
   16.7500  4.1702478E-02  2.0771913E-02  4.2160770E-02
   17.0000  4.2342589E-02  2.0701062E-02  4.2252569E-02
   17.2500  4.2924777E-02  2.0687857E-02  4.2258102E-02
   17.5000  4.3443694E-02  2.0728384E-02  4.2176212E-02
   17.7500  4.3895221E-02  2.0819205E-02  4.2008669E-02
   18.0000  4.4276785E-02  2.0957243E-02  4.1760303E-02
   18.2500  4.4587601E-02  2.1139678E-02  4.1438793E-02
   18.5000  4.4828774E-02  2.1363877E-02  4.1054155E-02
   18.7500  4.5003235E-02  2.1627345E-02  4.0617982E-02
   19.0000  4.5115486E-02  2.1927717E-02  4.0142566E-02
   19.2500  4.5171178E-02  2.2262784E-02  3.9639982E-02
   19.5000  4.5176585E-02  2.2630536E-02  3.9121270E-02
   19.7500  4.5138052E-02  2.3029151E-02  3.8595853E-02
   20.0000  4.5061562E-02  2.3456788E-02  3.8071404E-02
   21.0000  4.4471320E-02  2.5402827E-02  3.6098017E-02
   22.0000  4.3518219E-02  2.7570542E-02  3.4463030E-02
   23.0000  4.2133242E-02  2.9737341E-02  3.3149736E-02
   24.0000  4.0254733E-02  3.1650659E-02  3.2057043E-02
   25.0000  3.7992511E-02  3.3079936E-02  3.1096763E-02
   26.0000  3.5565803E-02  3.3892111E-02  3.0217744E-02
   27.0000  3.3187123E-02  3.4091892E-02  2.9408020E-02
   28.0000  3.1024584E-02  3.3805625E-02  2.8694268E-02
   29.0000  2.9196729E-02  3.3214987E-02  2.8122229E-02
   30.0000  2.7735549E-02  3.2468314E-02  2.7712511E-02
   31.0000  2.6614313E-02  3.1659011E-02  2.7452793E-02
   32.0000  2.5777584E-02  3.0836306E-02  2.7308115E-02
   33.0000  2.5154462E-02  3.0016683E-02  2.7231907E-02
   34.0000  2.4671319E-02  2.9196194E-02  2.7176008E-02
   35.0000  2.4262639E-02  2.8363213E-02  2.7096993E-02
   36.0000  2.3878959E-02  2.7510328E-02  2.6960063E-02
   37.0000  2.3492173E-02  2.6643762E-02  2.6743416E-02
   38.0000  2.3098083E-02  2.5790304E-02  2.6445967E-02
   39.0000  2.2717388E-02  2.5003681E-02  2.6099695E-02
   40.0000  2.2392759E-02  2.4362754E-02  2.5776755E-02
