    Energy   (100,001)      (010,001)      (001,110)   
  -25.0000  1.6724789E-04  1.7649029E-04  1.8308902E-04
  -24.0000  1.7315005E-04  1.8340936E-04  1.8947625E-04
  -23.0000  1.7943902E-04  1.9083764E-04  1.9628822E-04
  -22.0000  1.8615277E-04  1.9883157E-04  2.0356793E-04
  -21.0000  1.9333431E-04  2.0745607E-04  2.1136429E-04
  -20.0000  2.0103260E-04  2.1678618E-04  2.1973327E-04
  -19.0000  2.0930354E-04  2.2690914E-04  2.2873916E-04
  -18.0000  2.1821132E-04  2.3792686E-04  2.3845621E-04
  -17.0000  2.2782993E-04  2.4995916E-04  2.4897063E-04
  -16.0000  2.3824514E-04  2.6314781E-04  2.6038310E-04
  -15.0000  2.4955696E-04  2.7766170E-04  2.7281198E-04
  -14.0000  2.6188270E-04  2.9370363E-04  2.8639736E-04
  -13.0000  2.7536089E-04  3.1151904E-04  3.0130639E-04
  -12.0000  2.9015636E-04  3.3140777E-04  3.1774018E-04
  -11.0000  3.0646679E-04  3.5373978E-04  3.3594299E-04
  -10.0000  3.2453147E-04  3.7897653E-04  3.5621473E-04
  -9.00000  3.4464300E-04  4.0770083E-04  3.7892804E-04
  -8.00000  3.6716334E-04  4.4065889E-04  4.0455235E-04
  -7.00000  3.9254609E-04  4.7882107E-04  4.3368843E-04
  -6.00000  4.2136852E-04  5.2347177E-04  4.6711945E-04
  -5.00000  4.5437846E-04  5.7634609E-04  5.0588890E-04
  -4.00000  4.9256562E-04  6.3984445E-04  5.5142414E-04
  -3.00000  5.3727452E-04  7.1738302E-04  6.0574168E-04
  -2.00000  5.9039253E-04  8.1399324E-04  6.7180820E-04
  -1.00000  6.5468436E-04  9.3740949E-04  7.5422321E-04
   0.00000  7.3443999E-04  1.1001982E-03  8.6063458E-04
   1.00000  8.3688592E-04  1.3243750E-03  1.0050578E-03
   2.00000  9.7581094E-04  1.6530003E-03  1.2170935E-03
   3.00000  1.1834848E-03  2.1866442E-03  1.5746556E-03
   4.00000  1.5678913E-03  3.2482356E-03  2.3721271E-03
   5.00000  2.6150953E-03  6.2372462E-03  5.0487846E-03
   5.20000  2.9280272E-03  7.1674228E-03  5.8703199E-03
   5.40000  3.2240729E-03  8.0909021E-03  6.5990127E-03
   5.60000  3.4923740E-03  8.9849281E-03  7.1681270E-03
   5.80000  3.7382158E-03  9.8695213E-03  7.5663634E-03
   6.00000  3.9712094E-03  1.0778463E-02  7.8144851E-03
   6.20000  4.2000032E-03  1.1744410E-02  7.9511576E-03
   6.40000  4.4315718E-03  1.2794242E-02  8.0235326E-03
   6.60000  4.6717641E-03  1.3947642E-02  8.0778377E-03
   6.80000  4.9257180E-03  1.5216881E-02  8.1514847E-03
   7.00000  5.1977609E-03  1.6608682E-02  8.2690511E-03
   7.20000  5.4909937E-03  1.8129817E-02  8.4431188E-03
   7.40000  5.8071219E-03  1.9796362E-02  8.6795399E-03
   7.60000  6.1469955E-03  2.1641888E-02  8.9843205E-03
   7.80000  6.5116875E-03  2.3717925E-02  9.3676178E-03
   8.00000  6.9033913E-03  2.6085459E-02  9.8428208E-03
   8.20000  7.3256152E-03  2.8802693E-02  1.0422611E-02
   8.40000  7.7828049E-03  3.1913886E-02  1.1114992E-02
   8.60000  8.2798278E-03  3.5439248E-02  1.1920726E-02
   8.80000  8.8216011E-03  3.9363091E-02  1.2832141E-02
   9.00000  9.4129036E-03  4.3618751E-02  1.3833006E-02
   9.20000  1.0058299E-02  4.8072776E-02  1.4899576E-02
   9.40000  1.0762106E-02  5.2515510E-02  1.6002987E-02
   9.60000  1.1528386E-02  5.6668210E-02  1.7112821E-02
   9.80000  1.2360950E-02  6.0214609E-02  1.8201246E-02
   10.0000  1.3263289E-02  6.2855244E-02  1.9246899E-02
   10.2500  1.4493596E-02  6.4557424E-02  2.0476390E-02
   10.5000  1.5840239E-02  6.4359208E-02  2.1620244E-02
   10.7500  1.7301083E-02  6.2444387E-02  2.2700239E-02
   11.0000  1.8865430E-02  5.9236224E-02  2.3750339E-02
   11.2500  2.0510583E-02  5.5242806E-02  2.4803337E-02
   11.5000  2.2200825E-02  5.0925119E-02  2.5880586E-02
   11.7500  2.3890244E-02  4.6630113E-02  2.6987113E-02
   12.0000  2.5529729E-02  4.2582278E-02  2.8112204E-02
   12.2500  2.7076162E-02  3.8905000E-02  2.9235944E-02
   12.5000  2.8500078E-02  3.5648787E-02  3.0338451E-02
   12.7500  2.9789832E-02  3.2817005E-02  3.1405670E-02
   13.0000  3.0951926E-02  3.0386024E-02  3.2430552E-02
   13.2500  3.2007308E-02  2.8318961E-02  3.3411919E-02
   13.5000  3.2985017E-02  2.6574066E-02  3.4352494E-02
   13.7500  3.3915331E-02  2.5109584E-02  3.5256788E-02
   14.0000  3.4823743E-02  2.3886621E-02  3.6129498E-02
   14.2500  3.5727006E-02  2.2870680E-02  3.6974596E-02
   14.5000  3.6632104E-02  2.2032072E-02  3.7794759E-02
   14.7500  3.7537234E-02  2.1345661E-02  3.8590798E-02
   15.0000  3.8433457E-02  2.0790416E-02  3.9361054E-02
   15.2500  3.9306492E-02  2.0348928E-02  4.0100860E-02
   15.5000  4.0138544E-02  2.0006922E-02  4.0802200E-02
   15.7500  4.0910191E-02  1.9752778E-02  4.1453720E-02
   16.0000  4.1602304E-02  1.9577067E-02  4.2041200E-02
   16.2500  4.2197871E-02  1.9472119E-02  4.2548549E-02
   16.5000  4.2683598E-02  1.9431649E-02  4.2959284E-02
   16.7500  4.3051094E-02  1.9450440E-02  4.3258300E-02
   17.0000  4.3297530E-02  1.9524088E-02  4.3433691E-02
   17.2500  4.3425713E-02  1.9648799E-02  4.3478306E-02
   17.5000  4.3443603E-02  1.9821236E-02  4.3390764E-02
   17.7500  4.3363411E-02  2.0038396E-02  4.3175779E-02
   18.0000  4.3200401E-02  2.0297514E-02  4.2843753E-02
   18.2500  4.2971598E-02  2.0595993E-02  4.2409763E-02
   18.5000  4.2694528E-02  2.0931344E-02  4.1892158E-02
   18.7500  4.2386099E-02  2.1301156E-02  4.1310979E-02
   19.0000  4.2061699E-02  2.1703096E-02  4.0686422E-02
   19.2500  4.1734514E-02  2.2134944E-02  4.0037482E-02
   19.5000  4.1415091E-02  2.2594646E-02  3.9380858E-02
   19.7500  4.1111144E-02  2.3080299E-02  3.8730277E-02
   20.0000  4.0827674E-02  2.3589913E-02  3.8096433E-02
   21.0000  3.9931557E-02  2.5804946E-02  3.5872404E-02
   22.0000  3.9346243E-02  2.8120504E-02  3.4283195E-02
   23.0000  3.8830625E-02  3.0289752E-02  3.3220250E-02
   24.0000  3.8135567E-02  3.2067849E-02  3.2458635E-02
   25.0000  3.7107064E-02  3.3273403E-02  3.1809707E-02
   26.0000  3.5716714E-02  3.3844200E-02  3.1166046E-02
   27.0000  3.4085993E-02  3.3842791E-02  3.0508567E-02
   28.0000  3.2449453E-02  3.3412630E-02  2.9888105E-02
   29.0000  3.0999860E-02  3.2706857E-02  2.9366228E-02
   30.0000  2.9833113E-02  3.1852966E-02  2.8980401E-02
   31.0000  2.8956216E-02  3.0940446E-02  2.8729890E-02
   32.0000  2.8314086E-02  3.0016620E-02  2.8580770E-02
   33.0000  2.7824046E-02  2.9092816E-02  2.8486164E-02
   34.0000  2.7398981E-02  2.8157617E-02  2.8402434E-02
   35.0000  2.6958029E-02  2.7193757E-02  2.8294914E-02
   36.0000  2.6434860E-02  2.6193431E-02  2.8138074E-02
   37.0000  2.5793178E-02  2.5169404E-02  2.7915830E-02
   38.0000  2.5048097E-02  2.4161389E-02  2.7626642E-02
   39.0000  2.4279090E-02  2.3238984E-02  2.7296522E-02
   40.0000  2.3614149E-02  2.2493534E-02  2.6989950E-02
