    Energy   (100,001)      (010,001)      (001,110)   
  -25.0000  1.7080111E-04  1.7521479E-04  1.7528369E-04
  -24.0000  1.7711335E-04  1.8207651E-04  1.8185439E-04
  -23.0000  1.8386164E-04  1.8944255E-04  1.8888860E-04
  -22.0000  1.9109117E-04  1.9736874E-04  1.9643558E-04
  -21.0000  1.9885350E-04  2.0591928E-04  2.0455168E-04
  -20.0000  2.0720769E-04  2.1516839E-04  2.1330171E-04
  -19.0000  2.1622171E-04  2.2520232E-04  2.2276052E-04
  -18.0000  2.2597416E-04  2.3612184E-04  2.3301504E-04
  -17.0000  2.3655644E-04  2.4804538E-04  2.4416678E-04
  -16.0000  2.4807542E-04  2.6111308E-04  2.5633505E-04
  -15.0000  2.6065682E-04  2.7549185E-04  2.6966092E-04
  -14.0000  2.7444958E-04  2.9138207E-04  2.8431246E-04
  -13.0000  2.8963142E-04  3.0902626E-04  3.0049148E-04
  -12.0000  3.0641612E-04  3.2872064E-04  3.1844236E-04
  -11.0000  3.2506314E-04  3.5083061E-04  3.3846392E-04
  -10.0000  3.4589047E-04  3.7581198E-04  3.6092540E-04
  -9.00000  3.6929215E-04  4.0424026E-04  3.8628849E-04
  -8.00000  3.9576251E-04  4.3685222E-04  4.1513822E-04
  -7.00000  4.2593044E-04  4.7460579E-04  4.4822718E-04
  -6.00000  4.6060895E-04  5.1876862E-04  4.8654051E-04
  -5.00000  5.0086880E-04  5.7105261E-04  5.3139390E-04
  -4.00000  5.4815137E-04  6.3382494E-04  5.8458658E-04
  -3.00000  6.0444861E-04  7.1045196E-04  6.4864947E-04
  -2.00000  6.7260317E-04  8.0588562E-04  7.2726742E-04
  -1.00000  7.5683956E-04  9.2772259E-04  8.2604088E-04
   0.00000  8.6377747E-04  1.0882619E-03  9.5396656E-04
   1.00000  1.0045722E-03  1.3089160E-03  1.1266142E-03
   2.00000  1.2001353E-03  1.6310844E-03  1.3739460E-03
   3.00000  1.4969624E-03  2.1493806E-03  1.7639344E-03
   4.00000  2.0350992E-03  3.1557965E-03  2.5016229E-03
   5.00000  3.4050999E-03  5.8801892E-03  4.4487680E-03
   5.20000  3.8508481E-03  6.7480533E-03  5.1078763E-03
   5.40000  4.3303504E-03  7.6478668E-03  5.8407096E-03
   5.60000  4.8383032E-03  8.5666879E-03  6.6446427E-03
   5.80000  5.3783362E-03  9.5218831E-03  7.5255225E-03
   6.00000  5.9525134E-03  1.0539219E-02  8.4844085E-03
   6.20000  6.5557363E-03  1.1642520E-02  9.5125306E-03
   6.40000  7.1759681E-03  1.2851504E-02  1.0596380E-02
   6.60000  7.7997868E-03  1.4182195E-02  1.1729565E-02
   6.80000  8.4204235E-03  1.5648033E-02  1.2921837E-02
   7.00000  9.0422045E-03  1.7261336E-02  1.4193701E-02
   7.20000  9.6775202E-03  1.9034913E-02  1.5554690E-02
   7.40000  1.0339088E-02  2.0983439E-02  1.6977261E-02
   7.60000  1.1033896E-02  2.3124391E-02  1.8384384E-02
   7.80000  1.1763390E-02  2.5478638E-02  1.9665136E-02
   8.00000  1.2530009E-02  2.8069965E-02  2.0719077E-02
   8.20000  1.3345383E-02  3.0921603E-02  2.1507093E-02
   8.40000  1.4233560E-02  3.4048038E-02  2.2073503E-02
   8.60000  1.5226521E-02  3.7442118E-02  2.2524156E-02
   8.80000  1.6355423E-02  4.1059385E-02  2.2980480E-02
   9.00000  1.7642875E-02  4.4803040E-02  2.3540551E-02
   9.20000  1.9098651E-02  4.8514866E-02  2.4261579E-02
   9.40000  2.0718136E-02  5.1979604E-02  2.5159980E-02
   9.60000  2.2482268E-02  5.4949532E-02  2.6220088E-02
   9.80000  2.4358733E-02  5.7189327E-02  2.7405557E-02
   10.0000  2.6303529E-02  5.8529556E-02  2.8669764E-02
   10.2500  2.8745854E-02  5.8855490E-02  3.0283635E-02
   10.5000  3.1081938E-02  5.7812975E-02  3.1845250E-02
   10.7500  3.3180641E-02  5.5725523E-02  3.3277583E-02
   11.0000  3.4929147E-02  5.2978033E-02  3.4532781E-02
   11.2500  3.6255469E-02  4.9906593E-02  3.5588064E-02
   11.5000  3.7144334E-02  4.6752033E-02  3.6437178E-02
   11.7500  3.7638414E-02  4.3663665E-02  3.7084922E-02
   12.0000  3.7823439E-02  4.0724823E-02  3.7545528E-02
   12.2500  3.7804866E-02  3.7979679E-02  3.7842157E-02
   12.5000  3.7685845E-02  3.5450959E-02  3.8004990E-02
   12.7500  3.7553697E-02  3.3149172E-02  3.8067168E-02
   13.0000  3.7475032E-02  3.1077213E-02  3.8060511E-02
   13.2500  3.7494777E-02  2.9232404E-02  3.8013572E-02
   13.5000  3.7637399E-02  2.7607447E-02  3.7951285E-02
   13.7500  3.7910269E-02  2.6191269E-02  3.7894462E-02
   14.0000  3.8307560E-02  2.4970036E-02  3.7859108E-02
   14.2500  3.8813283E-02  2.3928247E-02  3.7856005E-02
   14.5000  3.9403285E-02  2.3049750E-02  3.7890652E-02
   14.7500  4.0046635E-02  2.2318585E-02  3.7963509E-02
   15.0000  4.0706887E-02  2.1719617E-02  3.8070480E-02
   15.2500  4.1343640E-02  2.1238953E-02  3.8203609E-02
   15.5000  4.1914678E-02  2.0864173E-02  3.8351975E-02
   15.7500  4.2378767E-02  2.0584399E-02  3.8502725E-02
   16.0000  4.2698939E-02  2.0390215E-02  3.8642184E-02
   16.2500  4.2845896E-02  2.0273500E-02  3.8756977E-02
   16.5000  4.2800997E-02  2.0227204E-02  3.8835045E-02
   16.7500  4.2558218E-02  2.0245111E-02  3.8866491E-02
   17.0000  4.2124640E-02  2.0321632E-02  3.8844167E-02
   17.2500  4.1519322E-02  2.0451635E-02  3.8763955E-02
   17.5000  4.0770784E-02  2.0630328E-02  3.8624754E-02
   17.7500  3.9913650E-02  2.0853186E-02  3.8428191E-02
   18.0000  3.8985070E-02  2.1115927E-02  3.8178171E-02
   18.2500  3.8021501E-02  2.1414503E-02  3.7880314E-02
   18.5000  3.7056215E-02  2.1745112E-02  3.7541383E-02
   18.7500  3.6117664E-02  2.2104221E-02  3.7168736E-02
   19.0000  3.5228643E-02  2.2488614E-02  3.6769832E-02
   19.2500  3.4406085E-02  2.2895450E-02  3.6351789E-02
   19.5000  3.3661288E-02  2.3322331E-02  3.5921006E-02
   19.7500  3.3000442E-02  2.3767305E-02  3.5482917E-02
   20.0000  3.2425451E-02  2.4228660E-02  3.5042015E-02
   21.0000  3.0935449E-02  2.6192796E-02  3.3324429E-02
   22.0000  3.0485615E-02  2.8230139E-02  3.1783465E-02
   23.0000  3.0623042E-02  3.0187232E-02  3.0426572E-02
   24.0000  3.0939991E-02  3.1878003E-02  2.9212895E-02
   25.0000  3.1178207E-02  3.3106753E-02  2.8132380E-02
   26.0000  3.1194848E-02  3.3743757E-02  2.7213779E-02
   27.0000  3.0871362E-02  3.3799644E-02  2.6480316E-02
   28.0000  3.0161391E-02  3.3390177E-02  2.5934102E-02
   29.0000  2.9168022E-02  3.2668091E-02  2.5557808E-02
   30.0000  2.8082621E-02  3.1772234E-02  2.5318410E-02
   31.0000  2.7062659E-02  3.0801498E-02  2.5172244E-02
   32.0000  2.6179538E-02  2.9811659E-02  2.5071942E-02
   33.0000  2.5437645E-02  2.8824473E-02  2.4974170E-02
   34.0000  2.4811070E-02  2.7840526E-02  2.4845032E-02
   35.0000  2.4269244E-02  2.6851775E-02  2.4661910E-02
   36.0000  2.3789083E-02  2.5852870E-02  2.4413599E-02
   37.0000  2.3358506E-02  2.4851723E-02  2.4100914E-02
   38.0000  2.2975700E-02  2.3878997E-02  2.3739947E-02
   39.0000  2.2647738E-02  2.2994718E-02  2.3368773E-02
   40.0000  2.2388871E-02  2.2281742E-02  2.3047578E-02
