    Energy   (100,001)      (010,001)      (001,110)   
  -25.0000  1.6950746E-04  1.8475817E-04  1.8184161E-04
  -24.0000  1.7552273E-04  1.9183214E-04  1.8824442E-04
  -23.0000  1.8193573E-04  1.9942011E-04  1.9507457E-04
  -22.0000  1.8878590E-04  2.0757864E-04  2.0237527E-04
  -21.0000  1.9611802E-04  2.1637277E-04  2.1019565E-04
  -20.0000  2.0398310E-04  2.2587764E-04  2.1859188E-04
  -19.0000  2.1243947E-04  2.3618053E-04  2.2762843E-04
  -18.0000  2.2155424E-04  2.4738338E-04  2.3737965E-04
  -17.0000  2.3140488E-04  2.5960595E-04  2.4793177E-04
  -16.0000  2.4208141E-04  2.7298986E-04  2.5938535E-04
  -15.0000  2.5368898E-04  2.8770376E-04  2.7185837E-04
  -14.0000  2.6635119E-04  3.0394998E-04  2.8549020E-04
  -13.0000  2.8021437E-04  3.2197336E-04  3.0044669E-04
  -12.0000  2.9545305E-04  3.4207279E-04  3.1692675E-04
  -11.0000  3.1227717E-04  3.6461683E-04  3.3517115E-04
  -10.0000  3.3094160E-04  3.9006506E-04  3.5547414E-04
  -9.00000  3.5175897E-04  4.1899759E-04  3.7819943E-04
  -8.00000  3.7511735E-04  4.5215686E-04  4.0380223E-04
  -7.00000  4.0150492E-04  4.9050806E-04  4.3286048E-04
  -6.00000  4.3154527E-04  5.3532843E-04  4.6612023E-04
  -5.00000  4.6604954E-04  5.8834327E-04  5.0456341E-04
  -4.00000  5.0609552E-04  6.5193985E-04  5.4951267E-04
  -3.00000  5.5315287E-04  7.2951734E-04  6.0280037E-04
  -2.00000  6.0929094E-04  8.2608729E-04  6.6705563E-04
  -1.00000  6.7754550E-04  9.4936768E-04  7.4622466E-04
   0.00000  7.6261970E-04  1.1119369E-03  8.4659837E-04
   1.00000  8.7237703E-04  1.3359428E-03  9.7909147E-04
   2.00000  1.0215488E-03  1.6650583E-03  1.1651980E-03
   3.00000  1.2433353E-03  2.2025909E-03  1.4568780E-03
   4.00000  1.6416750E-03  3.2862620E-03  2.0335145E-03
   5.00000  2.6668358E-03  6.4090701E-03  3.7162640E-03
   5.20000  2.9877487E-03  7.3908128E-03  4.2187989E-03
   5.40000  3.3160923E-03  8.3615219E-03  4.6784452E-03
   5.60000  3.6443148E-03  9.2851848E-03  5.0672504E-03
   5.80000  3.9750484E-03  1.0169805E-02  5.3877352E-03
   6.00000  4.3127086E-03  1.1042526E-02  5.6603877E-03
   6.20000  4.6599474E-03  1.1936823E-02  5.9175403E-03
   6.40000  5.0175609E-03  1.2886846E-02  6.1974125E-03
   6.60000  5.3854591E-03  1.3923773E-02  6.5368068E-03
   6.80000  5.7637264E-03  1.5074095E-02  6.9655459E-03
   7.00000  6.1534648E-03  1.6359825E-02  7.5034970E-03
   7.20000  6.5572443E-03  1.7799435E-02  8.1583424E-03
   7.40000  6.9791307E-03  1.9408588E-02  8.9224749E-03
   7.60000  7.4244107E-03  2.1200803E-02  9.7697262E-03
   7.80000  7.8991662E-03  2.3188869E-02  1.0655492E-02
   8.00000  8.4098590E-03  2.5387602E-02  1.1524980E-02
   8.20000  8.9629913E-03  2.7816806E-02  1.2330337E-02
   8.40000  9.5647477E-03  3.0501348E-02  1.3049030E-02
   8.60000  1.0220494E-02  3.3465691E-02  1.3691811E-02
   8.80000  1.0934162E-02  3.6723379E-02  1.4295838E-02
   9.00000  1.1707737E-02  4.0264221E-02  1.4909750E-02
   9.20000  1.2541136E-02  4.4041306E-02  1.5580522E-02
   9.40000  1.3432581E-02  4.7959329E-02  1.6346102E-02
   9.60000  1.4379351E-02  5.1866637E-02  1.7231949E-02
   9.80000  1.5378704E-02  5.5556109E-02  1.8249616E-02
   10.0000  1.6428437E-02  5.8780847E-02  1.9397197E-02
   10.2500  1.7807877E-02  6.1772696E-02  2.0991650E-02
   10.5000  1.9253888E-02  6.3240379E-02  2.2715719E-02
   10.7500  2.0748993E-02  6.3011830E-02  2.4503534E-02
   11.0000  2.2262899E-02  6.1207702E-02  2.6287383E-02
   11.2500  2.3752951E-02  5.8187821E-02  2.8009899E-02
   11.5000  2.5171582E-02  5.4421040E-02  2.9631037E-02
   11.7500  2.6477873E-02  5.0352512E-02  3.1128626E-02
   12.0000  2.7647752E-02  4.6321691E-02  3.2494073E-02
   12.2500  2.8678420E-02  4.2541529E-02  3.3727668E-02
   12.5000  2.9585233E-02  3.9118995E-02  3.4834712E-02
   12.7500  3.0393540E-02  3.6089256E-02  3.5821484E-02
   13.0000  3.1130902E-02  3.3445377E-02  3.6693251E-02
   13.2500  3.1822745E-02  3.1158530E-02  3.7455083E-02
   13.5000  3.2490705E-02  2.9190571E-02  3.8114230E-02
   13.7500  3.3152028E-02  2.7501566E-02  3.8681894E-02
   14.0000  3.3819115E-02  2.6053995E-02  3.9172672E-02
   14.2500  3.4499236E-02  2.4814718E-02  3.9602462E-02
   14.5000  3.5194581E-02  2.3755520E-02  3.9986435E-02
   14.7500  3.5902625E-02  2.2852854E-02  4.0337562E-02
   15.0000  3.6616695E-02  2.2087245E-02  4.0665602E-02
   15.2500  3.7326733E-02  2.1442588E-02  4.0976316E-02
   15.5000  3.8020216E-02  2.0905499E-02  4.1270861E-02
   15.7500  3.8683211E-02  2.0464779E-02  4.1545439E-02
   16.0000  3.9301489E-02  2.0110998E-02  4.1791419E-02
   16.2500  3.9861629E-02  1.9836204E-02  4.1996143E-02
   16.5000  4.0352005E-02  1.9633698E-02  4.2144478E-02
   16.7500  4.0763598E-02  1.9497848E-02  4.2220970E-02
   17.0000  4.1090609E-02  1.9423899E-02  4.2212229E-02
   17.2500  4.1330839E-02  1.9407786E-02  4.2109084E-02
   17.5000  4.1485851E-02  1.9445957E-02  4.1908071E-02
   17.7500  4.1560899E-02  1.9535209E-02  4.1612015E-02
   18.0000  4.1564609E-02  1.9672575E-02  4.1229652E-02
   18.2500  4.1508426E-02  1.9855245E-02  4.0774491E-02
   18.5000  4.1405860E-02  2.0080543E-02  4.0263212E-02
   18.7500  4.1271590E-02  2.0345936E-02  3.9713914E-02
   19.0000  4.1120497E-02  2.0649085E-02  3.9144492E-02
   19.2500  4.0966723E-02  2.0987917E-02  3.8571291E-02
   19.5000  4.0822820E-02  2.1360704E-02  3.8008120E-02
   19.7500  4.0699076E-02  2.1766070E-02  3.7465709E-02
   20.0000  4.0603117E-02  2.2202801E-02  3.6951718E-02
   21.0000  4.0562381E-02  2.4227308E-02  3.5260959E-02
   22.0000  4.0975879E-02  2.6591828E-02  3.4171392E-02
   23.0000  4.1376829E-02  2.9115456E-02  3.3496039E-02
   24.0000  4.1159780E-02  3.1513116E-02  3.2989824E-02
   25.0000  3.9925225E-02  3.3450972E-02  3.2462058E-02
   26.0000  3.7709054E-02  3.4683239E-02  3.1807954E-02
   27.0000  3.4962078E-02  3.5153245E-02  3.1023723E-02
   28.0000  3.2262226E-02  3.4981352E-02  3.0197674E-02
   29.0000  2.9959407E-02  3.4365503E-02  2.9438387E-02
   30.0000  2.8161639E-02  3.3500447E-02  2.8827407E-02
   31.0000  2.6845755E-02  3.2539935E-02  2.8396264E-02
   32.0000  2.5931921E-02  3.1581346E-02  2.8127469E-02
   33.0000  2.5324611E-02  3.0665796E-02  2.7973518E-02
   34.0000  2.4929982E-02  2.9791809E-02  2.7876026E-02
   35.0000  2.4660768E-02  2.8935609E-02  2.7777926E-02
   36.0000  2.4438611E-02  2.8071022E-02  2.7630807E-02
   37.0000  2.4200535E-02  2.7186225E-02  2.7401525E-02
   38.0000  2.3911896E-02  2.6297303E-02  2.7081583E-02
   39.0000  2.3582837E-02  2.5459691E-02  2.6701938E-02
   40.0000  2.3272789E-02  2.4766594E-02  2.6343020E-02
