    Energy   (100,001)      (010,001)      (001,110)   
  -25.0000  1.7014553E-04  1.7592853E-04  1.7317855E-04
  -24.0000  1.7628139E-04  1.8286815E-04  1.7966797E-04
  -23.0000  1.8283189E-04  1.9032180E-04  1.8661480E-04
  -22.0000  1.8983914E-04  1.9834680E-04  1.9406771E-04
  -21.0000  1.9735109E-04  2.0700915E-04  2.0208241E-04
  -20.0000  2.0542253E-04  2.1638521E-04  2.1072300E-04
  -19.0000  2.1411632E-04  2.2656380E-04  2.2006359E-04
  -18.0000  2.2350500E-04  2.3764882E-04  2.3019030E-04
  -17.0000  2.3367262E-04  2.4976251E-04  2.4120384E-04
  -16.0000  2.4471717E-04  2.6304966E-04  2.5322267E-04
  -15.0000  2.5675357E-04  2.7768298E-04  2.6638711E-04
  -14.0000  2.6991742E-04  2.9387002E-04  2.8086459E-04
  -13.0000  2.8436992E-04  3.1186239E-04  2.9685658E-04
  -12.0000  3.0030415E-04  3.3196778E-04  3.1460760E-04
  -11.0000  3.1795335E-04  3.5456637E-04  3.3441749E-04
  -10.0000  3.3760194E-04  3.8013310E-04  3.5665796E-04
  -9.00000  3.5960042E-04  4.0926867E-04  3.8179559E-04
  -8.00000  3.8438577E-04  4.4274340E-04  4.1042432E-04
  -7.00000  4.1251013E-04  4.8156063E-04  4.4331241E-04
  -6.00000  4.4468179E-04  5.2705054E-04  4.8147207E-04
  -5.00000  4.8182547E-04  5.8101285E-04  5.2626573E-04
  -4.00000  5.2517372E-04  6.4594089E-04  5.7957414E-04
  -3.00000  5.7641052E-04  7.2538690E-04  6.4407315E-04
  -2.00000  6.3790769E-04  8.2458538E-04  7.2371304E-04
  -1.00000  7.1313675E-04  9.5157863E-04  8.2460087E-04
   0.00000  8.0744320E-04  1.1194023E-03  9.5675676E-04
   1.00000  9.2966024E-04  1.3507655E-03  1.1379899E-03
   2.00000  1.0960158E-03  1.6895769E-03  1.4037704E-03
   3.00000  1.3420414E-03  2.2361753E-03  1.8383702E-03
   4.00000  1.7751523E-03  3.3008738E-03  2.7130993E-03
   5.00000  2.8477794E-03  6.1878164E-03  5.2084711E-03
   5.20000  3.1771277E-03  7.0946264E-03  6.0244266E-03
   5.40000  3.5109546E-03  8.0199562E-03  6.8818160E-03
   5.60000  3.8407669E-03  8.9477337E-03  7.7704437E-03
   5.80000  4.1700006E-03  9.8968706E-03  8.7066137E-03
   6.00000  4.5061327E-03  1.0897659E-02  9.7155777E-03
   6.20000  4.8568399E-03  1.1981323E-02  1.0825010E-02
   6.40000  5.2290685E-03  1.3178182E-02  1.2062623E-02
   6.60000  5.6290438E-03  1.4518060E-02  1.3451313E-02
   6.80000  6.0624910E-03  1.6030917E-02  1.5000749E-02
   7.00000  6.5348528E-03  1.7747379E-02  1.6696165E-02
   7.20000  7.0514889E-03  1.9699163E-02  1.8485562E-02
   7.40000  7.6179538E-03  2.1919345E-02  2.0269179E-02
   7.60000  8.2404969E-03  2.4442334E-02  2.1900630E-02
   7.80000  8.9268532E-03  2.7303607E-02  2.3211918E-02
   8.00000  9.6870392E-03  3.0538753E-02  2.4065267E-02
   8.20000  1.0533424E-02  3.4179505E-02  2.4410707E-02
   8.40000  1.1479427E-02  3.8242432E-02  2.4311462E-02
   8.60000  1.2537037E-02  4.2706722E-02  2.3917856E-02
   8.80000  1.3714150E-02  4.7482232E-02  2.3410216E-02
   9.00000  1.5012728E-02  5.2376706E-02  2.2947747E-02
   9.20000  1.6428105E-02  5.7079576E-02  2.2643190E-02
   9.40000  1.7949224E-02  6.1184484E-02  2.2560125E-02
   9.60000  1.9559066E-02  6.4263530E-02  2.2721151E-02
   9.80000  2.1234519E-02  6.5977911E-02  2.3118076E-02
   10.0000  2.2945722E-02  6.6178308E-02  2.3720612E-02
   10.2500  2.5079005E-02  6.4438608E-02  2.4693528E-02
   10.5000  2.7132506E-02  6.1007331E-02  2.5815020E-02
   10.7500  2.9034813E-02  5.6592420E-02  2.6987358E-02
   11.0000  3.0735812E-02  5.1828405E-02  2.8129320E-02
   11.2500  3.2212659E-02  4.7163252E-02  2.9179354E-02
   11.5000  3.3468724E-02  4.2855969E-02  3.0097317E-02
   11.7500  3.4527238E-02  3.9022980E-02  3.0864986E-02
   12.0000  3.5421803E-02  3.5689861E-02  3.1483571E-02
   12.2500  3.6187271E-02  3.2832345E-02  3.1968392E-02
   12.5000  3.6853767E-02  3.0403883E-02  3.2343247E-02
   12.7500  3.7444358E-02  2.8351416E-02  3.2637328E-02
   13.0000  3.7975489E-02  2.6623274E-02  3.2883087E-02
   13.2500  3.8459018E-02  2.5172704E-02  3.3113005E-02
   13.5000  3.8904081E-02  2.3959056E-02  3.3356276E-02
   13.7500  3.9317562E-02  2.2947778E-02  3.3636888E-02
   14.0000  3.9703366E-02  2.2109889E-02  3.3972888E-02
   14.2500  4.0061374E-02  2.1421243E-02  3.4375849E-02
   14.5000  4.0386609E-02  2.0861798E-02  3.4850382E-02
   14.7500  4.0668920E-02  2.0414960E-02  3.5393867E-02
   15.0000  4.0893466E-02  2.0067035E-02  3.5996426E-02
   15.2500  4.1042119E-02  1.9806761E-02  3.6641168E-02
   15.5000  4.1095661E-02  1.9624895E-02  3.7304885E-02
   15.7500  4.1036469E-02  1.9513853E-02  3.7959382E-02
   16.0000  4.0851242E-02  1.9467395E-02  3.8573582E-02
   16.2500  4.0533305E-02  1.9480336E-02  3.9116314E-02
   16.5000  4.0084095E-02  1.9548307E-02  3.9559482E-02
   16.7500  3.9513560E-02  1.9667538E-02  3.9881084E-02
   17.0000  3.8839436E-02  1.9834683E-02  4.0067483E-02
   17.2500  3.8085580E-02  2.0046660E-02  4.0114505E-02
   17.5000  3.7279695E-02  2.0300543E-02  4.0027163E-02
   17.7500  3.6450883E-02  2.0593461E-02  3.9818200E-02
   18.0000  3.5627384E-02  2.0922558E-02  3.9505862E-02
   18.2500  3.4834773E-02  2.1284966E-02  3.9111405E-02
   18.5000  3.4094738E-02  2.1677826E-02  3.8656796E-02
   18.7500  3.3424436E-02  2.2098334E-02  3.8162872E-02
   19.0000  3.2836331E-02  2.2543828E-02  3.7648068E-02
   19.2500  3.2338368E-02  2.3011896E-02  3.7127666E-02
   19.5000  3.1934367E-02  2.3500501E-02  3.6613465E-02
   19.7500  3.1624490E-02  2.4008010E-02  3.6113815E-02
   20.0000  3.1405740E-02  2.4532993E-02  3.5634044E-02
   21.0000  3.1305628E-02  2.6764729E-02  3.3958699E-02
   22.0000  3.2002825E-02  2.9079475E-02  3.2657550E-02
   23.0000  3.2844031E-02  3.1264382E-02  3.1596403E-02
   24.0000  3.3305360E-02  3.3024324E-02  3.0652024E-02
   25.0000  3.3183387E-02  3.4083004E-02  2.9768341E-02
   26.0000  3.2587290E-02  3.4332308E-02  2.8950474E-02
   27.0000  3.1745942E-02  3.3880202E-02  2.8239167E-02
   28.0000  3.0835057E-02  3.2961767E-02  2.7667041E-02
   29.0000  2.9963246E-02  3.1817406E-02  2.7236955E-02
   30.0000  2.9193283E-02  3.0623361E-02  2.6919937E-02
   31.0000  2.8541730E-02  2.9477659E-02  2.6667437E-02
   32.0000  2.7984998E-02  2.8415321E-02  2.6428118E-02
   33.0000  2.7477191E-02  2.7432630E-02  2.6158808E-02
   34.0000  2.6970682E-02  2.6509905E-02  2.5829405E-02
   35.0000  2.6432564E-02  2.5627287E-02  2.5425224E-02
   36.0000  2.5852001E-02  2.4773085E-02  2.4947988E-02
   37.0000  2.5238511E-02  2.3948095E-02  2.4414614E-02
   38.0000  2.4618430E-02  2.3169706E-02  2.3855908E-02
   39.0000  2.4036877E-02  2.2476303E-02  2.3320465E-02
   40.0000  2.3557556E-02  2.1922649E-02  2.2875079E-02
