    Energy   (100,001)      (010,001)      (001,110)   
  -25.0000  1.7009536E-04  1.8832523E-04  1.8713238E-04
  -24.0000  1.7627810E-04  1.9529809E-04  1.9390649E-04
  -23.0000  1.8287954E-04  2.0276724E-04  2.0114985E-04
  -22.0000  1.8994221E-04  2.1078655E-04  2.0891191E-04
  -21.0000  1.9751452E-04  2.1941792E-04  2.1724925E-04
  -20.0000  2.0565177E-04  2.2873276E-04  2.2622689E-04
  -19.0000  2.1441744E-04  2.3881392E-04  2.3591996E-04
  -18.0000  2.2388475E-04  2.4975800E-04  2.4641565E-04
  -17.0000  2.3413861E-04  2.6167837E-04  2.5781583E-04
  -16.0000  2.4527797E-04  2.7470889E-04  2.7024017E-04
  -15.0000  2.5741894E-04  2.8900868E-04  2.8383027E-04
  -14.0000  2.7069858E-04  3.0476840E-04  2.9875485E-04
  -13.0000  2.8527993E-04  3.2221829E-04  3.1521660E-04
  -12.0000  3.0135839E-04  3.4163898E-04  3.3346118E-04
  -11.0000  3.1917025E-04  3.6337583E-04  3.5378926E-04
  -10.0000  3.3900403E-04  3.8785855E-04  3.7657284E-04
  -9.00000  3.6121582E-04  4.1562839E-04  4.0227789E-04
  -8.00000  3.8625052E-04  4.4737635E-04  4.3149615E-04
  -7.00000  4.1467172E-04  4.8399827E-04  4.6499110E-04
  -6.00000  4.4720480E-04  5.2667614E-04  5.0376585E-04
  -5.00000  4.8480080E-04  5.7700114E-04  5.4916674E-04
  -4.00000  5.2873403E-04  6.3716649E-04  6.0304695E-04
  -3.00000  5.8075712E-04  7.1028100E-04  6.6803622E-04
  -2.00000  6.4335921E-04  8.0090369E-04  7.4800951E-04
  -1.00000  7.2022141E-04  9.1601014E-04  8.4895580E-04
   0.00000  8.1708400E-04  1.0668766E-03  9.8073078E-04
   1.00000  9.4357572E-04  1.2731498E-03  1.1610120E-03
   2.00000  1.1176788E-03  1.5730198E-03  1.4257407E-03
   3.00000  1.3793448E-03  2.0550197E-03  1.8639119E-03
   4.00000  1.8499124E-03  3.0004732E-03  2.7839744E-03
   5.00000  3.0427547E-03  5.6281750E-03  5.6076935E-03
   5.20000  3.4198214E-03  6.4606446E-03  6.5007298E-03
   5.40000  3.8109884E-03  7.3056633E-03  7.3710677E-03
   5.60000  4.2053869E-03  8.1402057E-03  8.1846753E-03
   5.80000  4.6026800E-03  8.9701494E-03  8.9509219E-03
   6.00000  5.0079892E-03  9.8104522E-03  9.6917947E-03
   6.20000  5.4308698E-03  1.0678688E-02  1.0424918E-02
   6.40000  5.8844443E-03  1.1595386E-02  1.1160374E-02
   6.60000  6.3830765E-03  1.2583781E-02  1.1903049E-02
   6.80000  6.9401494E-03  1.3667843E-02  1.2654453E-02
   7.00000  7.5668459E-03  1.4870010E-02  1.3412889E-02
   7.20000  8.2714567E-03  1.6209619E-02  1.4173508E-02
   7.40000  9.0585499E-03  1.7702237E-02  1.4929757E-02
   7.60000  9.9279250E-03  1.9359906E-02  1.5676988E-02
   7.80000  1.0873894E-02  2.1192347E-02  1.6417753E-02
   8.00000  1.1885610E-02  2.3208934E-02  1.7166374E-02
   8.20000  1.2948598E-02  2.5420380E-02  1.7949294E-02
   8.40000  1.4046704E-02  2.7838710E-02  1.8799626E-02
   8.60000  1.5163363E-02  3.0474793E-02  1.9748065E-02
   8.80000  1.6281972E-02  3.3334003E-02  2.0814403E-02
   9.00000  1.7386067E-02  3.6410921E-02  2.2002647E-02
   9.20000  1.8460165E-02  3.9683234E-02  2.3300321E-02
   9.40000  1.9491302E-02  4.3104550E-02  2.4681424E-02
   9.60000  2.0470408E-02  4.6596250E-02  2.6112071E-02
   9.80000  2.1393192E-02  5.0040323E-02  2.7557095E-02
   10.0000  2.2261404E-02  5.3277016E-02  2.8985136E-02
   10.2500  2.3283416E-02  5.6733423E-02  3.0708747E-02
   10.5000  2.4260290E-02  5.9162977E-02  3.2333106E-02
   10.7500  2.5220230E-02  6.0250162E-02  3.3837274E-02
   11.0000  2.6185708E-02  5.9869794E-02  3.5206522E-02
   11.2500  2.7165532E-02  5.8129870E-02  3.6429595E-02
   11.5000  2.8147617E-02  5.5328048E-02  3.7499924E-02
   11.7500  2.9104544E-02  5.1852696E-02  3.8412660E-02
   12.0000  3.0005243E-02  4.8081603E-02  3.9157270E-02
   12.2500  3.0823565E-02  4.4314113E-02  3.9715508E-02
   12.5000  3.1544048E-02  4.0747763E-02  4.0067202E-02
   12.7500  3.2165148E-02  3.7489057E-02  4.0199927E-02
   13.0000  3.2697711E-02  3.4579355E-02  4.0117955E-02
   13.2500  3.3159869E-02  3.2020556E-02  3.9846050E-02
   13.5000  3.3572845E-02  2.9793319E-02  3.9426437E-02
   13.7500  3.3958627E-02  2.7868251E-02  3.8911062E-02
   14.0000  3.4338059E-02  2.6212582E-02  3.8352927E-02
   14.2500  3.4728997E-02  2.4793990E-02  3.7799298E-02
   14.5000  3.5145011E-02  2.3582584E-02  3.7287744E-02
   14.7500  3.5594854E-02  2.2551760E-02  3.6844715E-02
   15.0000  3.6082527E-02  2.1678428E-02  3.6485871E-02
   15.2500  3.6607697E-02  2.0942875E-02  3.6217315E-02
   15.5000  3.7166212E-02  2.0328466E-02  3.6037165E-02
   15.7500  3.7750639E-02  1.9821273E-02  3.5937131E-02
   16.0000  3.8350781E-02  1.9409689E-02  3.5904018E-02
   16.2500  3.8954221E-02  1.9084073E-02  3.5921149E-02
   16.5000  3.9546934E-02  1.8836415E-02  3.5969772E-02
   16.7500  4.0113994E-02  1.8660045E-02  3.6030486E-02
   17.0000  4.0640400E-02  1.8549368E-02  3.6084663E-02
   17.2500  4.1111975E-02  1.8499632E-02  3.6115801E-02
   17.5000  4.1516289E-02  1.8506710E-02  3.6110669E-02
   17.7500  4.1843518E-02  1.8566931E-02  3.6060124E-02
   18.0000  4.2087122E-02  1.8676930E-02  3.5959470E-02
   18.2500  4.2244254E-02  1.8833546E-02  3.5808355E-02
   18.5000  4.2315845E-02  1.9033754E-02  3.5610222E-02
   18.7500  4.2306330E-02  1.9274643E-02  3.5371449E-02
   19.0000  4.2223072E-02  1.9553441E-02  3.5100303E-02
   19.2500  4.2075545E-02  1.9867578E-02  3.4805860E-02
   19.5000  4.1874400E-02  2.0214779E-02  3.4497018E-02
   19.7500  4.1630610E-02  2.0593090E-02  3.4181739E-02
   20.0000  4.1354932E-02  2.1000728E-02  3.3866689E-02
   21.0000  4.0134772E-02  2.2879532E-02  3.2704124E-02
   22.0000  3.9053220E-02  2.5045243E-02  3.1795782E-02
   23.0000  3.8175832E-02  2.7354590E-02  3.1092417E-02
   24.0000  3.7229237E-02  2.9625869E-02  3.0477421E-02
   25.0000  3.5888263E-02  3.1649285E-02  2.9858760E-02
   26.0000  3.4076969E-02  3.3242156E-02  2.9190301E-02
   27.0000  3.2023419E-02  3.4302783E-02  2.8476807E-02
   28.0000  3.0066019E-02  3.4825059E-02  2.7781120E-02
   29.0000  2.8442355E-02  3.4883662E-02  2.7201310E-02
   30.0000  2.7207375E-02  3.4598940E-02  2.6803966E-02
   31.0000  2.6312708E-02  3.4088674E-02  2.6605157E-02
   32.0000  2.5679495E-02  3.3437466E-02  2.6578935E-02
   33.0000  2.5223748E-02  3.2693864E-02  2.6671206E-02
   34.0000  2.4866790E-02  3.1882773E-02  2.6816594E-02
   35.0000  2.4542571E-02  3.1020053E-02  2.6952203E-02
   36.0000  2.4204399E-02  3.0123378E-02  2.7026667E-02
   37.0000  2.3830183E-02  2.9218592E-02  2.7006326E-02
   38.0000  2.3425120E-02  2.8343593E-02  2.6882130E-02
   39.0000  2.3022500E-02  2.7553404E-02  2.6680394E-02
   40.0000  2.2677700E-02  2.6920027E-02  2.6468424E-02
