    Energy   (100,001)      (010,001)      (001,110)   
  -25.0000  1.7172671E-04  1.8572086E-04  1.7120691E-04
  -24.0000  1.7806560E-04  1.9268798E-04  1.7758002E-04
  -23.0000  1.8484161E-04  2.0015517E-04  1.8439476E-04
  -22.0000  1.9210002E-04  2.0817703E-04  1.9169698E-04
  -21.0000  1.9989247E-04  2.1681629E-04  1.9953896E-04
  -20.0000  2.0827809E-04  2.2614539E-04  2.0798061E-04
  -19.0000  2.1732498E-04  2.3624841E-04  2.1709086E-04
  -18.0000  2.2711188E-04  2.4722344E-04  2.2694944E-04
  -17.0000  2.3773034E-04  2.5918569E-04  2.3764909E-04
  -16.0000  2.4928746E-04  2.7227125E-04  2.4929823E-04
  -15.0000  2.6190928E-04  2.8664208E-04  2.6202445E-04
  -14.0000  2.7574516E-04  3.0249236E-04  2.7597892E-04
  -13.0000  2.9097340E-04  3.2005683E-04  2.9134206E-04
  -12.0000  3.0780863E-04  3.3962186E-04  3.0833098E-04
  -11.0000  3.2651152E-04  3.6154032E-04  3.2720922E-04
  -10.0000  3.4740186E-04  3.8625188E-04  3.4829993E-04
  -9.00000  3.7087640E-04  4.1431114E-04  3.7200373E-04
  -8.00000  3.9743364E-04  4.4642743E-04  3.9882352E-04
  -7.00000  4.2770895E-04  4.8352236E-04  4.2939951E-04
  -6.00000  4.6252571E-04  5.2681489E-04  4.6456006E-04
  -5.00000  5.0297166E-04  5.7795106E-04  5.0539724E-04
  -4.00000  5.5051692E-04  6.3920806E-04  5.5338293E-04
  -3.00000  6.0720378E-04  7.1382865E-04  6.1055397E-04
  -2.00000  6.7596741E-04  8.0659580E-04  6.7982157E-04
  -1.00000  7.6121231E-04  9.2488211E-04  7.6551917E-04
   0.00000  8.6993653E-04  1.0807212E-03  8.7444789E-04
   1.00000  1.0141777E-03  1.2953501E-03  1.0180840E-03
   2.00000  1.2172339E-03  1.6107795E-03  1.2179633E-03
   3.00000  1.5336686E-03  2.1267812E-03  1.5220695E-03
   4.00000  2.1422750E-03  3.1708234E-03  2.0763365E-03
   5.00000  3.8440341E-03  6.1889534E-03  3.4901229E-03
   5.20000  4.3791786E-03  7.1351937E-03  3.9256994E-03
   5.40000  4.9091075E-03  8.0724620E-03  4.3660431E-03
   5.60000  5.4096375E-03  8.9734659E-03  4.8018366E-03
   5.80000  5.8777988E-03  9.8525762E-03  5.2439912E-03
   6.00000  6.3207966E-03  1.0736643E-02  5.7136545E-03
   6.20000  6.7509809E-03  1.1651293E-02  6.2357249E-03
   6.40000  7.1835697E-03  1.2618329E-02  6.8351344E-03
   6.60000  7.6345017E-03  1.3656773E-02  7.5343115E-03
   6.80000  8.1188518E-03  1.4784713E-02  8.3511339E-03
   7.00000  8.6503224E-03  1.6021040E-02  9.2965773E-03
   7.20000  9.2415488E-03  1.7386484E-02  1.0371414E-02
   7.40000  9.9046596E-03  1.8903542E-02  1.1562202E-02
   7.60000  1.0651616E-02  2.0595007E-02  1.2838243E-02
   7.80000  1.1493998E-02  2.2480822E-02  1.4152525E-02
   8.00000  1.2442049E-02  2.4573302E-02  1.5449432E-02
   8.20000  1.3502966E-02  2.6871371E-02  1.6678973E-02
   8.40000  1.4678852E-02  2.9355681E-02  1.7812161E-02
   8.60000  1.5965281E-02  3.1987538E-02  1.8849322E-02
   8.80000  1.7351465E-02  3.4714357E-02  1.9816429E-02
   9.00000  1.8822198E-02  3.7481270E-02  2.0751932E-02
   9.20000  2.0360485E-02  4.0243383E-02  2.1691177E-02
   9.40000  2.1948950E-02  4.2970394E-02  2.2654787E-02
   9.60000  2.3569093E-02  4.5639009E-02  2.3643991E-02
   9.80000  2.5199536E-02  4.8216466E-02  2.4642902E-02
   10.0000  2.6814934E-02  5.0643671E-02  2.5625630E-02
   10.2500  2.8767905E-02  5.3318674E-02  2.6790190E-02
   10.5000  3.0587818E-02  5.5354113E-02  2.7849355E-02
   10.7500  3.2210235E-02  5.6465212E-02  2.8795928E-02
   11.0000  3.3575259E-02  5.6427551E-02  2.9655132E-02
   11.2500  3.4637063E-02  5.5183955E-02  3.0471340E-02
   11.5000  3.5377608E-02  5.2890800E-02  3.1287397E-02
   11.7500  3.5816501E-02  4.9866048E-02  3.2126385E-02
   12.0000  3.6009951E-02  4.6476703E-02  3.2984607E-02
   12.2500  3.6037421E-02  4.3037718E-02  3.3841417E-02
   12.5000  3.5983613E-02  3.9765386E-02  3.4676039E-02
   12.7500  3.5925170E-02  3.6779684E-02  3.5475014E-02
   13.0000  3.5923437E-02  3.4129232E-02  3.6232061E-02
   13.2500  3.6021737E-02  3.1818140E-02  3.6947333E-02
   13.5000  3.6245491E-02  2.9826496E-02  3.7626555E-02
   13.7500  3.6603669E-02  2.8123695E-02  3.8278952E-02
   14.0000  3.7090813E-02  2.6676171E-02  3.8914152E-02
   14.2500  3.7689182E-02  2.5451427E-02  3.9539464E-02
   14.5000  3.8370706E-02  2.4419925E-02  4.0158855E-02
   14.7500  3.9099038E-02  2.3555806E-02  4.0772928E-02
   15.0000  3.9832104E-02  2.2836947E-02  4.1378401E-02
   15.2500  4.0525047E-02  2.2244715E-02  4.1967244E-02
   15.5000  4.1133330E-02  2.1763558E-02  4.2526364E-02
   15.7500  4.1615927E-02  2.1380542E-02  4.3038159E-02
   16.0000  4.1938556E-02  2.1084867E-02  4.3481892E-02
   16.2500  4.2076652E-02  2.0867420E-02  4.3835746E-02
   16.5000  4.2017682E-02  2.0720384E-02  4.4079327E-02
   16.7500  4.1762305E-02  2.0636936E-02  4.4196272E-02
   17.0000  4.1324057E-02  2.0611037E-02  4.4176496E-02
   17.2500  4.0727528E-02  2.0637305E-02  4.4017617E-02
   17.5000  4.0005338E-02  2.0710939E-02  4.3725264E-02
   17.7500  3.9194476E-02  2.0827689E-02  4.3312223E-02
   18.0000  3.8332675E-02  2.0983830E-02  4.2796693E-02
   18.2500  3.7455345E-02  2.1176137E-02  4.2200081E-02
   18.5000  3.6593413E-02  2.1401855E-02  4.1544800E-02
   18.7500  3.5772114E-02  2.1658657E-02  4.0852419E-02
   19.0000  3.5010599E-02  2.1944608E-02  4.0142320E-02
   19.2500  3.4322166E-02  2.2258142E-02  3.9430863E-02
   19.5000  3.3714827E-02  2.2598029E-02  3.8730992E-02
   19.7500  3.3192099E-02  2.2963306E-02  3.8052227E-02
   20.0000  3.2753934E-02  2.3353032E-02  3.7401137E-02
   21.0000  3.1779903E-02  2.5121301E-02  3.5150731E-02
   22.0000  3.1810163E-02  2.7110352E-02  3.3517322E-02
   23.0000  3.2448849E-02  2.9131433E-02  3.2375189E-02
   24.0000  3.3241810E-02  3.0944603E-02  3.1510335E-02
   25.0000  3.3717986E-02  3.2320700E-02  3.0727409E-02
   26.0000  3.3542315E-02  3.3125941E-02  2.9912745E-02
   27.0000  3.2680579E-02  3.3368543E-02  2.9053937E-02
   28.0000  3.1368330E-02  3.3177112E-02  2.8197109E-02
   29.0000  2.9932176E-02  3.2715373E-02  2.7406473E-02
   30.0000  2.8616645E-02  3.2118451E-02  2.6728706E-02
   31.0000  2.7526746E-02  3.1470687E-02  2.6172823E-02
   32.0000  2.6662916E-02  3.0809691E-02  2.5714949E-02
   33.0000  2.5975258E-02  3.0142593E-02  2.5314417E-02
   34.0000  2.5401575E-02  2.9463539E-02  2.4928602E-02
   35.0000  2.4887426E-02  2.8767615E-02  2.4523180E-02
   36.0000  2.4395491E-02  2.8059828E-02  2.4078917E-02
   37.0000  2.3909444E-02  2.7357679E-02  2.3595849E-02
   38.0000  2.3434954E-02  2.6688487E-02  2.3095184E-02
   39.0000  2.2998795E-02  2.6088944E-02  2.2619351E-02
   40.0000  2.2642342E-02  2.5607858E-02  2.2225448E-02
