    Energy   (100,001)      (010,001)      (001,110)   
  -25.0000  1.5946092E-04  1.7605474E-04  1.7080356E-04
  -24.0000  1.6548758E-04  1.8297852E-04  1.7724671E-04
  -23.0000  1.7193065E-04  1.9041408E-04  1.8414274E-04
  -22.0000  1.7883282E-04  1.9841841E-04  1.9153936E-04
  -21.0000  1.8624267E-04  2.0705713E-04  1.9949111E-04
  -20.0000  1.9421571E-04  2.1640619E-04  2.0806060E-04
  -19.0000  2.0281569E-04  2.2655389E-04  2.1732004E-04
  -18.0000  2.1211611E-04  2.3760355E-04  2.2735318E-04
  -17.0000  2.2220220E-04  2.4967671E-04  2.3825762E-04
  -16.0000  2.3317330E-04  2.6291736E-04  2.5014785E-04
  -15.0000  2.4514589E-04  2.7749725E-04  2.6315898E-04
  -14.0000  2.5825744E-04  2.9362284E-04  2.7745166E-04
  -13.0000  2.7267133E-04  3.1154440E-04  2.9321831E-04
  -12.0000  2.8858327E-04  3.3156811E-04  3.1069138E-04
  -11.0000  3.0622962E-04  3.5407240E-04  3.3015438E-04
  -10.0000  3.2589865E-04  3.7953019E-04  3.5195665E-04
  -9.00000  3.4794561E-04  4.0853996E-04  3.7653372E-04
  -8.00000  3.7281356E-04  4.4186969E-04  4.0443586E-04
  -7.00000  4.0106259E-04  4.8052055E-04  4.3636882E-04
  -6.00000  4.3341193E-04  5.2582130E-04  4.7325364E-04
  -5.00000  4.7080207E-04  5.7957229E-04  5.1631705E-04
  -4.00000  5.1448971E-04  6.4427220E-04  5.6723288E-04
  -3.00000  5.6619861E-04  7.2348919E-04  6.2835264E-04
  -2.00000  6.2837113E-04  8.2249699E-04  7.0310165E-04
  -1.00000  7.0461501E-04  9.4942963E-04  7.9670461E-04
   0.00000  8.0056404E-04  1.1175375E-03  9.1763084E-04
   1.00000  9.2573228E-04  1.3500509E-03  1.0808149E-03
   2.00000  1.0981986E-03  1.6922309E-03  1.3160591E-03
   3.00000  1.3596596E-03  2.2483147E-03  1.6957628E-03
   4.00000  1.8458906E-03  3.3417758E-03  2.4668701E-03
   5.00000  3.1566657E-03  6.3408880E-03  4.7497185E-03
   5.20000  3.5537759E-03  7.3053995E-03  5.4564966E-03
   5.40000  3.9390370E-03  8.3118441E-03  6.1397835E-03
   5.60000  4.3006662E-03  9.3463214E-03  6.7791675E-03
   5.80000  4.6446026E-03  1.0427538E-02  7.3902664E-03
   6.00000  4.9806222E-03  1.1583554E-02  7.9965651E-03
   6.20000  5.3165261E-03  1.2840859E-02  8.6153339E-03
   6.40000  5.6581260E-03  1.4222126E-02  9.2553116E-03
   6.60000  6.0109437E-03  1.5746598E-02  9.9186506E-03
   6.80000  6.3815822E-03  1.7430823E-02  1.0603021E-02
   7.00000  6.7780747E-03  1.9288974E-02  1.1302855E-02
   7.20000  7.2094023E-03  2.1332489E-02  1.2010529E-02
   7.40000  7.6847585E-03  2.3569120E-02  1.2718483E-02
   7.60000  8.2129861E-03  2.6001528E-02  1.3422320E-02
   7.80000  8.8022746E-03  2.8625464E-02  1.4123985E-02
   8.00000  9.4600241E-03  3.1428038E-02  1.4833729E-02
   8.20000  1.0192814E-02  3.4386795E-02  1.5569900E-02
   8.40000  1.1006502E-02  3.7469861E-02  1.6356509E-02
   8.60000  1.1906477E-02  4.0636367E-02  1.7219255E-02
   8.80000  1.2897931E-02  4.3834853E-02  1.8181006E-02
   9.00000  1.3985835E-02  4.6997340E-02  1.9257722E-02
   9.20000  1.5174299E-02  5.0030290E-02  2.0455845E-02
   9.40000  1.6465283E-02  5.2808806E-02  2.1771715E-02
   9.60000  1.7856888E-02  5.5181891E-02  2.3192605E-02
   9.80000  1.9341522E-02  5.6991593E-02  2.4698342E-02
   10.0000  2.0904157E-02  5.8101332E-02  2.6262843E-02
   10.2500  2.2929939E-02  5.8379676E-02  2.8254855E-02
   10.5000  2.4974604E-02  5.7426447E-02  3.0229337E-02
   10.7500  2.6961361E-02  5.5411471E-02  3.2126055E-02
   11.0000  2.8816846E-02  5.2623700E-02  3.3889772E-02
   11.2500  3.0485902E-02  4.9384494E-02  3.5476639E-02
   11.5000  3.1941068E-02  4.5978448E-02  3.6859886E-02
   11.7500  3.3183122E-02  4.2619608E-02  3.8030174E-02
   12.0000  3.4231417E-02  3.9447492E-02  3.8991954E-02
   12.2500  3.5111433E-02  3.6539614E-02  3.9758654E-02
   12.5000  3.5848507E-02  3.3928746E-02  4.0349358E-02
   12.7500  3.6466879E-02  3.1618280E-02  4.0786876E-02
   13.0000  3.6990176E-02  2.9593742E-02  4.1095855E-02
   13.2500  3.7441717E-02  2.7831352E-02  4.1301075E-02
   13.5000  3.7843953E-02  2.6304449E-02  4.1426314E-02
   13.7500  3.8217123E-02  2.4987337E-02  4.1493508E-02
   14.0000  3.8577925E-02  2.3856707E-02  4.1521875E-02
   14.2500  3.8938656E-02  2.2891869E-02  4.1527031E-02
   14.5000  3.9306864E-02  2.2074696E-02  4.1520314E-02
   14.7500  3.9685469E-02  2.1389501E-02  4.1508415E-02
   15.0000  4.0073268E-02  2.0822853E-02  4.1493334E-02
   15.2500  4.0465690E-02  2.0363335E-02  4.1472704E-02
   15.5000  4.0855621E-02  2.0001269E-02  4.1440465E-02
   15.7500  4.1234205E-02  1.9728427E-02  4.1387836E-02
   16.0000  4.1591576E-02  1.9537764E-02  4.1304509E-02
   16.2500  4.1917534E-02  1.9423168E-02  4.1179952E-02
   16.5000  4.2202214E-02  1.9379253E-02  4.1004700E-02
   16.7500  4.2436770E-02  1.9401187E-02  4.0771497E-02
   17.0000  4.2614074E-02  1.9484549E-02  4.0476153E-02
   17.2500  4.2729392E-02  1.9625223E-02  4.0118027E-02
   17.5000  4.2780932E-02  1.9819312E-02  3.9700085E-02
   17.7500  4.2770169E-02  2.0063075E-02  3.9228562E-02
   18.0000  4.2701881E-02  2.0352880E-02  3.8712303E-02
   18.2500  4.2583820E-02  2.0685174E-02  3.8161916E-02
   18.5000  4.2426084E-02  2.1056467E-02  3.7588859E-02
   18.7500  4.2240232E-02  2.1463338E-02  3.7004573E-02
   19.0000  4.2038276E-02  2.1902463E-02  3.6419745E-02
   19.2500  4.1831651E-02  2.2370686E-02  3.5843717E-02
   19.5000  4.1630277E-02  2.2865102E-02  3.5284064E-02
   19.7500  4.1441789E-02  2.3383069E-02  3.4746395E-02
   20.0000  4.1271051E-02  2.3921981E-02  3.4234496E-02
   21.0000  4.0767896E-02  2.6214673E-02  3.2484870E-02
   22.0000  4.0302859E-02  2.8533354E-02  3.1214412E-02
   23.0000  3.9308358E-02  3.0633486E-02  3.0298199E-02
   24.0000  3.7390534E-02  3.2278236E-02  2.9581271E-02
   25.0000  3.4697219E-02  3.3293530E-02  2.8956498E-02
   26.0000  3.1786649E-02  3.3642972E-02  2.8377537E-02
   27.0000  2.9150884E-02  3.3446053E-02  2.7831565E-02
   28.0000  2.7025777E-02  3.2888637E-02  2.7328070E-02
   29.0000  2.5435049E-02  3.2135951E-02  2.6889289E-02
   30.0000  2.4288358E-02  3.1298005E-02  2.6530862E-02
   31.0000  2.3462746E-02  3.0431444E-02  2.6246559E-02
   32.0000  2.2844563E-02  2.9555019E-02  2.6007334E-02
   33.0000  2.2342513E-02  2.8665597E-02  2.5770490E-02
   34.0000  2.1888998E-02  2.7752026E-02  2.5490728E-02
   35.0000  2.1439499E-02  2.6806321E-02  2.5129441E-02
   36.0000  2.0973093E-02  2.5831360E-02  2.4662349E-02
   37.0000  2.0492216E-02  2.4845590E-02  2.4086676E-02
   38.0000  2.0019095E-02  2.3887086E-02  2.3430012E-02
   39.0000  1.9589169E-02  2.3018089E-02  2.2760807E-02
   40.0000  1.9241683E-02  2.2319522E-02  2.2185265E-02
