    Energy   (100,001)      (010,001)      (001,110)   
  -25.0000  1.7287722E-04  1.8180880E-04  1.8209574E-04
  -24.0000  1.7904790E-04  1.8898923E-04  1.8864164E-04
  -23.0000  1.8563251E-04  1.9670515E-04  1.9563610E-04
  -22.0000  1.9267292E-04  2.0501682E-04  2.0312585E-04
  -21.0000  2.0021673E-04  2.1399372E-04  2.1116424E-04
  -20.0000  2.0831834E-04  2.2371638E-04  2.1981251E-04
  -19.0000  2.1704018E-04  2.3427857E-04  2.2914129E-04
  -18.0000  2.2645424E-04  2.4579018E-04  2.3923242E-04
  -17.0000  2.3664395E-04  2.5838073E-04  2.5018132E-04
  -16.0000  2.4770658E-04  2.7220392E-04  2.6209988E-04
  -15.0000  2.5975622E-04  2.8744346E-04  2.7512018E-04
  -14.0000  2.7292752E-04  3.0432066E-04  2.8939926E-04
  -13.0000  2.8738064E-04  3.2310437E-04  3.0512534E-04
  -12.0000  3.0330754E-04  3.4412433E-04  3.2252590E-04
  -11.0000  3.2094036E-04  3.6778908E-04  3.4187859E-04
  -10.0000  3.4056252E-04  3.9461064E-04  3.6352586E-04
  -9.00000  3.6252393E-04  4.2523890E-04  3.8789525E-04
  -8.00000  3.8726186E-04  4.6051050E-04  4.1552769E-04
  -7.00000  4.1533050E-04  5.0151997E-04  4.4711831E-04
  -6.00000  4.4744355E-04  5.4972555E-04  4.8357634E-04
  -5.00000  4.8453763E-04  6.0711137E-04  5.2611603E-04
  -4.00000  5.2786931E-04  6.7644405E-04  5.7639932E-04
  -3.00000  5.7917004E-04  7.6169491E-04  6.3676941E-04
  -2.00000  6.4090521E-04  8.6876797E-04  7.1065288E-04
  -1.00000  7.1673415E-04  1.0068303E-03  8.0329789E-04
   0.00000  8.1239278E-04  1.1909316E-03  9.2324395E-04
   1.00000  9.3757255E-04  1.4477000E-03  1.0855841E-03
   2.00000  1.1105545E-03  1.8296061E-03  1.3203845E-03
   3.00000  1.3724843E-03  2.4592319E-03  1.6998609E-03
   4.00000  1.8501325E-03  3.7239693E-03  2.4627818E-03
   5.00000  3.0822337E-03  7.2861412E-03  4.6908836E-03
   5.20000  3.4711408E-03  8.4342474E-03  5.4321390E-03
   5.40000  3.8742591E-03  9.6235894E-03  6.2077309E-03
   5.60000  4.2851913E-03  1.0833631E-02  6.9939011E-03
   5.80000  4.7108681E-03  1.2083804E-02  7.7854050E-03
   6.00000  5.1619349E-03  1.3403899E-02  8.5776286E-03
   6.20000  5.6477516E-03  1.4819756E-02  9.3574945E-03
   6.40000  6.1748818E-03  1.6351017E-02  1.0104899E-02
   6.60000  6.7471041E-03  1.8014590E-02  1.0803182E-02
   6.80000  7.3662534E-03  1.9830767E-02  1.1453413E-02
   7.00000  8.0330984E-03  2.1828568E-02  1.2082148E-02
   7.20000  8.7470756E-03  2.4046424E-02  1.2734762E-02
   7.40000  9.5043182E-03  2.6526813E-02  1.3457160E-02
   7.60000  1.0294810E-02  2.9306766E-02  1.4276024E-02
   7.80000  1.1100531E-02  3.2407039E-02  1.5185920E-02
   8.00000  1.1896646E-02  3.5821885E-02  1.6146615E-02
   8.20000  1.2657039E-02  3.9510862E-02  1.7092070E-02
   8.40000  1.3363445E-02  4.3394311E-02  1.7951061E-02
   8.60000  1.4014384E-02  4.7353642E-02  1.8673921E-02
   8.80000  1.4628407E-02  5.1236019E-02  1.9252959E-02
   9.00000  1.5238894E-02  5.4862278E-02  1.9724882E-02
   9.20000  1.5883270E-02  5.8038520E-02  2.0155136E-02
   9.40000  1.6592726E-02  6.0573743E-02  2.0615646E-02
   9.60000  1.7386580E-02  6.2304225E-02  2.1168075E-02
   9.80000  1.8271424E-02  6.3120401E-02  2.1856890E-02
   10.0000  1.9242939E-02  6.2987861E-02  2.2709635E-02
   10.2500  2.0559284E-02  6.1567976E-02  2.4025846E-02
   10.5000  2.1953879E-02  5.8990532E-02  2.5621773E-02
   10.7500  2.3383066E-02  5.5600150E-02  2.7477417E-02
   11.0000  2.4803835E-02  5.1757650E-02  2.9549630E-02
   11.2500  2.6180766E-02  4.7777440E-02  3.1770796E-02
   11.5000  2.7489329E-02  4.3898695E-02  3.4048103E-02
   11.7500  2.8716211E-02  4.0282779E-02  3.6265568E-02
   12.0000  2.9858783E-02  3.7021833E-02  3.8292153E-02
   12.2500  3.0922257E-02  3.4152273E-02  3.9998733E-02
   12.5000  3.1915328E-02  3.1670547E-02  4.1281184E-02
   12.7500  3.2847560E-02  2.9547902E-02  4.2081052E-02
   13.0000  3.3728155E-02  2.7742939E-02  4.2395804E-02
   13.2500  3.4564124E-02  2.6211575E-02  4.2275599E-02
   13.5000  3.5358387E-02  2.4913187E-02  4.1808540E-02
   13.7500  3.6109506E-02  2.3812819E-02  4.1100198E-02
   14.0000  3.6813050E-02  2.2881248E-02  4.0254653E-02
   14.2500  3.7463451E-02  2.2094425E-02  3.9361644E-02
   14.5000  3.8055565E-02  2.1432798E-02  3.8490475E-02
   14.7500  3.8585567E-02  2.0880616E-02  3.7689053E-02
   15.0000  3.9051091E-02  2.0425254E-02  3.6985960E-02
   15.2500  3.9450811E-02  2.0056599E-02  3.6393845E-02
   15.5000  3.9783759E-02  1.9766521E-02  3.5913079E-02
   15.7500  4.0048735E-02  1.9548418E-02  3.5535170E-02
   16.0000  4.0244068E-02  1.9396841E-02  3.5245768E-02
   16.2500  4.0367860E-02  1.9307187E-02  3.5027267E-02
   16.5000  4.0418661E-02  1.9275455E-02  3.4861038E-02
   16.7500  4.0396364E-02  1.9298051E-02  3.4729269E-02
   17.0000  4.0303086E-02  1.9371644E-02  3.4616377E-02
   17.2500  4.0143761E-02  1.9493064E-02  3.4509912E-02
   17.5000  3.9926303E-02  1.9659229E-02  3.4400952E-02
   17.7500  3.9661285E-02  1.9867112E-02  3.4284026E-02
   18.0000  3.9361216E-02  2.0113738E-02  3.4156683E-02
   18.2500  3.9039577E-02  2.0396199E-02  3.4018846E-02
   18.5000  3.8709812E-02  2.0711694E-02  3.3872090E-02
   18.7500  3.8384416E-02  2.1057591E-02  3.3718960E-02
   19.0000  3.8074236E-02  2.1431496E-02  3.3562386E-02
   19.2500  3.7788011E-02  2.1831348E-02  3.3405224E-02
   19.5000  3.7532127E-02  2.2255505E-02  3.3249931E-02
   19.7500  3.7310575E-02  2.2702750E-02  3.3098359E-02
   20.0000  3.7125078E-02  2.3172082E-02  3.2951714E-02
   21.0000  3.6719629E-02  2.5238146E-02  3.2422186E-02
   22.0000  3.6668444E-02  2.7504736E-02  3.1963078E-02
   23.0000  3.6585736E-02  2.9783201E-02  3.1507336E-02
   24.0000  3.6076498E-02  3.1779515E-02  3.0991168E-02
   25.0000  3.4938438E-02  3.3181920E-02  3.0386469E-02
   26.0000  3.3281736E-02  3.3820598E-02  2.9722824E-02
   27.0000  3.1450462E-02  3.3741702E-02  2.9089690E-02
   28.0000  2.9800761E-02  3.3138917E-02  2.8594466E-02
   29.0000  2.8530977E-02  3.2234031E-02  2.8301080E-02
   30.0000  2.7660727E-02  3.1205305E-02  2.8204205E-02
   31.0000  2.7102029E-02  3.0169099E-02  2.8247991E-02
   32.0000  2.6737561E-02  2.9175425E-02  2.8355319E-02
   33.0000  2.6467869E-02  2.8233345E-02  2.8453089E-02
   34.0000  2.6223898E-02  2.7336992E-02  2.8482948E-02
   35.0000  2.5962335E-02  2.6478782E-02  2.8402556E-02
   36.0000  2.5658525E-02  2.5654918E-02  2.8185298E-02
   37.0000  2.5302854E-02  2.4866987E-02  2.7822222E-02
   38.0000  2.4903125E-02  2.4125710E-02  2.7331379E-02
   39.0000  2.4492766E-02  2.3460607E-02  2.6775978E-02
   40.0000  2.4134040E-02  2.2924018E-02  2.6271225E-02
