    Energy   (100,001)      (010,001)      (001,110)   
  -25.0000  1.7143534E-04  1.7886715E-04  1.7451046E-04
  -24.0000  1.7771765E-04  1.8579062E-04  1.8098023E-04
  -23.0000  1.8443153E-04  1.9322042E-04  1.8789961E-04
  -22.0000  1.9162163E-04  2.0121249E-04  1.9531555E-04
  -21.0000  1.9933886E-04  2.0983120E-04  2.0328170E-04
  -20.0000  2.0764158E-04  2.1915095E-04  2.1185957E-04
  -19.0000  2.1659695E-04  2.2925818E-04  2.2112006E-04
  -18.0000  2.2628269E-04  2.4025392E-04  2.3114528E-04
  -17.0000  2.3678917E-04  2.5225692E-04  2.4203085E-04
  -16.0000  2.4822216E-04  2.6540766E-04  2.5388882E-04
  -15.0000  2.6070618E-04  2.7987356E-04  2.6685126E-04
  -14.0000  2.7438889E-04  2.9585560E-04  2.8107500E-04
  -13.0000  2.8944665E-04  3.1359712E-04  2.9674767E-04
  -12.0000  3.0609192E-04  3.3339540E-04  3.1409565E-04
  -11.0000  3.2458297E-04  3.5561732E-04  3.3339461E-04
  -10.0000  3.4523696E-04  3.8072074E-04  3.5498381E-04
  -9.00000  3.6844787E-04  4.0928410E-04  3.7928553E-04
  -8.00000  3.9471134E-04  4.4204846E-04  4.0683246E-04
  -7.00000  4.2466013E-04  4.7997818E-04  4.3830660E-04
  -6.00000  4.5911569E-04  5.2435088E-04  4.7459648E-04
  -5.00000  4.9916540E-04  5.7689442E-04  5.1688321E-04
  -4.00000  5.4628224E-04  6.4000259E-04  5.6677508E-04
  -3.00000  6.0251761E-04  7.1708808E-04  6.2652638E-04
  -2.00000  6.7082772E-04  8.1318823E-04  6.9941230E-04
  -1.00000  7.5566127E-04  9.3606786E-04  7.9041277E-04
   0.00000  8.6410626E-04  1.0983864E-03  9.0756659E-04
   1.00000  1.0083860E-03  1.3224180E-03  1.0649610E-03
   2.00000  1.2122055E-03  1.6519580E-03  1.2904145E-03
   3.00000  1.5311813E-03  2.1899008E-03  1.6501929E-03
   4.00000  2.1482587E-03  3.2683352E-03  2.3619319E-03
   5.00000  3.8744474E-03  6.3362012E-03  4.4119174E-03
   5.20000  4.4004464E-03  7.3031206E-03  5.0957507E-03
   5.40000  4.9057603E-03  8.2734082E-03  5.8128145E-03
   5.60000  5.3719274E-03  9.2198546E-03  6.5351947E-03
   5.80000  5.8088986E-03  1.0151737E-02  7.2495122E-03
   6.00000  6.2371313E-03  1.1089778E-02  7.9482561E-03
   6.20000  6.6776013E-03  1.2057394E-02  8.6270348E-03
   6.40000  7.1488593E-03  1.3080418E-02  9.2836405E-03
   6.60000  7.6669128E-03  1.4187518E-02  9.9182419E-03
   6.80000  8.2454347E-03  1.5409922E-02  1.0536270E-02
   7.00000  8.8954939E-03  1.6780559E-02  1.1151668E-02
   7.20000  9.6252599E-03  1.8332513E-02  1.1785545E-02
   7.40000  1.0440323E-02  2.0097083E-02  1.2458449E-02
   7.60000  1.1344515E-02  2.2102041E-02  1.3180238E-02
   7.80000  1.2340523E-02  2.4370472E-02  1.3943851E-02
   8.00000  1.3429914E-02  2.6919968E-02  1.4726894E-02
   8.20000  1.4612648E-02  2.9761368E-02  1.5500612E-02
   8.40000  1.5886385E-02  3.2895825E-02  1.6242340E-02
   8.60000  1.7245867E-02  3.6308900E-02  1.6945901E-02
   8.80000  1.8682582E-02  3.9961171E-02  1.7625407E-02
   9.00000  2.0184743E-02  4.3776584E-02  1.8311310E-02
   9.20000  2.1737385E-02  4.7632059E-02  1.9041409E-02
   9.40000  2.3322103E-02  5.1353701E-02  1.9851252E-02
   9.60000  2.4916143E-02  5.4725048E-02  2.0767384E-02
   9.80000  2.6491232E-02  5.7510609E-02  2.1804626E-02
   10.0000  2.8012927E-02  5.9493430E-02  2.2966279E-02
   10.2500  2.9779123E-02  6.0614599E-02  2.4581727E-02
   10.5000  3.1320057E-02  6.0152628E-02  2.6347479E-02
   10.7500  3.2569933E-02  5.8266495E-02  2.8215599E-02
   11.0000  3.3491358E-02  5.5303487E-02  3.0127239E-02
   11.2500  3.4084077E-02  5.1687103E-02  3.2017175E-02
   11.5000  3.4382873E-02  4.7812848E-02  3.3821161E-02
   11.7500  3.4444505E-02  4.3986267E-02  3.5481532E-02
   12.0000  3.4332398E-02  4.0406407E-02  3.6950393E-02
   12.2500  3.4107200E-02  3.7179048E-02  3.8194799E-02
   12.5000  3.3823326E-02  3.4341400E-02  3.9201333E-02
   12.7500  3.3527845E-02  3.1887416E-02  3.9976540E-02
   13.0000  3.3259772E-02  2.9788674E-02  4.0544944E-02
   13.2500  3.3049785E-02  2.8008085E-02  4.0945438E-02
   13.5000  3.2920410E-02  2.6507022E-02  4.1224645E-02
   13.7500  3.2886342E-02  2.5248664E-02  4.1429091E-02
   14.0000  3.2954736E-02  2.4199585E-02  4.1599086E-02
   14.2500  3.3125472E-02  2.3330404E-02  4.1765095E-02
   14.5000  3.3391492E-02  2.2615860E-02  4.1946162E-02
   14.7500  3.3739268E-02  2.2034547E-02  4.2149805E-02
   15.0000  3.4149523E-02  2.1568495E-02  4.2372909E-02
   15.2500  3.4598325E-02  2.1202700E-02  4.2603369E-02
   15.5000  3.5058632E-02  2.0924676E-02  4.2822302E-02
   15.7500  3.5502307E-02  2.0724045E-02  4.3006764E-02
   16.0000  3.5902485E-02  2.0592194E-02  4.3132810E-02
   16.2500  3.6236042E-02  2.0521993E-02  4.3178630E-02
   16.5000  3.6485813E-02  2.0507547E-02  4.3127368E-02
   16.7500  3.6642172E-02  2.0543988E-02  4.2969184E-02
   17.0000  3.6703681E-02  2.0627263E-02  4.2702240E-02
   17.2500  3.6676706E-02  2.0753933E-02  4.2332464E-02
   17.5000  3.6574107E-02  2.0920981E-02  4.1872260E-02
   17.7500  3.6413319E-02  2.1125630E-02  4.1338508E-02
   18.0000  3.6214174E-02  2.1365201E-02  4.0750331E-02
   18.2500  3.5996849E-02  2.1637013E-02  4.0127033E-02
   18.5000  3.5780186E-02  2.1938335E-02  3.9486486E-02
   18.7500  3.5580494E-02  2.2266388E-02  3.8844063E-02
   19.0000  3.5410846E-02  2.2618402E-02  3.8212094E-02
   19.2500  3.5280786E-02  2.2991715E-02  3.7599719E-02
   19.5000  3.5196332E-02  2.3383894E-02  3.7013015E-02
   19.7500  3.5160142E-02  2.3792808E-02  3.6455336E-02
   20.0000  3.5171733E-02  2.4216502E-02  3.5927892E-02
   21.0000  3.5597885E-02  2.6010891E-02  3.4111751E-02
   22.0000  3.6253653E-02  2.7854424E-02  3.2692604E-02
   23.0000  3.6601575E-02  2.9630247E-02  3.1523442E-02
   24.0000  3.6293107E-02  3.1203289E-02  3.0471591E-02
   25.0000  3.5270351E-02  3.2413991E-02  2.9452523E-02
   26.0000  3.3704478E-02  3.3134695E-02  2.8444685E-02
   27.0000  3.1901842E-02  3.3334813E-02  2.7497841E-02
   28.0000  3.0191066E-02  3.3092087E-02  2.6703289E-02
   29.0000  2.8768393E-02  3.2539391E-02  2.6118638E-02
   30.0000  2.7679177E-02  3.1808849E-02  2.5743669E-02
   31.0000  2.6877823E-02  3.0999811E-02  2.5532922E-02
   32.0000  2.6286069E-02  3.0168861E-02  2.5418511E-02
   33.0000  2.5827262E-02  2.9335826E-02  2.5331623E-02
   34.0000  2.5438260E-02  2.8497317E-02  2.5215251E-02
   35.0000  2.5070806E-02  2.7640789E-02  2.5029545E-02
   36.0000  2.4690815E-02  2.6756669E-02  2.4754478E-02
   37.0000  2.4279674E-02  2.5848857E-02  2.4391742E-02
   38.0000  2.3838948E-02  2.4944594E-02  2.3965974E-02
   39.0000  2.3398311E-02  2.4103741E-02  2.3526979E-02
   40.0000  2.3017445E-02  2.3415644E-02  2.3147145E-02
