    Energy   (100,001)      (010,001)      (001,110)   
  -25.0000  1.6683282E-04  1.8278703E-04  1.7043348E-04
  -24.0000  1.7303410E-04  1.8959872E-04  1.7670418E-04
  -23.0000  1.7966349E-04  1.9689366E-04  1.8340496E-04
  -22.0000  1.8676528E-04  2.0472388E-04  1.9057999E-04
  -21.0000  1.9438997E-04  2.1314906E-04  1.9827958E-04
  -20.0000  2.0259544E-04  2.2223799E-04  2.0656129E-04
  -19.0000  2.1144826E-04  2.3207033E-04  2.1549125E-04
  -18.0000  2.2102544E-04  2.4273881E-04  2.2514579E-04
  -17.0000  2.3141651E-04  2.5435207E-04  2.3561354E-04
  -16.0000  2.4272619E-04  2.6703812E-04  2.4699789E-04
  -15.0000  2.5507770E-04  2.8094885E-04  2.5942022E-04
  -14.0000  2.6861708E-04  2.9626583E-04  2.7302401E-04
  -13.0000  2.8351864E-04  3.1320782E-04  2.8798000E-04
  -12.0000  2.9999223E-04  3.3204074E-04  3.0449298E-04
  -11.0000  3.1829276E-04  3.5309100E-04  3.2281074E-04
  -10.0000  3.3873297E-04  3.7676354E-04  3.4323591E-04
  -9.00000  3.6170096E-04  4.0356676E-04  3.6614209E-04
  -8.00000  3.8768450E-04  4.3414758E-04  3.9199594E-04
  -7.00000  4.1730554E-04  4.6934171E-04  4.2138833E-04
  -6.00000  4.5137039E-04  5.1024754E-04  4.5507899E-04
  -5.00000  4.9094476E-04  5.5833779E-04  4.9406247E-04
  -4.00000  5.3746977E-04  6.1563386E-04  5.3966830E-04
  -3.00000  5.9294822E-04  6.8498859E-04  5.9371942E-04
  -2.00000  6.6025893E-04  7.7056762E-04  6.5879392E-04
  -1.00000  7.4371996E-04  8.7871886E-04  7.3868416E-04
   0.00000  8.5018008E-04  1.0196701E-03  8.3926576E-04
   1.00000  9.9137064E-04  1.2112123E-03  9.7032504E-04
   2.00000  1.1897951E-03  1.4879911E-03  1.1500339E-03
   3.00000  1.4972509E-03  1.9310228E-03  1.4188043E-03
   4.00000  2.0785547E-03  2.8030951E-03  1.9018038E-03
   5.00000  3.6511606E-03  5.2563591E-03  3.1281308E-03
   5.20000  4.1445246E-03  6.0166529E-03  3.4936412E-03
   5.40000  4.6421453E-03  6.7658779E-03  3.8520037E-03
   5.60000  5.1298042E-03  7.4820482E-03  4.1971595E-03
   5.80000  5.6122031E-03  8.1765061E-03  4.5398249E-03
   6.00000  6.1005070E-03  8.8699664E-03  4.8942789E-03
   6.20000  6.6065235E-03  9.5817139E-03  5.2724011E-03
   6.40000  7.1414986E-03  1.0328046E-02  5.6827953E-03
   6.60000  7.7162701E-03  1.1123578E-02  6.1314531E-03
   6.80000  8.3416064E-03  1.1983043E-02  6.6225829E-03
   7.00000  9.0283533E-03  1.2922926E-02  7.1593765E-03
   7.20000  9.7872420E-03  1.3962707E-02  7.7448934E-03
   7.40000  1.0628335E-02  1.5125579E-02  8.3832982E-03
   7.60000  1.1560060E-02  1.6438206E-02  9.0814318E-03
   7.80000  1.2587644E-02  1.7928832E-02  9.8502438E-03
   8.00000  1.3710813E-02  1.9623565E-02  1.0705356E-02
   8.20000  1.4920896E-02  2.1541422E-02  1.1666206E-02
   8.40000  1.6198095E-02  2.3689442E-02  1.2753706E-02
   8.60000  1.7510588E-02  2.6059722E-02  1.3986804E-02
   8.80000  1.8817835E-02  2.8630374E-02  1.5378484E-02
   9.00000  2.0079070E-02  3.1370738E-02  1.6931612E-02
   9.20000  2.1264476E-02  3.4247893E-02  1.8634971E-02
   9.40000  2.2363579E-02  3.7229213E-02  2.0460266E-02
   9.60000  2.3386186E-02  4.0277590E-02  2.2361515E-02
   9.80000  2.4355616E-02  4.3341256E-02  2.4278400E-02
   10.0000  2.5298222E-02  4.6344103E-02  2.6143979E-02
   10.2500  2.6468210E-02  4.9851113E-02  2.8308578E-02
   10.5000  2.7640439E-02  5.2848705E-02  3.0203522E-02
   10.7500  2.8801959E-02  5.5075315E-02  3.1787310E-02
   11.0000  2.9922950E-02  5.6313792E-02  3.3064897E-02
   11.2500  3.0962013E-02  5.6446888E-02  3.4069722E-02
   11.5000  3.1870808E-02  5.5491804E-02  3.4846234E-02
   11.7500  3.2610413E-02  5.3599440E-02  3.5440172E-02
   12.0000  3.3167615E-02  5.1018320E-02  3.5893537E-02
   12.2500  3.3558801E-02  4.8033591E-02  3.6242033E-02
   12.5000  3.3821593E-02  4.4906723E-02  3.6515489E-02
   12.7500  3.4001630E-02  4.1838046E-02  3.6739981E-02
   13.0000  3.4142612E-02  3.8957023E-02  3.6939030E-02
   13.2500  3.4281095E-02  3.6331892E-02  3.7133311E-02
   13.5000  3.4444427E-02  3.3987094E-02  3.7339558E-02
   13.7500  3.4650623E-02  3.1920006E-02  3.7569819E-02
   14.0000  3.4909292E-02  3.0113433E-02  3.7831815E-02
   14.2500  3.5222952E-02  2.8543784E-02  3.8129829E-02
   14.5000  3.5588360E-02  2.7186012E-02  3.8465378E-02
   14.7500  3.5997629E-02  2.6016281E-02  3.8837485E-02
   15.0000  3.6439090E-02  2.5013141E-02  3.9242689E-02
   15.2500  3.6897976E-02  2.4157818E-02  3.9674912E-02
   15.5000  3.7357081E-02  2.3434071E-02  4.0125361E-02
   15.7500  3.7797538E-02  2.2827880E-02  4.0582580E-02
   16.0000  3.8199825E-02  2.2327108E-02  4.1032771E-02
   16.2500  3.8545005E-02  2.1921200E-02  4.1460433E-02
   16.5000  3.8816141E-02  2.1600919E-02  4.1849335E-02
   16.7500  3.8999706E-02  2.1358143E-02  4.2183720E-02
   17.0000  3.9086777E-02  2.1185672E-02  4.2449597E-02
   17.2500  3.9073788E-02  2.1077084E-02  4.2635900E-02
   17.5000  3.8962723E-02  2.1026603E-02  4.2735329E-02
   17.7500  3.8760693E-02  2.1029013E-02  4.2744731E-02
   18.0000  3.8479028E-02  2.1079591E-02  4.2665009E-02
   18.2500  3.8132031E-02  2.1174072E-02  4.2500617E-02
   18.5000  3.7735636E-02  2.1308637E-02  4.2258784E-02
   18.7500  3.7306144E-02  2.1479905E-02  4.1948616E-02
   19.0000  3.6859156E-02  2.1684947E-02  4.1580191E-02
   19.2500  3.6408778E-02  2.1921304E-02  4.1163747E-02
   19.5000  3.5967058E-02  2.2186994E-02  4.0708996E-02
   19.7500  3.5543732E-02  2.2480472E-02  4.0224670E-02
   20.0000  3.5146350E-02  2.2800428E-02  3.9718486E-02
   21.0000  3.3921053E-02  2.4311853E-02  3.7612651E-02
   22.0000  3.3400005E-02  2.6103385E-02  3.5602300E-02
   23.0000  3.3538442E-02  2.8031382E-02  3.3784098E-02
   24.0000  3.4125246E-02  2.9905542E-02  3.2131281E-02
   25.0000  3.4805476E-02  3.1539446E-02  3.0602799E-02
   26.0000  3.5123034E-02  3.2812071E-02  2.9191924E-02
   27.0000  3.4705741E-02  3.3678697E-02  2.7934882E-02
   28.0000  3.3498890E-02  3.4146374E-02  2.6885578E-02
   29.0000  3.1773312E-02  3.4252336E-02  2.6060809E-02
   30.0000  2.9922444E-02  3.4051832E-02  2.5441604E-02
   31.0000  2.8239744E-02  3.3610439E-02  2.4990618E-02
   32.0000  2.6843949E-02  3.2990783E-02  2.4661992E-02
   33.0000  2.5727016E-02  3.2240507E-02  2.4408665E-02
   34.0000  2.4825564E-02  3.1389639E-02  2.4187154E-02
   35.0000  2.4069328E-02  3.0456555E-02  2.3960671E-02
   36.0000  2.3405209E-02  2.9457897E-02  2.3702561E-02
   37.0000  2.2805544E-02  2.8419192E-02  2.3400428E-02
   38.0000  2.2266947E-02  2.7385351E-02  2.3060977E-02
   39.0000  2.1804086E-02  2.6430442E-02  2.2714921E-02
   40.0000  2.1440002E-02  2.5655035E-02  2.2414807E-02
