    Energy   (100,001)      (010,001)      (001,110)   
  -25.0000  1.6896533E-04  1.8569881E-04  1.7661085E-04
  -24.0000  1.7531034E-04  1.9270040E-04  1.8335580E-04
  -23.0000  1.8209691E-04  2.0020694E-04  1.9058379E-04
  -22.0000  1.8937095E-04  2.0827379E-04  1.9834682E-04
  -21.0000  1.9718481E-04  2.1696465E-04  2.0670451E-04
  -20.0000  2.0559850E-04  2.2635307E-04  2.1572552E-04
  -19.0000  2.1468106E-04  2.3652452E-04  2.2548928E-04
  -18.0000  2.2451234E-04  2.4757876E-04  2.3608824E-04
  -17.0000  2.3518519E-04  2.5963304E-04  2.4763054E-04
  -16.0000  2.4680819E-04  2.7282597E-04  2.6024353E-04
  -15.0000  2.5950908E-04  2.8732263E-04  2.7407816E-04
  -14.0000  2.7343918E-04  3.0332109E-04  2.8931465E-04
  -13.0000  2.8877907E-04  3.2106099E-04  3.0616994E-04
  -12.0000  3.0574595E-04  3.4083492E-04  3.2490743E-04
  -11.0000  3.2460341E-04  3.6300373E-04  3.4585007E-04
  -10.0000  3.4567450E-04  3.8801736E-04  3.6939812E-04
  -9.00000  3.6935952E-04  4.1644385E-04  3.9605362E-04
  -8.00000  3.9616058E-04  4.4901023E-04  4.2645489E-04
  -7.00000  4.2671639E-04  4.8666168E-04  4.6142603E-04
  -6.00000  4.6185248E-04  5.3064897E-04  5.0204995E-04
  -5.00000  5.0265582E-04  5.8266137E-04  5.4977885E-04
  -4.00000  5.5058905E-04  6.4503552E-04  6.0660738E-04
  -3.00000  6.0767229E-04  7.2109609E-04  6.7535462E-04
  -2.00000  6.7678597E-04  8.1573842E-04  7.6014559E-04
  -1.00000  7.6220520E-04  9.3648389E-04  8.6728373E-04
   0.00000  8.7061617E-04  1.0955401E-03  1.0069546E-03
   1.00000  1.0132557E-03  1.3142454E-03  1.1969014E-03
   2.00000  1.2111165E-03  1.6341245E-03  1.4715398E-03
   3.00000  1.5107585E-03  2.1510642E-03  1.9098256E-03
   4.00000  2.0530945E-03  3.1655813E-03  2.7547057E-03
   5.00000  3.4265846E-03  5.9607000E-03  5.0321875E-03
   5.20000  3.8542544E-03  6.8531519E-03  5.7790216E-03
   5.40000  4.2949983E-03  7.7744471E-03  6.5776711E-03
   5.60000  4.7427416E-03  8.7095664E-03  7.4210834E-03
   5.80000  5.2065849E-03  9.6755527E-03  8.3260088E-03
   6.00000  5.6997656E-03  1.0698252E-02  9.3186505E-03
   6.20000  6.2342985E-03  1.1800934E-02  1.0426659E-02
   6.40000  6.8194678E-03  1.3001214E-02  1.1674738E-02
   6.60000  7.4611659E-03  1.4310391E-02  1.3079365E-02
   6.80000  8.1611664E-03  1.5733380E-02  1.4641208E-02
   7.00000  8.9169234E-03  1.7269662E-02  1.6336249E-02
   7.20000  9.7231212E-03  1.8916159E-02  1.8109013E-02
   7.40000  1.0575499E-02  2.0671844E-02  1.9873093E-02
   7.60000  1.1475463E-02  2.2542175E-02  2.1523502E-02
   7.80000  1.2432315E-02  2.4540520E-02  2.2960584E-02
   8.00000  1.3460892E-02  2.6685465E-02  2.4117810E-02
   8.20000  1.4575936E-02  2.8996237E-02  2.4981524E-02
   8.40000  1.5787021E-02  3.1489878E-02  2.5594287E-02
   8.60000  1.7096664E-02  3.4181017E-02  2.6042055E-02
   8.80000  1.8500936E-02  3.7080275E-02  2.6431737E-02
   9.00000  1.9990122E-02  4.0186011E-02  2.6867091E-02
   9.20000  2.1548162E-02  4.3468758E-02  2.7429674E-02
   9.40000  2.3151996E-02  4.6854537E-02  2.8168935E-02
   9.60000  2.4772443E-02  5.0215864E-02  2.9101734E-02
   9.80000  2.6376445E-02  5.3375867E-02  3.0218283E-02
   10.0000  2.7929376E-02  5.6125620E-02  3.1490104E-02
   10.2500  2.9746068E-02  5.8664837E-02  3.3235970E-02
   10.5000  3.1366818E-02  5.9902550E-02  3.5066456E-02
   10.7500  3.2746990E-02  5.9693234E-02  3.6875284E-02
   11.0000  3.3868440E-02  5.8117889E-02  3.8548333E-02
   11.2500  3.4739664E-02  5.5445038E-02  3.9974454E-02
   11.5000  3.5390268E-02  5.2041110E-02  4.1066394E-02
   11.7500  3.5863163E-02  4.8275542E-02  4.1782033E-02
   12.0000  3.6206219E-02  4.4454239E-02  4.2126881E-02
   12.2500  3.6464798E-02  4.0793173E-02  4.2138883E-02
   12.5000  3.6676651E-02  3.7422959E-02  4.1875211E-02
   12.7500  3.6869660E-02  3.4406455E-02  4.1403708E-02
   13.0000  3.7061845E-02  3.1759016E-02  4.0794180E-02
   13.2500  3.7263082E-02  2.9466736E-02  4.0111405E-02
   13.5000  3.7477549E-02  2.7500280E-02  3.9411119E-02
   13.7500  3.7705719E-02  2.5824305E-02  3.8736917E-02
   14.0000  3.7945780E-02  2.4403236E-02  3.8118453E-02
   14.2500  3.8195002E-02  2.3204185E-02  3.7572882E-02
   14.5000  3.8450798E-02  2.2198043E-02  3.7108108E-02
   14.7500  3.8711052E-02  2.1359665E-02  3.6725519E-02
   15.0000  3.8973806E-02  2.0667671E-02  3.6421671E-02
   15.2500  3.9236593E-02  2.0104063E-02  3.6189311E-02
   15.5000  3.9495719E-02  1.9653795E-02  3.6018136E-02
   15.7500  3.9745696E-02  1.9304318E-02  3.5895506E-02
   16.0000  3.9978992E-02  1.9045168E-02  3.5807258E-02
   16.2500  4.0186209E-02  1.8867577E-02  3.5738646E-02
   16.5000  4.0356692E-02  1.8764129E-02  3.5675386E-02
   16.7500  4.0479532E-02  1.8728463E-02  3.5604694E-02
   17.0000  4.0544833E-02  1.8755008E-02  3.5516188E-02
   17.2500  4.0545040E-02  1.8838762E-02  3.5402505E-02
   17.5000  4.0476112E-02  1.8975115E-02  3.5259562E-02
   17.7500  4.0338309E-02  1.9159719E-02  3.5086439E-02
   18.0000  4.0136444E-02  1.9388396E-02  3.4884938E-02
   18.2500  3.9879542E-02  1.9657093E-02  3.4658937E-02
   18.5000  3.9579978E-02  1.9961877E-02  3.4413653E-02
   18.7500  3.9252265E-02  2.0298960E-02  3.4154925E-02
   19.0000  3.8911689E-02  2.0664768E-02  3.3888597E-02
   19.2500  3.8572977E-02  2.1056030E-02  3.3620029E-02
   19.5000  3.8249154E-02  2.1469893E-02  3.3353745E-02
   19.7500  3.7950685E-02  2.1903958E-02  3.3093247E-02
   20.0000  3.7685059E-02  2.2356127E-02  3.2841030E-02
   21.0000  3.7008058E-02  2.4297196E-02  3.1942849E-02
   22.0000  3.6822000E-02  2.6347037E-02  3.1227345E-02
   23.0000  3.6621012E-02  2.8418650E-02  3.0617395E-02
   24.0000  3.5833059E-02  3.0424419E-02  3.0004373E-02
   25.0000  3.4232065E-02  3.2202048E-02  2.9316764E-02
   26.0000  3.2078985E-02  3.3528487E-02  2.8560774E-02
   27.0000  2.9832619E-02  3.4276499E-02  2.7798150E-02
   28.0000  2.7855047E-02  3.4464219E-02  2.7108555E-02
   29.0000  2.6307562E-02  3.4206346E-02  2.6551456E-02
   30.0000  2.5192043E-02  3.3643822E-02  2.6147710E-02
   31.0000  2.4429070E-02  3.2898047E-02  2.5880454E-02
   32.0000  2.3914160E-02  3.2054916E-02  2.5703418E-02
   33.0000  2.3547935E-02  3.1166725E-02  2.5554537E-02
   34.0000  2.3249201E-02  3.0262822E-02  2.5372255E-02
   35.0000  2.2959391E-02  2.9361477E-02  2.5109133E-02
   36.0000  2.2644039E-02  2.8478227E-02  2.4740477E-02
   37.0000  2.2293248E-02  2.7629756E-02  2.4269079E-02
   38.0000  2.1920612E-02  2.6837196E-02  2.3727951E-02
   39.0000  2.1559946E-02  2.6134064E-02  2.3181630E-02
   40.0000  2.1257080E-02  2.5572314E-02  2.2717230E-02
