    Energy   (100,001)      (010,001)      (001,110)   
  -25.0000  1.7174435E-04  1.8610895E-04  1.7208110E-04
  -24.0000  1.7837662E-04  1.9298253E-04  1.7885383E-04
  -23.0000  1.8548560E-04  2.0034325E-04  1.8612189E-04
  -22.0000  1.9312256E-04  2.0824379E-04  1.9393949E-04
  -21.0000  2.0134626E-04  2.1674457E-04  2.0236888E-04
  -20.0000  2.1022430E-04  2.2591533E-04  2.1148189E-04
  -19.0000  2.1983487E-04  2.3583689E-04  2.2136179E-04
  -18.0000  2.3026886E-04  2.4660345E-04  2.3210570E-04
  -17.0000  2.4163253E-04  2.5832548E-04  2.4382751E-04
  -16.0000  2.5405087E-04  2.7113333E-04  2.5666165E-04
  -15.0000  2.6767184E-04  2.8518189E-04  2.7076792E-04
  -14.0000  2.8267188E-04  3.0065659E-04  2.8633765E-04
  -13.0000  2.9926301E-04  3.1778120E-04  3.0360189E-04
  -12.0000  3.1770222E-04  3.3682826E-04  3.2284220E-04
  -11.0000  3.3830392E-04  3.5813296E-04  3.4440515E-04
  -10.0000  3.6145679E-04  3.8211200E-04  3.6872215E-04
  -9.00000  3.8764697E-04  4.0928981E-04  3.9633708E-04
  -8.00000  4.1749044E-04  4.4033536E-04  4.2794542E-04
  -7.00000  4.5177924E-04  4.7611517E-04  4.6445113E-04
  -6.00000  4.9154913E-04  5.1777136E-04  5.0705139E-04
  -5.00000  5.3818104E-04  5.6683993E-04  5.5736689E-04
  -4.00000  5.9355842E-04  6.2543547E-04  6.1764934E-04
  -3.00000  6.6032042E-04  6.9655138E-04  6.9112669E-04
  -2.00000  7.4228822E-04  7.8457034E-04  7.8260835E-04
  -1.00000  8.4522523E-04  8.9618459E-04  8.9961802E-04
   0.00000  9.7829494E-04  1.0421833E-03  1.0546996E-03
   1.00000  1.1571463E-03  1.2412936E-03  1.2706621E-03
   2.00000  1.4114251E-03  1.5297150E-03  1.5944930E-03
   3.00000  1.8074526E-03  1.9906537E-03  2.1435898E-03
   4.00000  2.5455816E-03  2.8852439E-03  3.3231783E-03
   5.00000  4.4566716E-03  5.3344822E-03  7.0621766E-03
   5.20000  5.0587183E-03  6.1108549E-03  8.3639909E-03
   5.40000  5.6845497E-03  6.9032834E-03  9.7368726E-03
   5.60000  6.3275413E-03  7.6913371E-03  1.1095995E-02
   5.80000  7.0025863E-03  8.4807176E-03  1.2362085E-02
   6.00000  7.7305095E-03  9.2847996E-03  1.3455485E-02
   6.20000  8.5297162E-03  1.0118918E-02  1.4316905E-02
   6.40000  9.4138684E-03  1.1002492E-02  1.4937086E-02
   6.60000  1.0392702E-02  1.1960716E-02  1.5369312E-02
   6.80000  1.1474116E-02  1.3022775E-02  1.5713440E-02
   7.00000  1.2665543E-02  1.4218097E-02  1.6080532E-02
   7.20000  1.3973626E-02  1.5573225E-02  1.6559841E-02
   7.40000  1.5402893E-02  1.7110166E-02  1.7203841E-02
   7.60000  1.6954781E-02  1.8845667E-02  1.8031067E-02
   7.80000  1.8627927E-02  2.0791078E-02  1.9038316E-02
   8.00000  2.0419611E-02  2.2953121E-02  2.0214511E-02
   8.20000  2.2326717E-02  2.5335475E-02  2.1550746E-02
   8.40000  2.4344178E-02  2.7939467E-02  2.3042755E-02
   8.60000  2.6460923E-02  3.0761450E-02  2.4685614E-02
   8.80000  2.8655294E-02  3.3786212E-02  2.6464738E-02
   9.00000  3.0891872E-02  3.6978423E-02  2.8348419E-02
   9.20000  3.3120977E-02  4.0275201E-02  3.0285081E-02
   9.40000  3.5280927E-02  4.3582239E-02  3.2206254E-02
   9.60000  3.7302202E-02  4.6774742E-02  3.4035652E-02
   9.80000  3.9112821E-02  4.9703602E-02  3.5703741E-02
   10.0000  4.0645539E-02  5.2208016E-02  3.7162805E-02
   10.2500  4.2091497E-02  5.4510915E-02  3.8668017E-02
   10.5000  4.2969313E-02  5.5688703E-02  3.9843727E-02
   10.7500  4.3294710E-02  5.5654300E-02  4.0750339E-02
   11.0000  4.3141320E-02  5.4483119E-02  4.1450494E-02
   11.2500  4.2615629E-02  5.2388047E-02  4.1984485E-02
   11.5000  4.1832876E-02  4.9658600E-02  4.2361520E-02
   11.7500  4.0899926E-02  4.6591845E-02  4.2565849E-02
   12.0000  3.9905662E-02  4.3440261E-02  4.2572224E-02
   12.2500  3.8918755E-02  4.0387188E-02  4.2363271E-02
   12.5000  3.7989455E-02  3.7546234E-02  4.1941886E-02
   12.7500  3.7152450E-02  3.4974319E-02  4.1335388E-02
   13.0000  3.6429794E-02  3.2688680E-02  4.0592094E-02
   13.2500  3.5832913E-02  3.0682247E-02  3.9772426E-02
   13.5000  3.5363682E-02  2.8935362E-02  3.8937543E-02
   13.7500  3.5015986E-02  2.7423370E-02  3.8140132E-02
   14.0000  3.4778152E-02  2.6120665E-02  3.7420285E-02
   14.2500  3.4635218E-02  2.5002634E-02  3.6805149E-02
   14.5000  3.4570394E-02  2.4046791E-02  3.6309843E-02
   14.7500  3.4565946E-02  2.3233391E-02  3.5938800E-02
   15.0000  3.4604015E-02  2.2545441E-02  3.5687678E-02
   15.2500  3.4667416E-02  2.1968364E-02  3.5545484E-02
   15.5000  3.4740305E-02  2.1489629E-02  3.5496453E-02
   15.7500  3.4808729E-02  2.1098445E-02  3.5521584E-02
   16.0000  3.4861098E-02  2.0785524E-02  3.5599975E-02
   16.2500  3.4888605E-02  2.0542869E-02  3.5710094E-02
   16.5000  3.4885541E-02  2.0363600E-02  3.5831047E-02
   16.7500  3.4849470E-02  2.0241802E-02  3.5943809E-02
   17.0000  3.4781187E-02  2.0172396E-02  3.6032323E-02
   17.2500  3.4684421E-02  2.0151018E-02  3.6084325E-02
   17.5000  3.4565294E-02  2.0173926E-02  3.6091786E-02
   17.7500  3.4431586E-02  2.0237912E-02  3.6050912E-02
   18.0000  3.4291910E-02  2.0340224E-02  3.5961741E-02
   18.2500  3.4154907E-02  2.0478498E-02  3.5827415E-02
   18.5000  3.4028556E-02  2.0650696E-02  3.5653285E-02
   18.7500  3.3919663E-02  2.0855060E-02  3.5445982E-02
   19.0000  3.3833541E-02  2.1090075E-02  3.5212566E-02
   19.2500  3.3773855E-02  2.1354469E-02  3.4959818E-02
   19.5000  3.3742608E-02  2.1647207E-02  3.4693711E-02
   19.7500  3.3740172E-02  2.1967448E-02  3.4419097E-02
   20.0000  3.3765315E-02  2.2314372E-02  3.4139654E-02
   21.0000  3.4066416E-02  2.3939714E-02  3.3019598E-02
   22.0000  3.4412606E-02  2.5859653E-02  3.1928096E-02
   23.0000  3.4384672E-02  2.7946337E-02  3.0818248E-02
   24.0000  3.3677303E-02  3.0001644E-02  2.9643969E-02
   25.0000  3.2259101E-02  3.1779395E-02  2.8418942E-02
   26.0000  3.0353994E-02  3.3148934E-02  2.7194371E-02
   27.0000  2.8308676E-02  3.4083863E-02  2.6050486E-02
   28.0000  2.6446285E-02  3.4601715E-02  2.5078895E-02
   29.0000  2.4970258E-02  3.4743651E-02  2.4346030E-02
   30.0000  2.3930943E-02  3.4574848E-02  2.3865648E-02
   31.0000  2.3263715E-02  3.4171517E-02  2.3597123E-02
   32.0000  2.2857573E-02  3.3599677E-02  2.3463352E-02
   33.0000  2.2603719E-02  3.2905143E-02  2.3373675E-02
   34.0000  2.2415316E-02  3.2115432E-02  2.3242609E-02
   35.0000  2.2231660E-02  3.1247371E-02  2.3004714E-02
   36.0000  2.2017906E-02  3.0316329E-02  2.2629045E-02
   37.0000  2.1764140E-02  2.9345446E-02  2.2132044E-02
   38.0000  2.1483072E-02  2.8375583E-02  2.1579368E-02
   39.0000  2.1205343E-02  2.7476015E-02  2.1063980E-02
   40.0000  2.0970444E-02  2.6743463E-02  2.0661522E-02
