    Energy   (100,001)      (010,001)      (001,110)   
  -25.0000  1.6905605E-04  1.9071968E-04  1.7263711E-04
  -24.0000  1.7534454E-04  1.9762206E-04  1.7918400E-04
  -23.0000  1.8206795E-04  2.0500704E-04  1.8619468E-04
  -22.0000  1.8927126E-04  2.1292628E-04  1.9371845E-04
  -21.0000  1.9700578E-04  2.2143901E-04  2.0181170E-04
  -20.0000  2.0533021E-04  2.3061347E-04  2.1053925E-04
  -19.0000  2.1431208E-04  2.4052870E-04  2.1997597E-04
  -18.0000  2.2402944E-04  2.5127671E-04  2.3020875E-04
  -17.0000  2.3457294E-04  2.6296523E-04  2.4133905E-04
  -16.0000  2.4604849E-04  2.7572126E-04  2.5348600E-04
  -15.0000  2.5858055E-04  2.8969546E-04  2.6679042E-04
  -14.0000  2.7231642E-04  3.0506793E-04  2.8141997E-04
  -13.0000  2.8743158E-04  3.2205572E-04  2.9757576E-04
  -12.0000  3.0413682E-04  3.4092268E-04  3.1550117E-04
  -11.0000  3.2268752E-04  3.6199277E-04  3.3549345E-04
  -10.0000  3.4339603E-04  3.8566798E-04  3.5791945E-04
  -9.00000  3.6664852E-04  4.1245316E-04  3.8323726E-04
  -8.00000  3.9292813E-04  4.4299097E-04  4.1202639E-04
  -7.00000  4.2284755E-04  4.7811188E-04  4.4503103E-04
  -6.00000  4.5719586E-04  5.1890787E-04  4.8322327E-04
  -5.00000  4.9700755E-04  5.6684361E-04  5.2789836E-04
  -4.00000  5.4366755E-04  6.2393010E-04  5.8082303E-04
  -3.00000  5.9907676E-04  6.9300608E-04  6.4447580E-04
  -2.00000  6.6592486E-04  7.7821636E-04  7.2245583E-04
  -1.00000  7.4816605E-04  8.8587409E-04  8.2022258E-04
   0.00000  8.5191089E-04  1.0261386E-03  9.4654492E-04
   1.00000  9.8727357E-04  1.2166377E-03  1.1166639E-03
   2.00000  1.1727869E-03  1.4915449E-03  1.3603424E-03
   3.00000  1.4485738E-03  1.9301704E-03  1.7477454E-03
   4.00000  1.9328085E-03  2.7870502E-03  2.5100019E-03
   5.00000  3.1102363E-03  5.1635625E-03  4.6599429E-03
   5.20000  3.4734159E-03  5.8921783E-03  5.3074413E-03
   5.40000  3.8481093E-03  6.6070806E-03  5.9287022E-03
   5.60000  4.2280865E-03  7.2906709E-03  6.5109762E-03
   5.80000  4.6192006E-03  7.9599941E-03  7.0754354E-03
   6.00000  5.0310975E-03  8.6427596E-03  7.6512072E-03
   6.20000  5.4735133E-03  9.3661701E-03  8.2640487E-03
   6.40000  5.9557503E-03  1.0154591E-02  8.9346401E-03
   6.60000  6.4869898E-03  1.1029658E-02  9.6794623E-03
   6.80000  7.0765158E-03  1.2010400E-02  1.0511674E-02
   7.00000  7.7335592E-03  1.3112838E-02  1.1441270E-02
   7.20000  8.4666535E-03  1.4349181E-02  1.2474260E-02
   7.40000  9.2824165E-03  1.5726831E-02  1.3611096E-02
   7.60000  1.0183863E-02  1.7247636E-02  1.4845184E-02
   7.80000  1.1168918E-02  1.8908627E-02  1.6162614E-02
   8.00000  1.2230343E-02  2.0705397E-02  1.7544399E-02
   8.20000  1.3358043E-02  2.2637472E-02  1.8971664E-02
   8.40000  1.4543372E-02  2.4712629E-02  2.0431912E-02
   8.60000  1.5783435E-02  2.6946698E-02  2.1922839E-02
   8.80000  1.7083090E-02  2.9358352E-02  2.3451072E-02
   9.00000  1.8453756E-02  3.1961569E-02  2.5025967E-02
   9.20000  1.9909874E-02  3.4757993E-02  2.6651390E-02
   9.40000  2.1464418E-02  3.7729144E-02  2.8319840E-02
   9.60000  2.3124360E-02  4.0828328E-02  3.0011549E-02
   9.80000  2.4886534E-02  4.3974259E-02  3.1697260E-02
   10.0000  2.6734096E-02  4.7049574E-02  3.3341894E-02
   10.2500  2.9111496E-02  5.0566534E-02  3.5282311E-02
   10.5000  3.1468610E-02  5.3418531E-02  3.7026248E-02
   10.7500  3.3675724E-02  5.5311941E-02  3.8507578E-02
   11.0000  3.5596329E-02  5.6054717E-02  3.9674096E-02
   11.2500  3.7117595E-02  5.5608410E-02  4.0494452E-02
   11.5000  3.8179747E-02  5.4097421E-02  4.0960845E-02
   11.7500  3.8790737E-02  5.1767865E-02  4.1088518E-02
   12.0000  3.9019731E-02  4.8915848E-02  4.0916179E-02
   12.2500  3.8971984E-02  4.5820586E-02  4.0503254E-02
   12.5000  3.8759072E-02  4.2704369E-02  3.9921322E-02
   12.7500  3.8478120E-02  3.9719744E-02  3.9241881E-02
   13.0000  3.8202662E-02  3.6955706E-02  3.8526356E-02
   13.2500  3.7981460E-02  3.4453270E-02  3.7823378E-02
   13.5000  3.7841702E-02  3.2222018E-02  3.7170723E-02
   13.7500  3.7794102E-02  3.0253265E-02  3.6596931E-02
   14.0000  3.7837974E-02  2.8529016E-02  3.6121964E-02
   14.2500  3.7965269E-02  2.7027423E-02  3.5757982E-02
   14.5000  3.8163331E-02  2.5725862E-02  3.5510376E-02
   14.7500  3.8416640E-02  2.4602577E-02  3.5378751E-02
   15.0000  3.8707867E-02  2.3637485E-02  3.5357666E-02
   15.2500  3.9018564E-02  2.2812506E-02  3.5437097E-02
   15.5000  3.9329751E-02  2.2111634E-02  3.5602745E-02
   15.7500  3.9622540E-02  2.1520857E-02  3.5836394E-02
   16.0000  3.9878899E-02  2.1028007E-02  3.6116498E-02
   16.2500  4.0082520E-02  2.0622580E-02  3.6419175E-02
   16.5000  4.0219752E-02  2.0295541E-02  3.6719637E-02
   16.7500  4.0280484E-02  2.0039137E-02  3.6993962E-02
   17.0000  4.0258855E-02  1.9846723E-02  3.7220988E-02
   17.2500  4.0153671E-02  1.9712613E-02  3.7384002E-02
   17.5000  3.9968444E-02  1.9631957E-02  3.7471942E-02
   17.7500  3.9711015E-02  1.9600628E-02  3.7479896E-02
   18.0000  3.9392816E-02  1.9615139E-02  3.7408857E-02
   18.2500  3.9027838E-02  1.9672563E-02  3.7264841E-02
   18.5000  3.8631454E-02  1.9770469E-02  3.7057590E-02
   18.7500  3.8219215E-02  1.9906871E-02  3.6799093E-02
   19.0000  3.7805748E-02  2.0080189E-02  3.6502160E-02
   19.2500  3.7403843E-02  2.0289229E-02  3.6179187E-02
   19.5000  3.7023761E-02  2.0533164E-02  3.5841205E-02
   19.7500  3.6672837E-02  2.0811479E-02  3.5497281E-02
   20.0000  3.6355438E-02  2.1123790E-02  3.5154377E-02
   21.0000  3.5429547E-02  2.2697559E-02  3.3878598E-02
   22.0000  3.4904652E-02  2.4740196E-02  3.2819445E-02
   23.0000  3.4446653E-02  2.7116826E-02  3.1899547E-02
   24.0000  3.3780160E-02  2.9568911E-02  3.1001941E-02
   25.0000  3.2780214E-02  3.1830323E-02  3.0053370E-02
   26.0000  3.1463638E-02  3.3660394E-02  2.9047164E-02
   27.0000  2.9954718E-02  3.4890685E-02  2.8034321E-02
   28.0000  2.8433344E-02  3.5483191E-02  2.7088825E-02
   29.0000  2.7063336E-02  3.5529227E-02  2.6273085E-02
   30.0000  2.5935527E-02  3.5189299E-02  2.5621604E-02
   31.0000  2.5061340E-02  3.4622921E-02  2.5136694E-02
   32.0000  2.4402100E-02  3.3947544E-02  2.4790606E-02
   33.0000  2.3900736E-02  3.3231102E-02  2.4535671E-02
   34.0000  2.3501068E-02  3.2502631E-02  2.4316862E-02
   35.0000  2.3156524E-02  3.1767418E-02  2.4082022E-02
   36.0000  2.2833851E-02  3.1021146E-02  2.3790070E-02
   37.0000  2.2515213E-02  3.0262152E-02  2.3419570E-02
   38.0000  2.2199789E-02  2.9504006E-02  2.2978786E-02
   39.0000  2.1904327E-02  2.8790306E-02  2.2514512E-02
   40.0000  2.1658589E-02  2.8199911E-02  2.2107155E-02
