    Energy   (100,001)      (010,001)      (001,110)   
  -25.0000  1.6791506E-04  1.8694016E-04  1.7092931E-04
  -24.0000  1.7430931E-04  1.9388824E-04  1.7742785E-04
  -23.0000  1.8115388E-04  2.0133096E-04  1.8438573E-04
  -22.0000  1.8849609E-04  2.0932196E-04  1.9185147E-04
  -21.0000  1.9638996E-04  2.1792280E-04  1.9988056E-04
  -20.0000  2.0489748E-04  2.2720453E-04  2.0853670E-04
  -19.0000  2.1409006E-04  2.3724952E-04  2.1789336E-04
  -18.0000  2.2405041E-04  2.4815382E-04  2.2803570E-04
  -17.0000  2.3487484E-04  2.6003009E-04  2.3906299E-04
  -16.0000  2.4667610E-04  2.7301128E-04  2.5109162E-04
  -15.0000  2.5958709E-04  2.8725543E-04  2.6425890E-04
  -14.0000  2.7376544E-04  3.0295176E-04  2.7872795E-04
  -13.0000  2.8939959E-04  3.2032875E-04  2.9469402E-04
  -12.0000  3.0671655E-04  3.3966467E-04  3.1239274E-04
  -11.0000  3.2599232E-04  3.6130187E-04  3.3211108E-04
  -10.0000  3.4756572E-04  3.8566610E-04  3.5420204E-04
  -9.00000  3.7185737E-04  4.1329333E-04  3.7910478E-04
  -8.00000  3.9939584E-04  4.4486745E-04  4.0737257E-04
  -7.00000  4.3085472E-04  4.8127460E-04  4.3971252E-04
  -6.00000  4.6710622E-04  5.2368327E-04  4.7704335E-04
  -5.00000  5.0930077E-04  5.7366563E-04  5.2058170E-04
  -4.00000  5.5898891E-04  6.3338744E-04  5.7197554E-04
  -3.00000  6.1831516E-04  7.0591691E-04  6.3351847E-04
  -2.00000  6.9034060E-04  7.9575142E-04  7.0851126E-04
  -1.00000  7.7961100E-04  9.0976966E-04  8.0191052E-04
   0.00000  8.9323483E-04  1.0590894E-03  9.2159065E-04
   1.00000  1.0431447E-03  1.2630846E-03  1.0810852E-03
   2.00000  1.2515784E-03  1.5594475E-03  1.3065628E-03
   3.00000  1.5676536E-03  2.0357418E-03  1.6593944E-03
   4.00000  2.1391276E-03  2.9714365E-03  2.3425997E-03
   5.00000  3.5850367E-03  5.5795110E-03  4.2658490E-03
   5.20000  4.0411444E-03  6.4004217E-03  4.8519368E-03
   5.40000  4.5155178E-03  7.2265348E-03  5.4082348E-03
   5.60000  4.9983841E-03  8.0357679E-03  5.9049436E-03
   5.80000  5.4934123E-03  8.8388105E-03  6.3437227E-03
   6.00000  6.0080419E-03  9.6564849E-03  6.7433170E-03
   6.20000  6.5495429E-03  1.0509289E-02  7.1315355E-03
   6.40000  7.1249084E-03  1.1415620E-02  7.5396865E-03
   6.60000  7.7414335E-03  1.2392519E-02  7.9971751E-03
   6.80000  8.4069613E-03  1.3456713E-02  8.5281465E-03
   7.00000  9.1298794E-03  1.4625388E-02  9.1509848E-03
   7.20000  9.9190487E-03  1.5916545E-02  9.8795138E-03
   7.40000  1.0783724E-02  1.7348883E-02  1.0724557E-02
   7.60000  1.1733471E-02  1.8941244E-02  1.1695209E-02
   7.80000  1.2778088E-02  2.0711672E-02  1.2799632E-02
   8.00000  1.3927513E-02  2.2676185E-02  1.4045296E-02
   8.20000  1.5191609E-02  2.4847454E-02  1.5438471E-02
   8.40000  1.6579661E-02  2.7233610E-02  1.6982747E-02
   8.60000  1.8099343E-02  2.9837294E-02  1.8676424E-02
   8.80000  1.9755058E-02  3.2654616E-02  2.0509198E-02
   9.00000  2.1545724E-02  3.5673218E-02  2.2459330E-02
   9.20000  2.3462332E-02  3.8868386E-02  2.4492959E-02
   9.40000  2.5485739E-02  4.2196760E-02  2.6566586E-02
   9.60000  2.7585201E-02  4.5588479E-02  2.8632460E-02
   9.80000  2.9718016E-02  4.8939888E-02  3.0645211E-02
   10.0000  3.1830191E-02  5.2109454E-02  3.2567419E-02
   10.2500  3.4343972E-02  5.5544642E-02  3.4802830E-02
   10.5000  3.6594068E-02  5.8042187E-02  3.6825388E-02
   10.7500  3.8465482E-02  5.9282366E-02  3.8625065E-02
   11.0000  3.9883281E-02  5.9106720E-02  4.0201514E-02
   11.2500  4.0824109E-02  5.7577384E-02  4.1553831E-02
   11.5000  4.1317187E-02  5.4957178E-02  4.2675594E-02
   11.7500  4.1433309E-02  5.1620144E-02  4.3555730E-02
   12.0000  4.1265372E-02  4.7944303E-02  4.4182917E-02
   12.2500  4.0909212E-02  4.4236999E-02  4.4549516E-02
   12.5000  4.0450430E-02  4.0708101E-02  4.4655105E-02
   12.7500  3.9957735E-02  3.7477316E-02  4.4511506E-02
   13.0000  3.9481253E-02  3.4596212E-02  4.4145697E-02
   13.2500  3.9054084E-02  3.2071621E-02  4.3598336E-02
   13.5000  3.8695264E-02  2.9884466E-02  4.2919141E-02
   13.7500  3.8412203E-02  2.8003423E-02  4.2159759E-02
   14.0000  3.8202620E-02  2.6393847E-02  4.1366685E-02
   14.2500  3.8057101E-02  2.5022385E-02  4.0577637E-02
   14.5000  3.7961858E-02  2.3858756E-02  3.9821085E-02
   14.7500  3.7900892E-02  2.2876291E-02  3.9117041E-02
   15.0000  3.7857465E-02  2.2051952E-02  3.8478178E-02
   15.2500  3.7815161E-02  2.1366103E-02  3.7911043E-02
   15.5000  3.7758776E-02  2.0802137E-02  3.7417247E-02
   15.7500  3.7675138E-02  2.0346065E-02  3.6994568E-02
   16.0000  3.7553913E-02  1.9986096E-02  3.6637965E-02
   16.2500  3.7388369E-02  1.9712256E-02  3.6340510E-02
   16.5000  3.7176016E-02  1.9516060E-02  3.6094254E-02
   16.7500  3.6919006E-02  1.9390233E-02  3.5890978E-02
   17.0000  3.6624140E-02  1.9328482E-02  3.5722821E-02
   17.2500  3.6302392E-02  1.9325322E-02  3.5582717E-02
   17.5000  3.5967952E-02  1.9375929E-02  3.5464645E-02
   17.7500  3.5636896E-02  1.9476033E-02  3.5363707E-02
   18.0000  3.5325677E-02  1.9621834E-02  3.5276064E-02
   18.2500  3.5049682E-02  1.9809931E-02  3.5198802E-02
   18.5000  3.4822031E-02  2.0037279E-02  3.5129753E-02
   18.7500  3.4652777E-02  2.0301151E-02  3.5067314E-02
   19.0000  3.4548505E-02  2.0599127E-02  3.5010279E-02
   19.2500  3.4512335E-02  2.0929112E-02  3.4957683E-02
   19.5000  3.4544186E-02  2.1289351E-02  3.4908661E-02
   19.7500  3.4641152E-02  2.1678391E-02  3.4862313E-02
   20.0000  3.4797774E-02  2.2094873E-02  3.4817570E-02
   21.0000  3.5835096E-02  2.3994003E-02  3.4622271E-02
   22.0000  3.6983082E-02  2.6148529E-02  3.4288880E-02
   23.0000  3.7519749E-02  2.8385719E-02  3.3643478E-02
   24.0000  3.6941853E-02  3.0499645E-02  3.2573153E-02
   25.0000  3.5198546E-02  3.2293422E-02  3.1109123E-02
   26.0000  3.2711710E-02  3.3621449E-02  2.9431609E-02
   27.0000  3.0095329E-02  3.4417873E-02  2.7788269E-02
   28.0000  2.7775446E-02  3.4728845E-02  2.6361708E-02
   29.0000  2.5925935E-02  3.4656621E-02  2.5244831E-02
   30.0000  2.4558321E-02  3.4311004E-02  2.4456719E-02
   31.0000  2.3603962E-02  3.3788896E-02  2.3957899E-02
   32.0000  2.2965774E-02  3.3160007E-02  2.3672380E-02
   33.0000  2.2544180E-02  3.2461468E-02  2.3510517E-02
   34.0000  2.2249149E-02  3.1704253E-02  2.3386554E-02
   35.0000  2.2006232E-02  3.0886555E-02  2.3230272E-02
   36.0000  2.1761130E-02  3.0007995E-02  2.2995330E-02
   37.0000  2.1484342E-02  2.9081840E-02  2.2666432E-02
   38.0000  2.1174716E-02  2.8144935E-02  2.2264802E-02
   39.0000  2.0859305E-02  2.7266532E-02  2.1847287E-02
   40.0000  2.0584993E-02  2.6546047E-02  2.1489216E-02
