    Energy   (100,001)      (010,001)      (001,110)   
  -25.0000  1.7368189E-04  1.8526849E-04  1.8707243E-04
  -24.0000  1.7968157E-04  1.9229862E-04  1.9352339E-04
  -23.0000  1.8607260E-04  1.9983714E-04  2.0040073E-04
  -22.0000  1.9289362E-04  2.0793981E-04  2.0774747E-04
  -21.0000  2.0018850E-04  2.1667078E-04  2.1561254E-04
  -20.0000  2.0800727E-04  2.2610414E-04  2.2405191E-04
  -19.0000  2.1640716E-04  2.3632590E-04  2.3312984E-04
  -18.0000  2.2545404E-04  2.4743653E-04  2.4292053E-04
  -17.0000  2.3522405E-04  2.5955403E-04  2.5351008E-04
  -16.0000  2.4580576E-04  2.7281791E-04  2.6499901E-04
  -15.0000  2.5730273E-04  2.8739425E-04  2.7750542E-04
  -14.0000  2.6983696E-04  3.0348232E-04  2.9116901E-04
  -13.0000  2.8355315E-04  3.2132315E-04  3.0615634E-04
  -12.0000  2.9862433E-04  3.4121098E-04  3.2266762E-04
  -11.0000  3.1525923E-04  3.6350860E-04  3.4094577E-04
  -10.0000  3.3371223E-04  3.8866833E-04  3.6128868E-04
  -9.00000  3.5429673E-04  4.1726112E-04  3.8406586E-04
  -8.00000  3.7740390E-04  4.5001775E-04  4.0974188E-04
  -7.00000  4.0352903E-04  4.8788832E-04  4.3890976E-04
  -6.00000  4.3331012E-04  5.3213042E-04  4.7234008E-04
  -5.00000  4.6758547E-04  5.8444346E-04  5.1105518E-04
  -4.00000  5.0748334E-04  6.4718016E-04  5.5644581E-04
  -3.00000  5.5456742E-04  7.2369318E-04  6.1046230E-04
  -2.00000  6.1108585E-04  8.1893085E-04  6.7594582E-04
  -1.00000  6.8042751E-04  9.4052513E-04  7.5724278E-04
   0.00000  7.6803454E-04  1.1009391E-03  8.6144984E-04
   1.00000  8.8345461E-04  1.3221756E-03  1.0012534E-03
   2.00000  1.0457792E-03  1.6477702E-03  1.2025660E-03
   3.00000  1.3020043E-03  2.1811439E-03  1.5306993E-03
   4.00000  1.8169362E-03  3.2620199E-03  2.2202459E-03
   5.00000  3.3485653E-03  6.3888027E-03  4.3852318E-03
   5.20000  3.8097095E-03  7.3652023E-03  5.0532991E-03
   5.40000  4.2401729E-03  8.3296410E-03  5.6642676E-03
   5.60000  4.6255194E-03  9.2563998E-03  6.1737149E-03
   5.80000  4.9770472E-03  1.0163258E-02  6.5862563E-03
   6.00000  5.3114187E-03  1.1078405E-02  6.9325838E-03
   6.20000  5.6409050E-03  1.2024849E-02  7.2484946E-03
   6.40000  5.9710006E-03  1.3018655E-02  7.5622679E-03
   6.60000  6.3012349E-03  1.4073020E-02  7.8897213E-03
   6.80000  6.6283050E-03  1.5203951E-02  8.2356984E-03
   7.00000  6.9505308E-03  1.6434059E-02  8.6002312E-03
   7.20000  7.2711473E-03  1.7792101E-02  8.9856869E-03
   7.40000  7.5985389E-03  1.9309216E-02  9.4007348E-03
   7.60000  7.9440295E-03  2.1015162E-02  9.8599649E-03
   7.80000  8.3192573E-03  2.2936669E-02  1.0381109E-02
   8.00000  8.7345243E-03  2.5097605E-02  1.0981897E-02
   8.20000  9.1982250E-03  2.7519071E-02  1.1677023E-02
   8.40000  9.7167835E-03  3.0217321E-02  1.2474966E-02
   8.60000  1.0294581E-02  3.3198416E-02  1.3374846E-02
   8.80000  1.0933638E-02  3.6449664E-02  1.4364407E-02
   9.00000  1.1633085E-02  3.9928879E-02  1.5420422E-02
   9.20000  1.2388595E-02  4.3553431E-02  1.6512082E-02
   9.40000  1.3192067E-02  4.7192481E-02  1.7606485E-02
   9.60000  1.4031813E-02  5.0667305E-02  1.8674252E-02
   9.80000  1.4893538E-02  5.3764865E-02  1.9693474E-02
   10.0000  1.5762046E-02  5.6266653E-02  2.0651356E-02
   10.2500  1.6836366E-02  5.8281551E-02  2.1757614E-02
   10.5000  1.7881654E-02  5.8891771E-02  2.2774863E-02
   10.7500  1.8894173E-02  5.8145670E-02  2.3735591E-02
   11.0000  1.9882880E-02  5.6289413E-02  2.4683555E-02
   11.2500  2.0862329E-02  5.3660313E-02  2.5655747E-02
   11.5000  2.1844964E-02  5.0593854E-02  2.6669228E-02
   11.7500  2.2836595E-02  4.7369242E-02  2.7718655E-02
   12.0000  2.3836073E-02  4.4187841E-02  2.8782039E-02
   12.2500  2.4837337E-02  4.1175838E-02  2.9829551E-02
   12.5000  2.5831651E-02  3.8399426E-02  3.0828980E-02
   12.7500  2.6810141E-02  3.5883253E-02  3.1749338E-02
   13.0000  2.7766719E-02  3.3627187E-02  3.2567639E-02
   13.2500  2.8699584E-02  3.1618661E-02  3.3275259E-02
   13.5000  2.9610872E-02  2.9840220E-02  3.3879395E-02
   13.7500  3.0505423E-02  2.8273512E-02  3.4400064E-02
   14.0000  3.1389331E-02  2.6901027E-02  3.4864900E-02
   14.2500  3.2268530E-02  2.5706618E-02  3.5303714E-02
   14.5000  3.3147518E-02  2.4675462E-02  3.5744012E-02
   14.7500  3.4028317E-02  2.3793872E-02  3.6207937E-02
   15.0000  3.4909696E-02  2.3049123E-02  3.6710561E-02
   15.2500  3.5786704E-02  2.2429343E-02  3.7259187E-02
   15.5000  3.6650513E-02  2.1923446E-02  3.7853317E-02
   15.7500  3.7488611E-02  2.1521109E-02  3.8485044E-02
   16.0000  3.8285313E-02  2.1212748E-02  3.9139805E-02
   16.2500  3.9022609E-02  2.0989498E-02  3.9797477E-02
   16.5000  3.9681317E-02  2.0843189E-02  4.0433902E-02
   16.7500  4.0242537E-02  2.0766314E-02  4.1022827E-02
   17.0000  4.0689286E-02  2.0752013E-02  4.1538184E-02
   17.2500  4.1008204E-02  2.0794047E-02  4.1956499E-02
   17.5000  4.1191103E-02  2.0886782E-02  4.2259122E-02
   17.7500  4.1236126E-02  2.1025171E-02  4.2433940E-02
   18.0000  4.1148304E-02  2.1204735E-02  4.2476285E-02
   18.2500  4.0939375E-02  2.1421536E-02  4.2388943E-02
   18.5000  4.0626867E-02  2.1672147E-02  4.2181293E-02
   18.7500  4.0232574E-02  2.1953613E-02  4.1867807E-02
   19.0000  3.9780654E-02  2.2263417E-02  4.1466201E-02
   19.2500  3.9295617E-02  2.2599461E-02  4.0995499E-02
   19.5000  3.8800464E-02  2.2960038E-02  4.0474296E-02
   19.7500  3.8315272E-02  2.3343762E-02  3.9919455E-02
   20.0000  3.7856547E-02  2.3749307E-02  3.9345572E-02
   21.0000  3.6513717E-02  2.5546759E-02  3.7091057E-02
   22.0000  3.6184813E-02  2.7492990E-02  3.5226065E-02
   23.0000  3.6692386E-02  2.9389236E-02  3.3826522E-02
   24.0000  3.7513424E-02  3.1015474E-02  3.2773012E-02
   25.0000  3.7994908E-02  3.2194635E-02  3.1915056E-02
   26.0000  3.7640840E-02  3.2857296E-02  3.1142967E-02
   27.0000  3.6397269E-02  3.3048693E-02  3.0411870E-02
   28.0000  3.4625735E-02  3.2877435E-02  2.9733044E-02
   29.0000  3.2775359E-02  3.2460393E-02  2.9145971E-02
   30.0000  3.1132535E-02  3.1902834E-02  2.8689990E-02
   31.0000  2.9795968E-02  3.1290307E-02  2.8384073E-02
   32.0000  2.8747534E-02  3.0664670E-02  2.8215368E-02
   33.0000  2.7931112E-02  3.0034554E-02  2.8152806E-02
   34.0000  2.7290598E-02  2.9393054E-02  2.8160128E-02
   35.0000  2.6779379E-02  2.8727229E-02  2.8200129E-02
   36.0000  2.6361677E-02  2.8026045E-02  2.8236927E-02
   37.0000  2.6010705E-02  2.7288399E-02  2.8239331E-02
   38.0000  2.5706836E-02  2.6532584E-02  2.8187103E-02
   39.0000  2.5440863E-02  2.5808835E-02  2.8082459E-02
   40.0000  2.5221355E-02  2.5203462E-02  2.7961313E-02
