    Energy   (100,001)      (010,001)      (001,110)   
  -25.0000  1.7097871E-04  1.7643371E-04  1.8505960E-04
  -24.0000  1.7709667E-04  1.8354807E-04  1.9174827E-04
  -23.0000  1.8362387E-04  1.9119840E-04  1.9889889E-04
  -22.0000  1.9060141E-04  1.9944532E-04  2.0656006E-04
  -21.0000  1.9807602E-04  2.0835877E-04  2.1478732E-04
  -20.0000  2.0610102E-04  2.1801984E-04  2.2364454E-04
  -19.0000  2.1473754E-04  2.2852302E-04  2.3320547E-04
  -18.0000  2.2405597E-04  2.3997906E-04  2.4355573E-04
  -17.0000  2.3413776E-04  2.5251859E-04  2.5479534E-04
  -16.0000  2.4507773E-04  2.6629670E-04  2.6704183E-04
  -15.0000  2.5698690E-04  2.8149886E-04  2.8043423E-04
  -14.0000  2.6999606E-04  2.9834863E-04  2.9513831E-04
  -13.0000  2.8426043E-04  3.1711776E-04  3.1135322E-04
  -12.0000  2.9996566E-04  3.3813979E-04  3.2932045E-04
  -11.0000  3.1733565E-04  3.6182825E-04  3.4933572E-04
  -10.0000  3.3664306E-04  3.8870182E-04  3.7176522E-04
  -9.00000  3.5822345E-04  4.1941944E-04  3.9706803E-04
  -8.00000  3.8249479E-04  4.5483021E-04  4.2582789E-04
  -7.00000  4.0998483E-04  4.9604618E-04  4.5879907E-04
  -6.00000  4.4137053E-04  5.4455076E-04  4.9697456E-04
  -5.00000  4.7753629E-04  6.0236517E-04  5.4169034E-04
  -4.00000  5.1966298E-04  6.7231239E-04  5.9479091E-04
  -3.00000  5.6936935E-04  7.5845232E-04  6.5890365E-04
  -2.00000  6.2894787E-04  8.6683429E-04  7.3791816E-04
  -1.00000  7.0178289E-04  1.0068761E-03  8.3788054E-04
   0.00000  7.9315352E-04  1.1940881E-03  9.6880862E-04
   1.00000  9.1195022E-04  1.4560177E-03  1.1488112E-03
   2.00000  1.0749496E-03  1.8471805E-03  1.4150015E-03
   3.00000  1.3202053E-03  2.4954927E-03  1.8598163E-03
   4.00000  1.7673181E-03  3.8062820E-03  2.8031634E-03
   5.00000  2.9379801E-03  7.5259954E-03  5.7459299E-03
   5.20000  3.3090852E-03  8.7366866E-03  6.7223004E-03
   5.40000  3.6896329E-03  9.9992987E-03  7.7052086E-03
   5.60000  4.0670274E-03  1.1290993E-02  8.6338153E-03
   5.80000  4.4393055E-03  1.2630830E-02  9.4805049E-03
   6.00000  4.8084046E-03  1.4051925E-02  1.0242130E-02
   6.20000  5.1790463E-03  1.5586632E-02  1.0940568E-02
   6.40000  5.5602006E-03  1.7260536E-02  1.1622262E-02
   6.60000  5.9649626E-03  1.9089645E-02  1.2346595E-02
   6.80000  6.4077836E-03  2.1080654E-02  1.3165182E-02
   7.00000  6.9005885E-03  2.3234596E-02  1.4101375E-02
   7.20000  7.4497468E-03  2.5552322E-02  1.5137709E-02
   7.40000  8.0546595E-03  2.8039644E-02  1.6214308E-02
   7.60000  8.7076703E-03  3.0709888E-02  1.7239743E-02
   7.80000  9.3950374E-03  3.3581438E-02  1.8115469E-02
   8.00000  1.0099220E-02  3.6668786E-02  1.8769402E-02
   8.20000  1.0802657E-02  3.9968452E-02  1.9184372E-02
   8.40000  1.1492245E-02  4.3444680E-02  1.9404809E-02
   8.60000  1.2162953E-02  4.7020621E-02  1.9517841E-02
   8.80000  1.2819389E-02  5.0577688E-02  1.9622183E-02
   9.00000  1.3475193E-02  5.3961815E-02  1.9802630E-02
   9.20000  1.4150764E-02  5.6994197E-02  2.0118584E-02
   9.40000  1.4869873E-02  5.9486216E-02  2.0604396E-02
   9.60000  1.5655733E-02  6.1260616E-02  2.1275218E-02
   9.80000  1.6527228E-02  6.2179844E-02  2.2133294E-02
   10.0000  1.7495920E-02  6.2176384E-02  2.3172260E-02
   10.2500  1.8846473E-02  6.0916974E-02  2.4705233E-02
   10.5000  2.0337567E-02  5.8483370E-02  2.6463692E-02
   10.7500  2.1935413E-02  5.5227045E-02  2.8398656E-02
   11.0000  2.3590304E-02  5.1521103E-02  3.0446547E-02
   11.2500  2.5243484E-02  4.7682940E-02  3.2529421E-02
   11.5000  2.6837322E-02  4.3942586E-02  3.4557847E-02
   11.7500  2.8323454E-02  4.0444964E-02  3.6435698E-02
   12.0000  2.9667940E-02  3.7265155E-02  3.8070937E-02
   12.2500  3.0855117E-02  3.4428508E-02  3.9388938E-02
   12.5000  3.1889143E-02  3.1929987E-02  4.0342548E-02
   12.7500  3.2791286E-02  2.9748334E-02  4.0918147E-02
   13.0000  3.3593700E-02  2.7855012E-02  4.1136505E-02
   13.2500  3.4332457E-02  2.6219430E-02  4.1046646E-02
   13.5000  3.5041663E-02  2.4811839E-02  4.0715462E-02
   13.7500  3.5749260E-02  2.3604827E-02  4.0216898E-02
   14.0000  3.6474633E-02  2.2574019E-02  3.9622597E-02
   14.2500  3.7227773E-02  2.1698290E-02  3.8994942E-02
   14.5000  3.8009572E-02  2.0959693E-02  3.8382896E-02
   14.7500  3.8812805E-02  2.0343214E-02  3.7820523E-02
   15.0000  3.9623510E-02  1.9836419E-02  3.7327593E-02
   15.2500  4.0422583E-02  1.9429064E-02  3.6911540E-02
   15.5000  4.1187488E-02  1.9112685E-02  3.6570099E-02
   15.7500  4.1894036E-02  1.8880222E-02  3.6294141E-02
   16.0000  4.2518170E-02  1.8725675E-02  3.6070393E-02
   16.2500  4.3037744E-02  1.8643819E-02  3.5883835E-02
   16.5000  4.3434220E-02  1.8629983E-02  3.5719666E-02
   16.7500  4.3694205E-02  1.8679883E-02  3.5564766E-02
   17.0000  4.3810683E-02  1.8789511E-02  3.5408630E-02
   17.2500  4.3783809E-02  1.8955072E-02  3.5243817E-02
   17.5000  4.3621073E-02  1.9172947E-02  3.5065962E-02
   17.7500  4.3336767E-02  1.9439686E-02  3.4873460E-02
   18.0000  4.2950755E-02  1.9752004E-02  3.4666941E-02
   18.2500  4.2486693E-02  2.0106792E-02  3.4448647E-02
   18.5000  4.1969979E-02  2.0501125E-02  3.4221797E-02
   18.7500  4.1425714E-02  2.0932274E-02  3.3990031E-02
   19.0000  4.0876946E-02  2.1397738E-02  3.3756944E-02
   19.2500  4.0343338E-02  2.1895283E-02  3.3525737E-02
   19.5000  3.9840337E-02  2.2422987E-02  3.3298975E-02
   19.7500  3.9378839E-02  2.2979194E-02  3.3078468E-02
   20.0000  3.8965385E-02  2.3562213E-02  3.2865315E-02
   21.0000  3.7815212E-02  2.6102567E-02  3.2094756E-02
   22.0000  3.7300073E-02  2.8785142E-02  3.1446214E-02
   23.0000  3.6955923E-02  3.1304111E-02  3.0875291E-02
   24.0000  3.6272254E-02  3.3297297E-02  3.0334928E-02
   25.0000  3.4947985E-02  3.4474522E-02  2.9794581E-02
   26.0000  3.3088024E-02  3.4759190E-02  2.9258309E-02
   27.0000  3.1112731E-02  3.4298874E-02  2.8773568E-02
   28.0000  2.9413313E-02  3.3356996E-02  2.8415478E-02
   29.0000  2.8140146E-02  3.2189005E-02  2.8245102E-02
   30.0000  2.7252697E-02  3.0962558E-02  2.8262781E-02
   31.0000  2.6652754E-02  2.9761642E-02  2.8414663E-02
   32.0000  2.6248969E-02  2.8616629E-02  2.8622929E-02
   33.0000  2.5964867E-02  2.7527278E-02  2.8809967E-02
   34.0000  2.5735305E-02  2.6480033E-02  2.8911154E-02
   35.0000  2.5504452E-02  2.5461033E-02  2.8878377E-02
   36.0000  2.5226816E-02  2.4465988E-02  2.8681601E-02
   37.0000  2.4874043E-02  2.3505949E-02  2.8313467E-02
   38.0000  2.4448467E-02  2.2608939E-02  2.7799537E-02
   39.0000  2.3995293E-02  2.1820255E-02  2.7213509E-02
   40.0000  2.3595550E-02  2.1196583E-02  2.6680804E-02
