    Energy   (100,001)      (010,001)      (001,110)   
  -25.0000  1.6602287E-04  1.8304883E-04  1.7823953E-04
  -24.0000  1.7211001E-04  1.9007564E-04  1.8484956E-04
  -23.0000  1.7861219E-04  1.9761552E-04  1.9192526E-04
  -22.0000  1.8557175E-04  2.0572525E-04  1.9951640E-04
  -21.0000  1.9303689E-04  2.1447023E-04  2.0767998E-04
  -20.0000  2.0106270E-04  2.2392606E-04  2.1648163E-04
  -19.0000  2.0971244E-04  2.3418069E-04  2.2599729E-04
  -18.0000  2.1905907E-04  2.4533691E-04  2.3631531E-04
  -17.0000  2.2918715E-04  2.5751568E-04  2.4753907E-04
  -16.0000  2.4019529E-04  2.7086024E-04  2.5979033E-04
  -15.0000  2.5219912E-04  2.8554144E-04  2.7321344E-04
  -14.0000  2.6533511E-04  3.0176460E-04  2.8798086E-04
  -13.0000  2.7976548E-04  3.1977866E-04  3.0430028E-04
  -12.0000  2.9568454E-04  3.3988817E-04  3.2242415E-04
  -11.0000  3.1332700E-04  3.6246959E-04  3.4266235E-04
  -10.0000  3.3297907E-04  3.8799360E-04  3.6539953E-04
  -9.00000  3.5499339E-04  4.1705612E-04  3.9111905E-04
  -8.00000  3.7980959E-04  4.5042247E-04  4.2043697E-04
  -7.00000  4.0798308E-04  4.8909142E-04  4.5415096E-04
  -6.00000  4.4022626E-04  5.3439050E-04  4.9331295E-04
  -5.00000  4.7746916E-04  5.8812205E-04  5.3933982E-04
  -4.00000  5.2095136E-04  6.5279441E-04  5.9418806E-04
  -3.00000  5.7236669E-04  7.3200288E-04  6.6064086E-04
  -2.00000  6.3410164E-04  8.3108837E-04  7.4280309E-04
  -1.00000  7.0965173E-04  9.5834649E-04  8.4700796E-04
   0.00000  8.0440621E-04  1.1274234E-03  9.8360925E-04
   1.00000  9.2728969E-04  1.3625751E-03  1.1708992E-03
   2.00000  1.0947534E-03  1.7120015E-03  1.4449605E-03
   3.00000  1.3429963E-03  2.2898741E-03  1.8902080E-03
   4.00000  1.7821356E-03  3.4641697E-03  2.7718938E-03
   5.00000  2.8760925E-03  6.8413771E-03  5.2251790E-03
   5.20000  3.2107045E-03  7.9348416E-03  6.0340228E-03
   5.40000  3.5494081E-03  9.0635771E-03  6.8971712E-03
   5.60000  3.8856194E-03  1.0205642E-02  7.8087276E-03
   5.80000  4.2250235E-03  1.1379130E-02  8.7907496E-03
   6.00000  4.5763267E-03  1.2614083E-02  9.8758988E-03
   6.20000  4.9470385E-03  1.3938386E-02  1.1096802E-02
   6.40000  5.3427485E-03  1.5373443E-02  1.2479066E-02
   6.60000  5.7674834E-03  1.6932374E-02  1.4033130E-02
   6.80000  6.2242568E-03  1.8618445E-02  1.5744001E-02
   7.00000  6.7156282E-03  2.0424138E-02  1.7561445E-02
   7.20000  7.2442718E-03  2.2331972E-02  1.9396603E-02
   7.40000  7.8135830E-03  2.4317677E-02  2.1132377E-02
   7.60000  8.4282757E-03  2.6354675E-02  2.2650264E-02
   7.80000  9.0947965E-03  2.8417270E-02  2.3864890E-02
   8.00000  9.8213317E-03  3.0480740E-02  2.4748036E-02
   8.20000  1.0617323E-02  3.2520644E-02  2.5328855E-02
   8.40000  1.1492631E-02  3.4516980E-02  2.5673282E-02
   8.60000  1.2456560E-02  3.6465123E-02  2.5858332E-02
   8.80000  1.3516847E-02  3.8385945E-02  2.5956091E-02
   9.00000  1.4678622E-02  4.0322716E-02  2.6029592E-02
   9.20000  1.5943322E-02  4.2320079E-02  2.6133065E-02
   9.40000  1.7307678E-02  4.4394134E-02  2.6310444E-02
   9.60000  1.8762911E-02  4.6509381E-02  2.6592008E-02
   9.80000  2.0294362E-02  4.8573872E-02  2.6991945E-02
   10.0000  2.1881652E-02  5.0454332E-02  2.7508555E-02
   10.2500  2.3905159E-02  5.2323526E-02  2.8295045E-02
   10.5000  2.5918839E-02  5.3430952E-02  2.9195092E-02
   10.7500  2.7863526E-02  5.3633799E-02  3.0160123E-02
   11.0000  2.9685254E-02  5.2921939E-02  3.1147580E-02
   11.2500  3.1342576E-02  5.1404972E-02  3.2121404E-02
   11.5000  3.2811630E-02  4.9270927E-02  3.3045051E-02
   11.7500  3.4087997E-02  4.6738259E-02  3.3873920E-02
   12.0000  3.5185652E-02  4.4013632E-02  3.4557438E-02
   12.2500  3.6132369E-02  4.1264544E-02  3.5052553E-02
   12.5000  3.6961139E-02  3.8609410E-02  3.5338515E-02
   12.7500  3.7701221E-02  3.6120828E-02  3.5420452E-02
   13.0000  3.8373412E-02  3.3836025E-02  3.5323665E-02
   13.2500  3.8989689E-02  3.1768234E-02  3.5086775E-02
   13.5000  3.9555374E-02  2.9915679E-02  3.4755810E-02
   13.7500  4.0072049E-02  2.8268089E-02  3.4378486E-02
   14.0000  4.0540013E-02  2.6811239E-02  3.3999106E-02
   14.2500  4.0959750E-02  2.5529850E-02  3.3654907E-02
   14.5000  4.1332322E-02  2.4409176E-02  3.3374121E-02
   14.7500  4.1658913E-02  2.3435699E-02  3.3175453E-02
   15.0000  4.1939871E-02  2.2597302E-02  3.3068474E-02
   15.2500  4.2173670E-02  2.1883175E-02  3.3054481E-02
   15.5000  4.2356139E-02  2.1283641E-02  3.3127568E-02
   15.7500  4.2480185E-02  2.0789966E-02  3.3275800E-02
   16.0000  4.2536184E-02  2.0394196E-02  3.3482541E-02
   16.2500  4.2513051E-02  2.0089031E-02  3.3727967E-02
   16.5000  4.2399910E-02  1.9867720E-02  3.3990800E-02
   16.7500  4.2188071E-02  1.9723981E-02  3.4250147E-02
   17.0000  4.1872944E-02  1.9651939E-02  3.4487280E-02
   17.2500  4.1455457E-02  1.9646080E-02  3.4687091E-02
   17.5000  4.0942648E-02  1.9701216E-02  3.4839023E-02
   17.7500  4.0347296E-02  1.9812481E-02  3.4937379E-02
   18.0000  3.9686698E-02  1.9975317E-02  3.4981007E-02
   18.2500  3.8980897E-02  2.0185482E-02  3.4972548E-02
   18.5000  3.8250748E-02  2.0439046E-02  3.4917413E-02
   18.7500  3.7516162E-02  2.0732396E-02  3.4822722E-02
   19.0000  3.6794730E-02  2.1062248E-02  3.4696319E-02
   19.2500  3.6100812E-02  2.1425677E-02  3.4545959E-02
   19.5000  3.5445079E-02  2.1820162E-02  3.4378687E-02
   19.7500  3.4834451E-02  2.2243551E-02  3.4200444E-02
   20.0000  3.4272521E-02  2.2693844E-02  3.4015927E-02
   21.0000  3.2515251E-02  2.4710432E-02  3.3274844E-02
   22.0000  3.1429984E-02  2.6932067E-02  3.2571442E-02
   23.0000  3.0781935E-02  2.9174055E-02  3.1845255E-02
   24.0000  3.0409378E-02  3.1216603E-02  3.1024371E-02
   25.0000  3.0254669E-02  3.2823844E-02  3.0105799E-02
   26.0000  3.0251001E-02  3.3813805E-02  2.9152994E-02
   27.0000  3.0227573E-02  3.4127791E-02  2.8258116E-02
   28.0000  2.9985942E-02  3.3850079E-02  2.7507832E-02
   29.0000  2.9462094E-02  3.3162878E-02  2.6953604E-02
   30.0000  2.8744463E-02  3.2257868E-02  2.6586777E-02
   31.0000  2.7967890E-02  3.1283514E-02  2.6357040E-02
   32.0000  2.7222594E-02  3.0330875E-02  2.6202468E-02
   33.0000  2.6536040E-02  2.9440467E-02  2.6067750E-02
   34.0000  2.5894436E-02  2.8617987E-02  2.5912289E-02
   35.0000  2.5267583E-02  2.7848297E-02  2.5712230E-02
   36.0000  2.4628337E-02  2.7106598E-02  2.5459178E-02
   37.0000  2.3967300E-02  2.6370881E-02  2.5156563E-02
   38.0000  2.3302504E-02  2.5639135E-02  2.4817863E-02
   39.0000  2.2682375E-02  2.4947690E-02  2.4472901E-02
   40.0000  2.2175155E-02  2.4372532E-02  2.4173560E-02
