    Energy   (100,001)      (010,001)      (001,110)   
  -25.0000  1.7640649E-04  1.8561470E-04  1.7709275E-04
  -24.0000  1.8295476E-04  1.9244295E-04  1.8362952E-04
  -23.0000  1.8996236E-04  1.9975296E-04  1.9062071E-04
  -22.0000  1.9747796E-04  2.0759655E-04  1.9811388E-04
  -21.0000  2.0555728E-04  2.1603316E-04  2.0616329E-04
  -20.0000  2.1426436E-04  2.2513131E-04  2.1483123E-04
  -19.0000  2.2367317E-04  2.3497037E-04  2.2418941E-04
  -18.0000  2.3386965E-04  2.4564280E-04  2.3432093E-04
  -17.0000  2.4495416E-04  2.5725689E-04  2.4532249E-04
  -16.0000  2.5704463E-04  2.6994036E-04  2.5730733E-04
  -15.0000  2.7028057E-04  2.8384480E-04  2.7040890E-04
  -14.0000  2.8482824E-04  2.9915150E-04  2.8478548E-04
  -13.0000  3.0088732E-04  3.1607907E-04  3.0062622E-04
  -12.0000  3.1869972E-04  3.3489343E-04  3.1815900E-04
  -11.0000  3.3856141E-04  3.5592124E-04  3.3766078E-04
  -10.0000  3.6083829E-04  3.7956817E-04  3.5947150E-04
  -9.00000  3.8598822E-04  4.0634410E-04  3.8401294E-04
  -8.00000  4.1459187E-04  4.3689863E-04  4.1181485E-04
  -7.00000  4.4739694E-04  4.7207208E-04  4.4355186E-04
  -6.00000  4.8538327E-04  5.1297071E-04  4.8009655E-04
  -5.00000  5.2986114E-04  5.6108039E-04  5.2259827E-04
  -4.00000  5.8262500E-04  6.1844459E-04  5.7260312E-04
  -3.00000  6.4620332E-04  6.8795350E-04  6.3224393E-04
  -2.00000  7.2428454E-04  7.7383693E-04  7.0455415E-04
  -1.00000  8.2248753E-04  8.8255507E-04  7.9401622E-04
   0.00000  9.4986481E-04  1.0245365E-03  9.0759097E-04
   1.00000  1.1221461E-03  1.2179357E-03  1.0568490E-03
   2.00000  1.3697989E-03  1.4980364E-03  1.2630553E-03
   3.00000  1.7628030E-03  1.9466593E-03  1.5722741E-03
   4.00000  2.5178052E-03  2.8237116E-03  2.1196921E-03
   5.00000  4.5634689E-03  5.2533044E-03  3.4619401E-03
   5.20000  5.2402135E-03  6.0233683E-03  3.8825462E-03
   5.40000  5.9638029E-03  6.8081707E-03  4.3200192E-03
   5.60000  6.7189516E-03  7.5910877E-03  4.7634950E-03
   5.80000  7.5065072E-03  8.3840580E-03  5.2146561E-03
   6.00000  8.3337387E-03  9.2063144E-03  5.6808380E-03
   6.20000  9.2109541E-03  1.0074459E-02  6.1719712E-03
   6.40000  1.0151374E-02  1.1000713E-02  6.6997402E-03
   6.60000  1.1170588E-02  1.1993982E-02  7.2769584E-03
   6.80000  1.2284664E-02  1.3061619E-02  7.9169326E-03
   7.00000  1.3506870E-02  1.4210820E-02  8.6331237E-03
   7.20000  1.4842959E-02  1.5448780E-02  9.4391432E-03
   7.40000  1.6285433E-02  1.6781637E-02  1.0348772E-02
   7.60000  1.7808215E-02  1.8213243E-02  1.1375709E-02
   7.80000  1.9364166E-02  1.9745036E-02  1.2532963E-02
   8.00000  2.0888533E-02  2.1377709E-02  1.3831894E-02
   8.20000  2.2310476E-02  2.3114367E-02  1.5280951E-02
   8.40000  2.3571499E-02  2.4963783E-02  1.6884150E-02
   8.60000  2.4644643E-02  2.6941656E-02  1.8639405E-02
   8.80000  2.5544692E-02  2.9068188E-02  2.0537006E-02
   9.00000  2.6322680E-02  3.1361845E-02  2.2558787E-02
   9.20000  2.7047582E-02  3.3830793E-02  2.4678397E-02
   9.40000  2.7784636E-02  3.6464279E-02  2.6862706E-02
   9.60000  2.8578742E-02  3.9225967E-02  2.9073868E-02
   9.80000  2.9446598E-02  4.2050581E-02  3.1271271E-02
   10.0000  3.0376905E-02  4.4844418E-02  3.3412620E-02
   10.2500  3.1575224E-02  4.8112772E-02  3.5943579E-02
   10.5000  3.2726797E-02  5.0891854E-02  3.8231181E-02
   10.7500  3.3739080E-02  5.2938983E-02  4.0192481E-02
   11.0000  3.4540666E-02  5.4076348E-02  4.1756502E-02
   11.2500  3.5094362E-02  5.4228432E-02  4.2875036E-02
   11.5000  3.5401444E-02  5.3432314E-02  4.3534611E-02
   11.7500  3.5493704E-02  5.1820638E-02  4.3758336E-02
   12.0000  3.5418337E-02  4.9586256E-02  4.3598224E-02
   12.2500  3.5226746E-02  4.6941795E-02  4.3125155E-02
   12.5000  3.4968029E-02  4.4086965E-02  4.2419594E-02
   12.7500  3.4684977E-02  4.1188658E-02  4.1564391E-02
   13.0000  3.4412864E-02  3.8372578E-02  4.0637627E-02
   13.2500  3.4179678E-02  3.5723714E-02  3.9705907E-02
   13.5000  3.4005643E-02  3.3292299E-02  3.8821109E-02
   13.7500  3.3902556E-02  3.1102001E-02  3.8020522E-02
   14.0000  3.3874558E-02  2.9157945E-02  3.7328950E-02
   14.2500  3.3919848E-02  2.7453357E-02  3.6761387E-02
   14.5000  3.4032204E-02  2.5974539E-02  3.6325280E-02
   14.7500  3.4202044E-02  2.4704313E-02  3.6022102E-02
   15.0000  3.4417152E-02  2.3624276E-02  3.5848328E-02
   15.2500  3.4663266E-02  2.2716176E-02  3.5795965E-02
   15.5000  3.4924606E-02  2.1962694E-02  3.5852828E-02
   15.7500  3.5184459E-02  2.1347838E-02  3.6002748E-02
   16.0000  3.5425870E-02  2.0857079E-02  3.6225911E-02
   16.2500  3.5632517E-02  2.0477350E-02  3.6499490E-02
   16.5000  3.5789728E-02  2.0196961E-02  3.6798657E-02
   16.7500  3.5885595E-02  2.0005466E-02  3.7097975E-02
   17.0000  3.5912025E-02  1.9893522E-02  3.7373065E-02
   17.2500  3.5865570E-02  1.9852745E-02  3.7602336E-02
   17.5000  3.5747846E-02  1.9875583E-02  3.7768526E-02
   17.7500  3.5565440E-02  1.9955217E-02  3.7859769E-02
   18.0000  3.5329249E-02  2.0085477E-02  3.7870050E-02
   18.2500  3.5053352E-02  2.0260796E-02  3.7798973E-02
   18.5000  3.4753590E-02  2.0476169E-02  3.7650952E-02
   18.7500  3.4446077E-02  2.0727133E-02  3.7434020E-02
   19.0000  3.4145860E-02  2.1009760E-02  3.7158454E-02
   19.2500  3.3865879E-02  2.1320672E-02  3.6835440E-02
   19.5000  3.3616290E-02  2.1657054E-02  3.6475911E-02
   19.7500  3.3404158E-02  2.2016628E-02  3.6089724E-02
   20.0000  3.3233525E-02  2.2397451E-02  3.5685349E-02
   21.0000  3.2968229E-02  2.4089567E-02  3.4019837E-02
   22.0000  3.3226463E-02  2.5957440E-02  3.2465938E-02
   23.0000  3.3673374E-02  2.7911014E-02  3.1083371E-02
   24.0000  3.3912671E-02  2.9856064E-02  2.9850023E-02
   25.0000  3.3596970E-02  3.1660894E-02  2.8754932E-02
   26.0000  3.2575247E-02  3.3163767E-02  2.7813048E-02
   27.0000  3.0982671E-02  3.4223630E-02  2.7038286E-02
   28.0000  2.9164104E-02  3.4776230E-02  2.6422541E-02
   29.0000  2.7474133E-02  3.4852157E-02  2.5947125E-02
   30.0000  2.6103731E-02  3.4548033E-02  2.5592389E-02
   31.0000  2.5090622E-02  3.3980794E-02  2.5341957E-02
   32.0000  2.4391794E-02  3.3252294E-02  2.5172513E-02
   33.0000  2.3935553E-02  3.2433929E-02  2.5049351E-02
   34.0000  2.3650711E-02  3.1567867E-02  2.4933654E-02
   35.0000  2.3478935E-02  3.0676462E-02  2.4791911E-02
   36.0000  2.3377302E-02  2.9773632E-02  2.4603957E-02
   37.0000  2.3314948E-02  2.8875573E-02  2.4368894E-02
   38.0000  2.3268069E-02  2.8010268E-02  2.4106567E-02
   39.0000  2.3220216E-02  2.7226402E-02  2.3852048E-02
   40.0000  2.3169589E-02  2.6594745E-02  2.3642971E-02
