    Energy   (100,001)      (010,001)      (001,110)   
  -25.0000  1.6978339E-04  1.8454744E-04  1.8055836E-04
  -24.0000  1.7605983E-04  1.9163310E-04  1.8730483E-04
  -23.0000  1.8276990E-04  1.9923686E-04  1.9453037E-04
  -22.0000  1.8995859E-04  2.0741619E-04  2.0228653E-04
  -21.0000  1.9767719E-04  2.1623725E-04  2.1063249E-04
  -20.0000  2.0598446E-04  2.2577659E-04  2.1963639E-04
  -19.0000  2.1494805E-04  2.3612322E-04  2.2937722E-04
  -18.0000  2.2464621E-04  2.4738125E-04  2.3994693E-04
  -17.0000  2.3516991E-04  2.5967320E-04  2.5145327E-04
  -16.0000  2.4662556E-04  2.7314419E-04  2.6402329E-04
  -15.0000  2.5913842E-04  2.8796733E-04  2.7780786E-04
  -14.0000  2.7285687E-04  3.0435074E-04  2.9298746E-04
  -13.0000  2.8795810E-04  3.2254674E-04  3.0977984E-04
  -12.0000  3.0465530E-04  3.4286411E-04  3.2845012E-04
  -11.0000  3.2320739E-04  3.6568452E-04  3.4932439E-04
  -10.0000  3.4393195E-04  3.9148515E-04  3.7280832E-04
  -9.00000  3.6722283E-04  4.2087011E-04  3.9941296E-04
  -8.00000  3.9357467E-04  4.5461497E-04  4.2979145E-04
  -7.00000  4.2361753E-04  4.9373139E-04  4.6479223E-04
  -6.00000  4.5816723E-04  5.3956304E-04  5.0553832E-04
  -5.00000  4.9830026E-04  5.9393199E-04  5.5354893E-04
  -4.00000  5.4546920E-04  6.5936976E-04  6.1093284E-04
  -3.00000  6.0168739E-04  7.3949595E-04  6.8070872E-04
  -2.00000  6.6983884E-04  8.3966866E-04  7.6736342E-04
  -1.00000  7.5423051E-04  9.6816789E-04  8.7788702E-04
   0.00000  8.6165590E-04  1.1385140E-03  1.0238499E-03
   1.00000  1.0036712E-03  1.3744809E-03  1.2260253E-03
   2.00000  1.2022570E-03  1.7225585E-03  1.5262657E-03
   3.00000  1.5075227E-03  2.2902665E-03  2.0252375E-03
   4.00000  2.0775255E-03  3.4125709E-03  3.0503913E-03
   5.00000  3.5934416E-03  6.5116919E-03  6.0272975E-03
   5.20000  4.0624978E-03  7.5139610E-03  7.0061914E-03
   5.40000  4.5324366E-03  8.5639971E-03  8.0502820E-03
   5.60000  4.9921134E-03  9.6475568E-03  9.1704856E-03
   5.80000  5.4499090E-03  1.0782580E-02  1.0410219E-02
   6.00000  5.9201480E-03  1.1995554E-02  1.1810831E-02
   6.20000  6.4164471E-03  1.3311641E-02  1.3392431E-02
   6.40000  6.9501142E-03  1.4754261E-02  1.5143855E-02
   6.60000  7.5301747E-03  1.6346533E-02  1.7013675E-02
   6.80000  8.1636622E-03  1.8110467E-02  1.8901922E-02
   7.00000  8.8558214E-03  2.0062465E-02  2.0660839E-02
   7.20000  9.6102228E-03  2.2206591E-02  2.2118483E-02
   7.40000  1.0428870E-02  2.4529614E-02  2.3129617E-02
   7.60000  1.1312363E-02  2.7001477E-02  2.3632325E-02
   7.80000  1.2260270E-02  2.9581476E-02  2.3673555E-02
   8.00000  1.3272015E-02  3.2227328E-02  2.3387580E-02
   8.20000  1.4348223E-02  3.4904553E-02  2.2946828E-02
   8.40000  1.5491847E-02  3.7593996E-02  2.2515837E-02
   8.60000  1.6708279E-02  4.0293142E-02  2.2224638E-02
   8.80000  1.8004163E-02  4.3008021E-02  2.2161101E-02
   9.00000  1.9384910E-02  4.5737390E-02  2.2374947E-02
   9.20000  2.0851032E-02  4.8454607E-02  2.2886399E-02
   9.40000  2.2394418E-02  5.1092558E-02  2.3694625E-02
   9.60000  2.3996329E-02  5.3536061E-02  2.4783252E-02
   9.80000  2.5627522E-02  5.5626651E-02  2.6121914E-02
   10.0000  2.7249885E-02  5.7183246E-02  2.7664140E-02
   10.2500  2.9196582E-02  5.8125337E-02  2.9775426E-02
   10.5000  3.0962110E-02  5.7770603E-02  3.1928496E-02
   10.7500  3.2452893E-02  5.6138993E-02  3.3928089E-02
   11.0000  3.3604789E-02  5.3476784E-02  3.5599720E-02
   11.2500  3.4405052E-02  5.0161753E-02  3.6836066E-02
   11.5000  3.4893059E-02  4.6575361E-02  3.7617544E-02
   11.7500  3.5140863E-02  4.3017363E-02  3.7996776E-02
   12.0000  3.5227774E-02  3.9681307E-02  3.8062597E-02
   12.2500  3.5222159E-02  3.6667364E-02  3.7906922E-02
   12.5000  3.5175007E-02  3.4008773E-02  3.7608627E-02
   12.7500  3.5121896E-02  3.1698114E-02  3.7230393E-02
   13.0000  3.5087706E-02  2.9707181E-02  3.6820188E-02
   13.2500  3.5090457E-02  2.7999710E-02  3.6414070E-02
   13.5000  3.5143188E-02  2.6538616E-02  3.6039168E-02
   13.7500  3.5254353E-02  2.5289635E-02  3.5716074E-02
   14.0000  3.5427622E-02  2.4222842E-02  3.5460217E-02
   14.2500  3.5661795E-02  2.3312955E-02  3.5282189E-02
   14.5000  3.5951125E-02  2.2539025E-02  3.5187362E-02
   14.7500  3.6286056E-02  2.1883862E-02  3.5175230E-02
   15.0000  3.6654242E-02  2.1333389E-02  3.5238901E-02
   15.2500  3.7041707E-02  2.0876047E-02  3.5365051E-02
   15.5000  3.7434032E-02  2.0502291E-02  3.5534574E-02
   15.7500  3.7817455E-02  2.0204204E-02  3.5723993E-02
   16.0000  3.8179837E-02  1.9975193E-02  3.5907616E-02
   16.2500  3.8511379E-02  1.9809766E-02  3.6060172E-02
   16.5000  3.8805058E-02  1.9703358E-02  3.6159547E-02
   16.7500  3.9056735E-02  1.9652176E-02  3.6189123E-02
   17.0000  3.9264961E-02  1.9653065E-02  3.6139280E-02
   17.2500  3.9430531E-02  1.9703383E-02  3.6007811E-02
   17.5000  3.9555895E-02  1.9800887E-02  3.5799267E-02
   17.7500  3.9644514E-02  1.9943638E-02  3.5523494E-02
   18.0000  3.9700268E-02  2.0129906E-02  3.5193772E-02
   18.2500  3.9726957E-02  2.0358102E-02  3.4824942E-02
   18.5000  3.9727927E-02  2.0626707E-02  3.4431818E-02
   18.7500  3.9705811E-02  2.0934224E-02  3.4028023E-02
   19.0000  3.9662367E-02  2.1279143E-02  3.3625259E-02
   19.2500  3.9598403E-02  2.1659934E-02  3.3232938E-02
   19.5000  3.9513746E-02  2.2075043E-02  3.2858073E-02
   19.7500  3.9407281E-02  2.2522830E-02  3.2505384E-02
   20.0000  3.9277020E-02  2.3001291E-02  3.2177616E-02
   21.0000  3.8455641E-02  2.5149863E-02  3.1130807E-02
   22.0000  3.6994912E-02  2.7452470E-02  3.0461918E-02
   23.0000  3.4846739E-02  2.9610497E-02  3.0023264E-02
   24.0000  3.2323844E-02  3.1376799E-02  2.9652411E-02
   25.0000  2.9962496E-02  3.2610526E-02  2.9224735E-02
   26.0000  2.8173543E-02  3.3280976E-02  2.8683632E-02
   27.0000  2.7038439E-02  3.3445313E-02  2.8056127E-02
   28.0000  2.6365708E-02  3.3216375E-02  2.7431069E-02
   29.0000  2.5906429E-02  3.2730350E-02  2.6907898E-02
   30.0000  2.5522829E-02  3.2111928E-02  2.6545160E-02
   31.0000  2.5181230E-02  3.1436044E-02  2.6334525E-02
   32.0000  2.4880620E-02  3.0735109E-02  2.6222569E-02
   33.0000  2.4611085E-02  3.0018844E-02  2.6141512E-02
   34.0000  2.4349164E-02  2.9285747E-02  2.6030416E-02
   35.0000  2.4068298E-02  2.8530165E-02  2.5848944E-02
   36.0000  2.3749912E-02  2.7747502E-02  2.5584542E-02
   37.0000  2.3390898E-02  2.6940319E-02  2.5252252E-02
   38.0000  2.3007152E-02  2.6129219E-02  2.4888264E-02
   39.0000  2.2634010E-02  2.5366814E-02  2.4540634E-02
   40.0000  2.2320719E-02  2.4738158E-02  2.4257716E-02
