    Energy   (100,001)      (010,001)      (001,110)   
  -25.0000  1.7071428E-04  1.8511149E-04  1.8541014E-04
  -24.0000  1.7665032E-04  1.9216063E-04  1.9180905E-04
  -23.0000  1.8297213E-04  1.9972109E-04  1.9862888E-04
  -22.0000  1.8971745E-04  2.0784917E-04  2.0591174E-04
  -21.0000  1.9692905E-04  2.1660963E-04  2.1370546E-04
  -20.0000  2.0465557E-04  2.2607734E-04  2.2206468E-04
  -19.0000  2.1295261E-04  2.3633928E-04  2.3105204E-04
  -18.0000  2.2188399E-04  2.4749708E-04  2.4073976E-04
  -17.0000  2.3152333E-04  2.5967025E-04  2.5121147E-04
  -16.0000  2.4195602E-04  2.7300019E-04  2.6256465E-04
  -15.0000  2.5328170E-04  2.8765545E-04  2.7491357E-04
  -14.0000  2.6561734E-04  3.0383844E-04  2.8839310E-04
  -13.0000  2.7910122E-04  3.2179435E-04  3.0316364E-04
  -12.0000  2.9389811E-04  3.4182294E-04  3.1941749E-04
  -11.0000  3.1020596E-04  3.6429447E-04  3.3738730E-04
  -10.0000  3.2826486E-04  3.8967146E-04  3.5735742E-04
  -9.00000  3.4836914E-04  4.1853910E-04  3.7967940E-04
  -8.00000  3.7088396E-04  4.5164836E-04  4.0479347E-04
  -7.00000  3.9626865E-04  4.8997861E-04  4.3325932E-04
  -6.00000  4.2511028E-04  5.3483088E-04  4.6580086E-04
  -5.00000  4.5817338E-04  5.8797076E-04  5.0337383E-04
  -4.00000  4.9647615E-04  6.5185497E-04  5.4727131E-04
  -3.00000  5.4141213E-04  7.3000534E-04  5.9929614E-04
  -2.00000  5.9495472E-04  8.2765727E-04  6.6205821E-04
  -1.00000  6.6002399E-04  9.5295471E-04  7.3952357E-04
   0.00000  7.4120216E-04  1.1193321E-03  8.3812274E-04
   1.00000  8.4629743E-04  1.3507866E-03  9.6926935E-04
   2.00000  9.9035561E-04  1.6954035E-03  1.1561099E-03
   3.00000  1.2087268E-03  2.2686894E-03  1.4565730E-03
   4.00000  1.6187425E-03  3.4512726E-03  2.0773120E-03
   5.00000  2.7459552E-03  6.9339473E-03  3.9882784E-03
   5.20000  3.0909026E-03  8.0564463E-03  4.5745311E-03
   5.40000  3.4266129E-03  9.1985025E-03  5.1209092E-03
   5.60000  3.7422240E-03  1.0331345E-02  5.5986906E-03
   5.80000  4.0424853E-03  1.1468444E-02  6.0114862E-03
   6.00000  4.3362823E-03  1.2634663E-02  6.3736897E-03
   6.20000  4.6314384E-03  1.3851877E-02  6.7002607E-03
   6.40000  4.9338017E-03  1.5135896E-02  7.0045879E-03
   6.60000  5.2475993E-03  1.6496508E-02  7.2986284E-03
   6.80000  5.5759643E-03  1.7937956E-02  7.5932520E-03
   7.00000  5.9213453E-03  1.9459628E-02  7.8984392E-03
   7.20000  6.2857938E-03  2.1057217E-02  8.2234362E-03
   7.40000  6.6712348E-03  2.2724565E-02  8.5769624E-03
   7.60000  7.0797811E-03  2.4456125E-02  8.9673771E-03
   7.80000  7.5140551E-03  2.6249312E-02  9.4026711E-03
   8.00000  7.9774175E-03  2.8105566E-02  9.8902639E-03
   8.20000  8.4739641E-03  3.0029458E-02  1.0436614E-02
   8.40000  9.0081871E-03  3.2025726E-02  1.1046711E-02
   8.60000  9.5842735E-03  3.4094963E-02  1.1723524E-02
   8.80000  1.0205099E-02  3.6229187E-02  1.2467453E-02
   9.00000  1.0871080E-02  3.8408525E-02  1.3275833E-02
   9.20000  1.1579256E-02  4.0600186E-02  1.4142608E-02
   9.40000  1.2323171E-02  4.2760412E-02  1.5058318E-02
   9.60000  1.3094080E-02  4.4838632E-02  1.6010542E-02
   9.80000  1.3883406E-02  4.6781258E-02  1.6984779E-02
   10.0000  1.4685395E-02  4.8532213E-02  1.7965633E-02
   10.2500  1.5703579E-02  5.0356808E-02  1.9178278E-02
   10.5000  1.6743009E-02  5.1648904E-02  2.0353435E-02
   10.7500  1.7808836E-02  5.2271807E-02  2.1477136E-02
   11.0000  1.8900673E-02  5.2129621E-02  2.2549182E-02
   11.2500  2.0008862E-02  5.1207171E-02  2.3580977E-02
   11.5000  2.1115653E-02  4.9583338E-02  2.4589736E-02
   11.7500  2.2200529E-02  4.7413860E-02  2.5593640E-02
   12.0000  2.3245725E-02  4.4893472E-02  2.6607941E-02
   12.2500  2.4239743E-02  4.2213958E-02  2.7641699E-02
   12.5000  2.5179104E-02  3.9533544E-02  2.8696560E-02
   12.7500  2.6067172E-02  3.6964880E-02  2.9767806E-02
   13.0000  2.6911585E-02  3.4578660E-02  3.0847480E-02
   13.2500  2.7722916E-02  3.2413309E-02  3.1927865E-02
   13.5000  2.8513348E-02  3.0484022E-02  3.3002735E-02
   13.7500  2.9294584E-02  2.8790148E-02  3.4067054E-02
   14.0000  3.0076002E-02  2.7321005E-02  3.5117214E-02
   14.2500  3.0863591E-02  2.6060157E-02  3.6151636E-02
   14.5000  3.1659646E-02  2.4988485E-02  3.7170809E-02
   14.7500  3.2463001E-02  2.4086282E-02  3.8176598E-02
   15.0000  3.3269611E-02  2.3334589E-02  3.9171036E-02
   15.2500  3.4073335E-02  2.2715966E-02  4.0154846E-02
   15.5000  3.4866768E-02  2.2214878E-02  4.1125872E-02
   15.7500  3.5642055E-02  2.1817820E-02  4.2077663E-02
   16.0000  3.6391547E-02  2.1513243E-02  4.2998457E-02
   16.2500  3.7108279E-02  2.1291371E-02  4.3870824E-02
   16.5000  3.7786216E-02  2.1143953E-02  4.4672208E-02
   16.7500  3.8420307E-02  2.1063988E-02  4.5376480E-02
   17.0000  3.9006406E-02  2.1045468E-02  4.5956469E-02
   17.2500  3.9541144E-02  2.1083138E-02  4.6387134E-02
   17.5000  4.0021865E-02  2.1172304E-02  4.6648864E-02
   17.7500  4.0446671E-02  2.1308693E-02  4.6730242E-02
   18.0000  4.0814598E-02  2.1488348E-02  4.6629678E-02
   18.2500  4.1125882E-02  2.1707579E-02  4.6355600E-02
   18.5000  4.1382215E-02  2.1962941E-02  4.5925225E-02
   18.7500  4.1586920E-02  2.2251245E-02  4.5362252E-02
   19.0000  4.1744947E-02  2.2569597E-02  4.4694020E-02
   19.2500  4.1862664E-02  2.2915464E-02  4.3948620E-02
   19.5000  4.1947443E-02  2.3286735E-02  4.3152396E-02
   19.7500  4.2007133E-02  2.3681720E-02  4.2328221E-02
   20.0000  4.2049556E-02  2.4098955E-02  4.1494914E-02
   21.0000  4.2184385E-02  2.5951197E-02  3.8344946E-02
   22.0000  4.2445148E-02  2.7990626E-02  3.5832884E-02
   23.0000  4.2758285E-02  3.0055288E-02  3.3995118E-02
   24.0000  4.2775394E-02  3.1915639E-02  3.2672774E-02
   25.0000  4.2078153E-02  3.3315483E-02  3.1687083E-02
   26.0000  4.0434046E-02  3.4079413E-02  3.0893864E-02
   27.0000  3.7992533E-02  3.4194250E-02  3.0203708E-02
   28.0000  3.5218039E-02  3.3792135E-02  2.9584358E-02
   29.0000  3.2600939E-02  3.3062812E-02  2.9044845E-02
   30.0000  3.0442694E-02  3.2181947E-02  2.8614821E-02
   31.0000  2.8827373E-02  3.1278134E-02  2.8320672E-02
   32.0000  2.7682960E-02  3.0410206E-02  2.8156955E-02
   33.0000  2.6883329E-02  2.9590662E-02  2.8093771E-02
   34.0000  2.6309583E-02  2.8812915E-02  2.8091707E-02
   35.0000  2.5868241E-02  2.8064665E-02  2.8108780E-02
   36.0000  2.5493408E-02  2.7336250E-02  2.8104715E-02
   37.0000  2.5143265E-02  2.6626196E-02  2.8046005E-02
   38.0000  2.4797269E-02  2.5945780E-02  2.7914845E-02
   39.0000  2.4459476E-02  2.5325906E-02  2.7723599E-02
   40.0000  2.4163885E-02  2.4820769E-02  2.7525376E-02
