    Energy   (100,001)      (010,001)      (001,110)   
  -25.0000  1.6986063E-04  1.9142826E-04  1.7640697E-04
  -24.0000  1.7622411E-04  1.9827480E-04  1.8309982E-04
  -23.0000  1.8303194E-04  2.0559623E-04  1.9026931E-04
  -22.0000  1.9033066E-04  2.1344311E-04  1.9796654E-04
  -21.0000  1.9817342E-04  2.2187334E-04  2.0625005E-04
  -20.0000  2.0662118E-04  2.3095361E-04  2.1518726E-04
  -19.0000  2.1574422E-04  2.4076110E-04  2.2485612E-04
  -18.0000  2.2562395E-04  2.5138559E-04  2.3534733E-04
  -17.0000  2.3635521E-04  2.6293215E-04  2.4676699E-04
  -16.0000  2.4804911E-04  2.7552452E-04  2.5924000E-04
  -15.0000  2.6083667E-04  2.8930939E-04  2.7291439E-04
  -14.0000  2.7487350E-04  3.0446198E-04  2.8796694E-04
  -13.0000  2.9034577E-04  3.2119324E-04  3.0461045E-04
  -12.0000  3.0747811E-04  3.3975941E-04  3.2310342E-04
  -11.0000  3.2654411E-04  3.6047476E-04  3.4376300E-04
  -10.0000  3.4788035E-04  3.8372886E-04  3.6698266E-04
  -9.00000  3.7190571E-04  4.1001041E-04  3.9325660E-04
  -8.00000  3.9914831E-04  4.3994073E-04  4.2321449E-04
  -7.00000  4.3028380E-04  4.7432166E-04  4.5767157E-04
  -6.00000  4.6619121E-04  5.1420599E-04  4.9770324E-04
  -5.00000  5.0803687E-04  5.6100355E-04  5.4475943E-04
  -4.00000  5.5740426E-04  6.1664644E-04  6.0084645E-04
  -3.00000  6.1650345E-04  6.8385633E-04  6.6882915E-04
  -2.00000  6.8852513E-04  7.6659718E-04  7.5296061E-04
  -1.00000  7.7827596E-04  8.7088830E-04  8.5987547E-04
   0.00000  8.9341020E-04  1.0063786E-03  1.0006215E-03
   1.00000  1.0470787E-03  1.1897233E-03  1.1953253E-03
   2.00000  1.2645323E-03  1.4529698E-03  1.4857953E-03
   3.00000  1.6037333E-03  1.8696516E-03  1.9787858E-03
   4.00000  2.2477406E-03  2.6716473E-03  3.0607340E-03
   5.00000  3.9790495E-03  4.8526571E-03  6.5640405E-03
   5.20000  4.5124136E-03  5.5291467E-03  7.6455668E-03
   5.40000  5.0453297E-03  6.2065656E-03  8.6334554E-03
   5.60000  5.5688215E-03  6.8700618E-03  9.4564760E-03
   5.80000  6.0985418E-03  7.5327242E-03  1.0115133E-02
   6.00000  6.6578767E-03  8.2151931E-03  1.0649412E-02
   6.20000  7.2694401E-03  8.9364926E-03  1.1116871E-02
   6.40000  7.9527096E-03  9.7128693E-03  1.1579018E-02
   6.60000  8.7235276E-03  1.0559140E-02  1.2091463E-02
   6.80000  9.5937110E-03  1.1490289E-02  1.2697868E-02
   7.00000  1.0570451E-02  1.2522628E-02  1.3427624E-02
   7.20000  1.1655723E-02  1.3674316E-02  1.4296054E-02
   7.40000  1.2845761E-02  1.4965029E-02  1.5305802E-02
   7.60000  1.4130171E-02  1.6414449E-02  1.6448553E-02
   7.80000  1.5490234E-02  1.8039501E-02  1.7706724E-02
   8.00000  1.6896834E-02  1.9850794E-02  1.9055355E-02
   8.20000  1.8309864E-02  2.1849422E-02  2.0464655E-02
   8.40000  1.9681675E-02  2.4025698E-02  2.1903327E-02
   8.60000  2.0965721E-02  2.6360999E-02  2.3341988E-02
   8.80000  2.2128160E-02  2.8832244E-02  2.4755649E-02
   9.00000  2.3157265E-02  3.1416463E-02  2.6124654E-02
   9.20000  2.4065531E-02  3.4091902E-02  2.7433633E-02
   9.40000  2.4882833E-02  3.6833748E-02  2.8667885E-02
   9.60000  2.5644892E-02  3.9606152E-02  2.9810327E-02
   9.80000  2.6384149E-02  4.2355067E-02  3.0843570E-02
   10.0000  2.7126362E-02  4.5005366E-02  3.1755015E-02
   10.2500  2.8086164E-02  4.8033720E-02  3.2717355E-02
   10.5000  2.9094519E-02  5.0544328E-02  3.3494719E-02
   10.7500  3.0133765E-02  5.2318681E-02  3.4115990E-02
   11.0000  3.1160251E-02  5.3179336E-02  3.4616923E-02
   11.2500  3.2123675E-02  5.3039016E-02  3.5030848E-02
   11.5000  3.2982579E-02  5.1933569E-02  3.5386604E-02
   11.7500  3.3711309E-02  5.0017513E-02  3.5709385E-02
   12.0000  3.4301169E-02  4.7523069E-02  3.6020148E-02
   12.2500  3.4759162E-02  4.4705002E-02  3.6333665E-02
   12.5000  3.5104726E-02  4.1791979E-02  3.6656479E-02
   12.7500  3.5364587E-02  3.8957117E-02  3.6986189E-02
   13.0000  3.5567413E-02  3.6311081E-02  3.7313828E-02
   13.2500  3.5739923E-02  3.3911538E-02  3.7628955E-02
   13.5000  3.5904975E-02  3.1778859E-02  3.7923971E-02
   13.7500  3.6080954E-02  2.9910409E-02  3.8195526E-02
   14.0000  3.6281577E-02  2.8290678E-02  3.8443967E-02
   14.2500  3.6515743E-02  2.6897872E-02  3.8672048E-02
   14.5000  3.6787345E-02  2.5708107E-02  3.8883313E-02
   14.7500  3.7095090E-02  2.4697920E-02  3.9080334E-02
   15.0000  3.7432479E-02  2.3845621E-02  3.9263134E-02
   15.2500  3.7788116E-02  2.3131885E-02  3.9428123E-02
   15.5000  3.8146502E-02  2.2539886E-02  3.9567809E-02
   15.7500  3.8489333E-02  2.2055181E-02  3.9671423E-02
   16.0000  3.8797228E-02  2.1665472E-02  3.9726377E-02
   16.2500  3.9051681E-02  2.1360314E-02  3.9720308E-02
   16.5000  3.9236936E-02  2.1130810E-02  3.9643277E-02
   16.7500  3.9341474E-02  2.0969311E-02  3.9489612E-02
   17.0000  3.9358905E-02  2.0869136E-02  3.9258982E-02
   17.2500  3.9288196E-02  2.0824339E-02  3.8956486E-02
   17.5000  3.9133320E-02  2.0829518E-02  3.8591834E-02
   17.7500  3.8902509E-02  2.0879682E-02  3.8177912E-02
   18.0000  3.8607284E-02  2.0970177E-02  3.7729124E-02
   18.2500  3.8261415E-02  2.1096649E-02  3.7259858E-02
   18.5000  3.7879908E-02  2.1255052E-02  3.6783315E-02
   18.7500  3.7478066E-02  2.1441674E-02  3.6310753E-02
   19.0000  3.7070649E-02  2.1653190E-02  3.5851129E-02
   19.2500  3.6671163E-02  2.1886733E-02  3.5411020E-02
   19.5000  3.6291271E-02  2.2139974E-02  3.4994742E-02
   19.7500  3.5940402E-02  2.2411157E-02  3.4604586E-02
   20.0000  3.5625678E-02  2.2699002E-02  3.4241217E-02
   21.0000  3.4810217E-02  2.3996884E-02  3.3041033E-02
   22.0000  3.4721662E-02  2.5508445E-02  3.2164525E-02
   23.0000  3.5086004E-02  2.7236563E-02  3.1457849E-02
   24.0000  3.5383799E-02  2.9137074E-02  3.0776249E-02
   25.0000  3.5051672E-02  3.1034754E-02  3.0023531E-02
   26.0000  3.3795113E-02  3.2644233E-02  2.9170000E-02
   27.0000  3.1779236E-02  3.3758561E-02  2.8240930E-02
   28.0000  2.9489512E-02  3.4318686E-02  2.7304268E-02
   29.0000  2.7388402E-02  3.4397329E-02  2.6443843E-02
   30.0000  2.5715994E-02  3.4137828E-02  2.5726272E-02
   31.0000  2.4508780E-02  3.3682187E-02  2.5179636E-02
   32.0000  2.3694496E-02  3.3131980E-02  2.4790881E-02
   33.0000  2.3165739E-02  3.2544303E-02  2.4518138E-02
   34.0000  2.2818148E-02  3.1944855E-02  2.4307740E-02
   35.0000  2.2566694E-02  3.1343078E-02  2.4108138E-02
   36.0000  2.2351708E-02  3.0743178E-02  2.3879264E-02
   37.0000  2.2139618E-02  3.0150936E-02  2.3599147E-02
   38.0000  2.1920649E-02  2.9579044E-02  2.3270027E-02
   39.0000  2.1705313E-02  2.9055106E-02  2.2923958E-02
   40.0000  2.1518758E-02  2.8627994E-02  2.2619312E-02
