    Energy   (100,001)      (010,001)      (001,110)   
  -25.0000  1.7247041E-04  1.9250446E-04  1.8154077E-04
  -24.0000  1.7860553E-04  1.9961372E-04  1.8788852E-04
  -23.0000  1.8514957E-04  2.0722972E-04  1.9465879E-04
  -22.0000  1.9214360E-04  2.1540765E-04  2.0189431E-04
  -21.0000  1.9963431E-04  2.2421093E-04  2.0964375E-04
  -20.0000  2.0767501E-04  2.3371279E-04  2.1796277E-04
  -19.0000  2.1632682E-04  2.4399820E-04  2.2691529E-04
  -18.0000  2.2566019E-04  2.5516634E-04  2.3657514E-04
  -17.0000  2.3575675E-04  2.6733364E-04  2.4702800E-04
  -16.0000  2.4671158E-04  2.8063767E-04  2.5837393E-04
  -15.0000  2.5863616E-04  2.9524211E-04  2.7073053E-04
  -14.0000  2.7166208E-04  3.1134324E-04  2.8423694E-04
  -13.0000  2.8594577E-04  3.2917829E-04  2.9905912E-04
  -12.0000  3.0167478E-04  3.4903666E-04  3.1539664E-04
  -11.0000  3.1907600E-04  3.7127496E-04  3.3349179E-04
  -10.0000  3.3842666E-04  3.9633739E-04  3.5364185E-04
  -9.00000  3.6006947E-04  4.2478417E-04  3.7621588E-04
  -8.00000  3.8443356E-04  4.5733164E-04  4.0167834E-04
  -7.00000  4.1206438E-04  4.9491005E-04  4.3062290E-04
  -6.00000  4.4366733E-04  5.3874906E-04  4.6382225E-04
  -5.00000  4.8017358E-04  5.9050772E-04  5.0230384E-04
  -4.00000  5.2284279E-04  6.5247845E-04  5.4746945E-04
  -3.00000  5.7343097E-04  7.2792016E-04  6.0129267E-04
  -2.00000  6.3447989E-04  8.2162822E-04  6.6666396E-04
  -1.00000  7.0985188E-04  9.4096934E-04  7.4803726E-04
   0.00000  8.0580969E-04  1.0979094E-03  8.5275623E-04
   1.00000  9.3347400E-04  1.3134177E-03  9.9412105E-04
   2.00000  1.1154274E-03  1.6285467E-03  1.1997555E-03
   3.00000  1.4083819E-03  2.1393192E-03  1.5406534E-03
   4.00000  2.0161566E-03  3.1543617E-03  2.2764511E-03
   5.00000  3.8988093E-03  6.0146001E-03  4.6630989E-03
   5.20000  4.4686160E-03  6.9110927E-03  5.4196917E-03
   5.40000  4.9858744E-03  7.8083770E-03  6.1263697E-03
   5.60000  5.4182373E-03  8.6847092E-03  6.7255114E-03
   5.80000  5.7712918E-03  9.5560731E-03  7.2040833E-03
   6.00000  6.0677803E-03  1.0449219E-02  7.5771527E-03
   6.20000  6.3344937E-03  1.1389090E-02  7.8729774E-03
   6.40000  6.5958296E-03  1.2396715E-02  8.1211067E-03
   6.60000  6.8708721E-03  1.3490494E-02  8.3448357E-03
   6.80000  7.1727576E-03  1.4687989E-02  8.5593685E-03
   7.00000  7.5093504E-03  1.6007309E-02  8.7741848E-03
   7.20000  7.8844586E-03  1.7467868E-02  8.9968322E-03
   7.40000  8.2991850E-03  1.9090484E-02  9.2359740E-03
   7.60000  8.7532156E-03  2.0896879E-02  9.5027081E-03
   7.80000  9.2458980E-03  2.2908549E-02  9.8101702E-03
   8.00000  9.7769757E-03  2.5144826E-02  1.0172025E-02
   8.20000  1.0346930E-02  2.7619890E-02  1.0600618E-02
   8.40000  1.0956988E-02  3.0338511E-02  1.1105449E-02
   8.60000  1.1608939E-02  3.3290596E-02  1.1692338E-02
   8.80000  1.2304866E-02  3.6445086E-02  1.2363419E-02
   9.00000  1.3046900E-02  3.9744476E-02  1.3117852E-02
   9.20000  1.3836997E-02  4.3101758E-02  1.3952912E-02
   9.40000  1.4676767E-02  4.6401745E-02  1.4865011E-02
   9.60000  1.5567269E-02  4.9508226E-02  1.5850076E-02
   9.80000  1.6508606E-02  5.2276992E-02  1.6902951E-02
   10.0000  1.7499335E-02  5.4572104E-02  1.8016193E-02
   10.2500  1.8802036E-02  5.6606102E-02  1.9476153E-02
   10.5000  2.0166221E-02  5.7582653E-02  2.0986614E-02
   10.7500  2.1574260E-02  5.7461445E-02  2.2517725E-02
   11.0000  2.2997582E-02  5.6310844E-02  2.4042604E-02
   11.2500  2.4399248E-02  5.4297630E-02  2.5542703E-02
   11.5000  2.5740670E-02  5.1656795E-02  2.7010916E-02
   11.7500  2.6987649E-02  4.8644603E-02  2.8449449E-02
   12.0000  2.8113992E-02  4.5493480E-02  2.9861247E-02
   12.2500  2.9103605E-02  4.2383390E-02  3.1240870E-02
   12.5000  2.9951831E-02  3.9433685E-02  3.2572197E-02
   12.7500  3.0665266E-02  3.6710844E-02  3.3831576E-02
   13.0000  3.1259030E-02  3.4243727E-02  3.4989181E-02
   13.2500  3.1753049E-02  3.2038567E-02  3.6010608E-02
   13.5000  3.2169975E-02  3.0088723E-02  3.6864439E-02
   13.7500  3.2534266E-02  2.8380030E-02  3.7532016E-02
   14.0000  3.2871016E-02  2.6894223E-02  3.8013201E-02
   14.2500  3.3204305E-02  2.5611320E-02  3.8326403E-02
   14.5000  3.3555420E-02  2.4511192E-02  3.8504166E-02
   14.7500  3.3941296E-02  2.3574540E-02  3.8586604E-02
   15.0000  3.4373369E-02  2.2783467E-02  3.8614797E-02
   15.2500  3.4856937E-02  2.2121773E-02  3.8625571E-02
   15.5000  3.5391031E-02  2.1575057E-02  3.8648130E-02
   15.7500  3.5968749E-02  2.1130672E-02  3.8702416E-02
   16.0000  3.6578018E-02  2.0777580E-02  3.8798787E-02
   16.2500  3.7202751E-02  2.0506157E-02  3.8938598E-02
   16.5000  3.7824353E-02  2.0307984E-02  3.9115392E-02
   16.7500  3.8423516E-02  2.0175643E-02  3.9316553E-02
   17.0000  3.8982161E-02  2.0102554E-02  3.9525303E-02
   17.2500  3.9485321E-02  2.0082830E-02  3.9722924E-02
   17.5000  3.9922695E-02  2.0111169E-02  3.9891015E-02
   17.7500  4.0289612E-02  2.0182777E-02  4.0013547E-02
   18.0000  4.0587245E-02  2.0293316E-02  4.0078436E-02
   18.2500  4.0822035E-02  2.0438866E-02  4.0078469E-02
   18.5000  4.1004472E-02  2.0615910E-02  4.0011488E-02
   18.7500  4.1147478E-02  2.0821335E-02  3.9879916E-02
   19.0000  4.1264713E-02  2.1052448E-02  3.9689788E-02
   19.2500  4.1369065E-02  2.1307013E-02  3.9449507E-02
   19.5000  4.1471476E-02  2.1583288E-02  3.9168553E-02
   19.7500  4.1580170E-02  2.1880032E-02  3.8856397E-02
   20.0000  4.1700228E-02  2.2196370E-02  3.8521852E-02
   21.0000  4.2290330E-02  2.3640173E-02  3.7110500E-02
   22.0000  4.2817099E-02  2.5338016E-02  3.5804934E-02
   23.0000  4.2785072E-02  2.7246333E-02  3.4678687E-02
   24.0000  4.1790903E-02  2.9243197E-02  3.3691767E-02
   25.0000  3.9779895E-02  3.1111409E-02  3.2784184E-02
   26.0000  3.7064940E-02  3.2611637E-02  3.1901427E-02
   27.0000  3.4132033E-02  3.3584556E-02  3.1016484E-02
   28.0000  3.1410077E-02  3.4005726E-02  3.0148857E-02
   29.0000  2.9148267E-02  3.3966556E-02  2.9356315E-02
   30.0000  2.7417649E-02  3.3609114E-02  2.8701908E-02
   31.0000  2.6177348E-02  3.3064080E-02  2.8222202E-02
   32.0000  2.5341695E-02  3.2429276E-02  2.7917190E-02
   33.0000  2.4815535E-02  3.1769677E-02  2.7754146E-02
   34.0000  2.4504569E-02  3.1104924E-02  2.7673325E-02
   35.0000  2.4325567E-02  3.0433275E-02  2.7609228E-02
   36.0000  2.4209382E-02  2.9757228E-02  2.7508326E-02
   37.0000  2.4100559E-02  2.9092016E-02  2.7338162E-02
   38.0000  2.3962542E-02  2.8465179E-02  2.7094182E-02
   39.0000  2.3789445E-02  2.7913197E-02  2.6806043E-02
   40.0000  2.3613741E-02  2.7478233E-02  2.6537004E-02
