    Energy   (100,001)      (010,001)      (001,110)   
  -25.0000  1.6776139E-04  1.8356428E-04  1.7754443E-04
  -24.0000  1.7381905E-04  1.9054323E-04  1.8398097E-04
  -23.0000  1.8028431E-04  1.9802600E-04  1.9085659E-04
  -22.0000  1.8719834E-04  2.0606770E-04  1.9821644E-04
  -21.0000  1.9460796E-04  2.1473163E-04  2.0611195E-04
  -20.0000  2.0256666E-04  2.2409085E-04  2.1460202E-04
  -19.0000  2.1113576E-04  2.3423017E-04  2.2375436E-04
  -18.0000  2.2038598E-04  2.4524853E-04  2.3364721E-04
  -17.0000  2.3039922E-04  2.5726204E-04  2.4437150E-04
  -16.0000  2.4127090E-04  2.7040786E-04  2.5603345E-04
  -15.0000  2.5311286E-04  2.8484912E-04  2.6875795E-04
  -14.0000  2.6605701E-04  3.0078130E-04  2.8269280E-04
  -13.0000  2.8026010E-04  3.1844055E-04  2.9801426E-04
  -12.0000  2.9590981E-04  3.3811475E-04  3.1493420E-04
  -11.0000  3.1323283E-04  3.6015827E-04  3.3370955E-04
  -10.0000  3.3250555E-04  3.8501217E-04  3.5465499E-04
  -9.00000  3.5406867E-04  4.1323203E-04  3.7816022E-04
  -8.00000  3.7834713E-04  4.4552729E-04  4.0471381E-04
  -7.00000  4.0587829E-04  4.8281786E-04  4.3493699E-04
  -6.00000  4.3735238E-04  5.2631760E-04  4.6963248E-04
  -5.00000  4.7367228E-04  5.7766081E-04  5.0985704E-04
  -4.00000  5.1604468E-04  6.3910038E-04  5.5703278E-04
  -3.00000  5.6612459E-04  7.1382999E-04  6.1312449E-04
  -2.00000  6.2625526E-04  8.0653359E-04  6.8093533E-04
  -1.00000  6.9989143E-04  9.2437839E-04  7.6462974E-04
   0.00000  7.9240596E-04  1.0789508E-03  8.7072883E-04
   1.00000  9.1280061E-04  1.2904354E-03  1.0102062E-03
   2.00000  1.0779346E-03  1.5980496E-03  1.2035739E-03
   3.00000  1.3257389E-03  2.0925861E-03  1.4962125E-03
   4.00000  1.7752627E-03  3.0616701E-03  2.0239933E-03
   5.00000  2.9360751E-03  5.7464593E-03  3.3522757E-03
   5.20000  3.2851852E-03  6.5962322E-03  3.7746485E-03
   5.40000  3.6274697E-03  7.4601481E-03  4.2197862E-03
   5.60000  3.9547932E-03  8.3183667E-03  4.6814873E-03
   5.80000  4.2747652E-03  9.1832899E-03  5.1660388E-03
   6.00000  4.5994851E-03  1.0076790E-02  5.6833877E-03
   6.20000  4.9406273E-03  1.1019555E-02  6.2428472E-03
   6.40000  5.3087745E-03  1.2028941E-02  6.8521260E-03
   6.60000  5.7138774E-03  1.3119336E-02  7.5173900E-03
   6.80000  6.1656755E-03  1.4302857E-02  8.2434440E-03
   7.00000  6.6738264E-03  1.5589931E-02  9.0337134E-03
   7.20000  7.2476794E-03  1.6989780E-02  9.8899290E-03
   7.40000  7.8956269E-03  1.8510945E-02  1.0811522E-02
   7.60000  8.6239936E-03  2.0162127E-02  1.1794836E-02
   7.80000  9.4355747E-03  2.1953683E-02  1.2832477E-02
   8.00000  1.0328173E-02  2.3899527E-02  1.3913365E-02
   8.20000  1.1293754E-02  2.6018402E-02  1.5024029E-02
   8.40000  1.2318889E-02  2.8333766E-02  1.6151146E-02
   8.60000  1.3386645E-02  3.0871643E-02  1.7284150E-02
   8.80000  1.4479344E-02  3.3655676E-02  1.8416126E-02
   9.00000  1.5581470E-02  3.6699137E-02  1.9542242E-02
   9.20000  1.6682439E-02  3.9994551E-02  2.0657066E-02
   9.40000  1.7778903E-02  4.3502273E-02  2.1752900E-02
   9.60000  1.8875471E-02  4.7139839E-02  2.2820298E-02
   9.80000  1.9982485E-02  5.0774647E-02  2.3850302E-02
   10.0000  2.1111078E-02  5.4223754E-02  2.4837127E-02
   10.2500  2.2561081E-02  5.7935436E-02  2.6009935E-02
   10.5000  2.4047338E-02  6.0568979E-02  2.7128646E-02
   10.7500  2.5538390E-02  6.1784411E-02  2.8218161E-02
   11.0000  2.6981548E-02  6.1444586E-02  2.9300704E-02
   11.2500  2.8316501E-02  5.9657001E-02  3.0384239E-02
   11.5000  2.9493200E-02  5.6738227E-02  3.1462530E-02
   11.7500  3.0484462E-02  5.3109462E-02  3.2521158E-02
   12.0000  3.1289685E-02  4.9179037E-02  3.3542635E-02
   12.2500  3.1930529E-02  4.5266786E-02  3.4508551E-02
   12.5000  3.2441904E-02  4.1581791E-02  3.5400604E-02
   12.7500  3.2863656E-02  3.8235834E-02  3.6202823E-02
   13.0000  3.3234347E-02  3.5270684E-02  3.6904207E-02
   13.2500  3.3586848E-02  3.2684762E-02  3.7500777E-02
   13.5000  3.3946050E-02  3.0453427E-02  3.7997231E-02
   13.7500  3.4328410E-02  2.8542256E-02  3.8407263E-02
   14.0000  3.4742913E-02  2.6914527E-02  3.8751340E-02
   14.2500  3.5192580E-02  2.5534907E-02  3.9052857E-02
   14.5000  3.5675751E-02  2.4371143E-02  3.9334204E-02
   14.7500  3.6186977E-02  2.3394729E-02  3.9613550E-02
   15.0000  3.6717640E-02  2.2581014E-02  3.9902592E-02
   15.2500  3.7256398E-02  2.1909020E-02  4.0205344E-02
   15.5000  3.7789490E-02  2.1361115E-02  4.0517935E-02
   15.7500  3.8300996E-02  2.0922603E-02  4.0829347E-02
   16.0000  3.8773151E-02  2.0581282E-02  4.1122996E-02
   16.2500  3.9186922E-02  2.0326981E-02  4.1379015E-02
   16.5000  3.9523002E-02  2.0151115E-02  4.1576988E-02
   16.7500  3.9763274E-02  2.0046273E-02  4.1698786E-02
   17.0000  3.9892658E-02  2.0005875E-02  4.1731055E-02
   17.2500  3.9901022E-02  2.0023929E-02  4.1666918E-02
   17.5000  3.9784758E-02  2.0094875E-02  4.1506602E-02
   17.7500  3.9547624E-02  2.0213527E-02  4.1256950E-02
   18.0000  3.9200613E-02  2.0375065E-02  4.0930035E-02
   18.2500  3.8760879E-02  2.0575068E-02  4.0541274E-02
   18.5000  3.8249956E-02  2.0809544E-02  4.0107469E-02
   18.7500  3.7691650E-02  2.1074964E-02  3.9645105E-02
   19.0000  3.7109970E-02  2.1368289E-02  3.9169083E-02
   19.2500  3.6527345E-02  2.1687013E-02  3.8691922E-02
   19.5000  3.5963287E-02  2.2029186E-02  3.8223357E-02
   19.7500  3.5433601E-02  2.2393397E-02  3.7770291E-02
   20.0000  3.4950295E-02  2.2778590E-02  3.7337118E-02
   21.0000  3.3627723E-02  2.4504010E-02  3.5839641E-02
   22.0000  3.3392663E-02  2.6466554E-02  3.4691968E-02
   23.0000  3.4055289E-02  2.8580973E-02  3.3730507E-02
   24.0000  3.5191191E-02  3.0682901E-02  3.2773020E-02
   25.0000  3.6236524E-02  3.2521392E-02  3.1715236E-02
   26.0000  3.6619274E-02  3.3833337E-02  3.0573636E-02
   27.0000  3.6019724E-02  3.4465291E-02  2.9458411E-02
   28.0000  3.4560404E-02  3.4456111E-02  2.8476902E-02
   29.0000  3.2695360E-02  3.3974453E-02  2.7693744E-02
   30.0000  3.0881691E-02  3.3216871E-02  2.7127018E-02
   31.0000  2.9367664E-02  3.2341365E-02  2.6752766E-02
   32.0000  2.8197156E-02  3.1444475E-02  2.6519488E-02
   33.0000  2.7302630E-02  3.0567770E-02  2.6366006E-02
   34.0000  2.6582914E-02  2.9715185E-02  2.6234942E-02
   35.0000  2.5945013E-02  2.8871521E-02  2.6079139E-02
   36.0000  2.5322506E-02  2.8019258E-02  2.5864068E-02
   37.0000  2.4682910E-02  2.7152739E-02  2.5570769E-02
   38.0000  2.4030786E-02  2.6289980E-02  2.5202417E-02
   39.0000  2.3408942E-02  2.5483274E-02  2.4795819E-02
   40.0000  2.2889683E-02  2.4818835E-02  2.4426731E-02
