    Energy   (100,001)      (010,001)      (001,110)   
  -25.0000  1.6510969E-04  1.8107374E-04  1.8481498E-04
  -24.0000  1.7112756E-04  1.8800318E-04  1.9146324E-04
  -23.0000  1.7755209E-04  1.9543482E-04  1.9856794E-04
  -22.0000  1.8442437E-04  2.0342371E-04  2.0617668E-04
  -21.0000  1.9179113E-04  2.1203312E-04  2.1434383E-04
  -20.0000  1.9970573E-04  2.2133612E-04  2.2313181E-04
  -19.0000  2.0822937E-04  2.3141750E-04  2.3261257E-04
  -18.0000  2.1743253E-04  2.4237624E-04  2.4286951E-04
  -17.0000  2.2739687E-04  2.5432852E-04  2.5399983E-04
  -16.0000  2.3821747E-04  2.6741162E-04  2.6611748E-04
  -15.0000  2.5000571E-04  2.8178882E-04  2.7935695E-04
  -14.0000  2.6289291E-04  2.9765588E-04  2.9387807E-04
  -13.0000  2.7703504E-04  3.1524930E-04  3.0987223E-04
  -12.0000  2.9261872E-04  3.3485745E-04  3.2757066E-04
  -11.0000  3.0986924E-04  3.5683540E-04  3.4725521E-04
  -10.0000  3.2906115E-04  3.8162506E-04  3.6927316E-04
  -9.00000  3.5053259E-04  4.0978317E-04  3.9405728E-04
  -8.00000  3.7470514E-04  4.4202056E-04  4.2215403E-04
  -7.00000  4.0211155E-04  4.7925877E-04  4.5426374E-04
  -6.00000  4.3343586E-04  5.2271333E-04  4.9129931E-04
  -5.00000  4.6957254E-04  5.7401967E-04  5.3447449E-04
  -4.00000  5.1171698E-04  6.3542980E-04  5.8544113E-04
  -3.00000  5.6150918E-04  7.1013096E-04  6.4651098E-04
  -2.00000  6.2127335E-04  8.0278615E-04  7.2103223E-04
  -1.00000  6.9444215E-04  9.2050466E-04  8.1406873E-04
   0.00000  7.8637056E-04  1.0747173E-03  9.3372572E-04
   1.00000  9.0607453E-04  1.2851789E-03  1.0940275E-03
   2.00000  1.0705659E-03  1.5898227E-03  1.3221804E-03
   3.00000  1.3185179E-03  2.0750104E-03  1.6815917E-03
   4.00000  1.7727788E-03  3.0087047E-03  2.3766222E-03
   5.00000  2.9644364E-03  5.5210512E-03  4.3054136E-03
   5.20000  3.3254477E-03  6.3021292E-03  4.9152789E-03
   5.40000  3.6802618E-03  7.0928409E-03  5.5313080E-03
   5.60000  4.0202823E-03  7.8802131E-03  6.1358834E-03
   5.80000  4.3529715E-03  8.6810944E-03  6.7336312E-03
   6.00000  4.6901611E-03  9.5192182E-03  7.3352544E-03
   6.20000  5.0428527E-03  1.0416290E-02  7.9508985E-03
   6.40000  5.4203676E-03  1.1392209E-02  8.5895948E-03
   6.60000  5.8307532E-03  1.2466854E-02  9.2594427E-03
   6.80000  6.2814019E-03  1.3660720E-02  9.9672011E-03
   7.00000  6.7795691E-03  1.4994845E-02  1.0718471E-02
   7.20000  7.3325169E-03  1.6491102E-02  1.1519716E-02
   7.40000  7.9471063E-03  1.8173173E-02  1.2381795E-02
   7.60000  8.6288334E-03  2.0067477E-02  1.3323054E-02
   7.80000  9.3804556E-03  2.2202902E-02  1.4369550E-02
   8.00000  1.0200460E-02  2.4608562E-02  1.5550805E-02
   8.20000  1.1081687E-02  2.7309523E-02  1.6891848E-02
   8.40000  1.2010616E-02  3.0320860E-02  1.8404688E-02
   8.60000  1.2968463E-02  3.3640938E-02  2.0082032E-02
   8.80000  1.3935156E-02  3.7244955E-02  2.1894292E-02
   9.00000  1.4895339E-02  4.1079090E-02  2.3790774E-02
   9.20000  1.5843518E-02  4.5055342E-02  2.5705177E-02
   9.40000  1.6785274E-02  4.9047773E-02  2.7564066E-02
   9.60000  1.7733781E-02  5.2891812E-02  2.9296523E-02
   9.80000  1.8703781E-02  5.6389456E-02  3.0843204E-02
   10.0000  1.9706269E-02  5.9323604E-02  3.2163053E-02
   10.2500  2.1011393E-02  6.1881396E-02  3.3465814E-02
   10.5000  2.2369078E-02  6.2925501E-02  3.4392255E-02
   10.7500  2.3762483E-02  6.2360029E-02  3.4994765E-02
   11.0000  2.5164462E-02  6.0338253E-02  3.5355074E-02
   11.2500  2.6537612E-02  5.7206567E-02  3.5561423E-02
   11.5000  2.7837921E-02  5.3394508E-02  3.5690308E-02
   11.7500  2.9023385E-02  4.9307225E-02  3.5797447E-02
   12.0000  3.0061578E-02  4.5258967E-02  3.5917031E-02
   12.2500  3.0933940E-02  4.1454755E-02  3.6065550E-02
   12.5000  3.1639587E-02  3.8004497E-02  3.6245260E-02
   12.7500  3.2195966E-02  3.4949534E-02  3.6446903E-02
   13.0000  3.2634278E-02  3.2288299E-02  3.6652930E-02
   13.2500  3.2992276E-02  2.9995821E-02  3.6841962E-02
   13.5000  3.3307495E-02  2.8036730E-02  3.6994849E-02
   13.7500  3.3612593E-02  2.6373004E-02  3.7100090E-02
   14.0000  3.3933122E-02  2.4967922E-02  3.7155690E-02
   14.2500  3.4287136E-02  2.3787754E-02  3.7167883E-02
   14.5000  3.4685783E-02  2.2802371E-02  3.7148555E-02
   14.7500  3.5134266E-02  2.1985347E-02  3.7112242E-02
   15.0000  3.5632757E-02  2.1313820E-02  3.7073176E-02
   15.2500  3.6177164E-02  2.0768230E-02  3.7042777E-02
   15.5000  3.6759691E-02  2.0331978E-02  3.7027907E-02
   15.7500  3.7369322E-02  1.9991081E-02  3.7030007E-02
   16.0000  3.7992326E-02  1.9733818E-02  3.7045093E-02
   16.2500  3.8612902E-02  1.9550417E-02  3.7064488E-02
   16.5000  3.9214053E-02  1.9432767E-02  3.7076142E-02
   16.7500  3.9778702E-02  1.9374178E-02  3.7066348E-02
   17.0000  4.0291036E-02  1.9369165E-02  3.7021644E-02
   17.2500  4.0737939E-02  1.9413263E-02  3.6930633E-02
   17.5000  4.1110318E-02  1.9502851E-02  3.6785477E-02
   17.7500  4.1404103E-02  1.9634990E-02  3.6582828E-02
   18.0000  4.1620674E-02  1.9807268E-02  3.6324063E-02
   18.2500  4.1766606E-02  2.0017646E-02  3.6014846E-02
   18.5000  4.1852730E-02  2.0264336E-02  3.5664154E-02
   18.7500  4.1892683E-02  2.0545694E-02  3.5283006E-02
   19.0000  4.1901196E-02  2.0860166E-02  3.4883132E-02
   19.2500  4.1892398E-02  2.1206277E-02  3.4475784E-02
   19.5000  4.1878377E-02  2.1582659E-02  3.4070816E-02
   19.7500  4.1868125E-02  2.1988033E-02  3.3676122E-02
   20.0000  4.1866916E-02  2.2421030E-02  3.3297544E-02
   21.0000  4.1933335E-02  2.4383759E-02  3.2012547E-02
   22.0000  4.1804520E-02  2.6591237E-02  3.1134459E-02
   23.0000  4.0940922E-02  2.8885179E-02  3.0566657E-02
   24.0000  3.9084490E-02  3.1079532E-02  3.0160657E-02
   25.0000  3.6463610E-02  3.2947670E-02  2.9792785E-02
   26.0000  3.3587986E-02  3.4266063E-02  2.9393387E-02
   27.0000  3.0922077E-02  3.4902196E-02  2.8954544E-02
   28.0000  2.8723954E-02  3.4873890E-02  2.8518989E-02
   29.0000  2.7059331E-02  3.4336084E-02  2.8154545E-02
   30.0000  2.5872991E-02  3.3502405E-02  2.7916846E-02
   31.0000  2.5056831E-02  3.2540850E-02  2.7813010E-02
   32.0000  2.4497150E-02  3.1548352E-02  2.7810772E-02
   33.0000  2.4094440E-02  3.0566617E-02  2.7859973E-02
   34.0000  2.3768815E-02  2.9601550E-02  2.7905956E-02
   35.0000  2.3461644E-02  2.8642592E-02  2.7897934E-02
   36.0000  2.3135963E-02  2.7679041E-02  2.7795884E-02
   37.0000  2.2776122E-02  2.6712886E-02  2.7578115E-02
   38.0000  2.2387751E-02  2.5769053E-02  2.7250355E-02
   39.0000  2.2000158E-02  2.4903847E-02  2.6857846E-02
   40.0000  2.1665398E-02  2.4201487E-02  2.6490425E-02
