    Energy   (100,001)      (010,001)      (001,110)   
  -25.0000  1.6672968E-04  1.8783976E-04  1.7303368E-04
  -24.0000  1.7288635E-04  1.9475942E-04  1.7946578E-04
  -23.0000  1.7946357E-04  2.0216805E-04  1.8634405E-04
  -22.0000  1.8650420E-04  2.1011830E-04  1.9371491E-04
  -21.0000  1.9405699E-04  2.1867057E-04  2.0163133E-04
  -20.0000  2.0217762E-04  2.2789449E-04  2.1015401E-04
  -19.0000  2.1093001E-04  2.3787071E-04  2.1935286E-04
  -18.0000  2.2038781E-04  2.4869316E-04  2.2930874E-04
  -17.0000  2.3063638E-04  2.6047189E-04  2.4011575E-04
  -16.0000  2.4177516E-04  2.7333664E-04  2.5188400E-04
  -15.0000  2.5392066E-04  2.8744140E-04  2.6474312E-04
  -14.0000  2.6721030E-04  3.0297030E-04  2.7884683E-04
  -13.0000  2.8180730E-04  3.2014528E-04  2.9437873E-04
  -12.0000  2.9790694E-04  3.3923626E-04  3.1155993E-04
  -11.0000  3.1574491E-04  3.6057467E-04  3.3065917E-04
  -10.0000  3.3560828E-04  3.8457186E-04  3.5200635E-04
  -9.00000  3.5785036E-04  4.1174448E-04  3.7601110E-04
  -8.00000  3.8291106E-04  4.4275019E-04  4.0318854E-04
  -7.00000  4.1134542E-04  4.7843882E-04  4.3419604E-04
  -6.00000  4.4386442E-04  5.1992756E-04  4.6988665E-04
  -5.00000  4.8139494E-04  5.6871437E-04  5.1138956E-04
  -4.00000  5.2517062E-04  6.2685483E-04  5.6023491E-04
  -3.00000  5.7687494E-04  6.9724824E-04  6.1855656E-04
  -2.00000  6.3887692E-04  7.8412278E-04  6.8943853E-04
  -1.00000  7.1464335E-04  8.9390744E-04  7.7754888E-04
   0.00000  8.0951740E-04  1.0369213E-03  8.9040588E-04
   1.00000  9.3235321E-04  1.2309990E-03  1.0412301E-03
   2.00000  1.0995103E-03  1.5104931E-03  1.2565588E-03
   3.00000  1.3471573E-03  1.9542415E-03  1.6024268E-03
   4.00000  1.7860490E-03  2.8102183E-03  2.3167342E-03
   5.00000  2.8894435E-03  5.1452424E-03  4.4950238E-03
   5.20000  3.2334144E-03  5.8807891E-03  5.1076759E-03
   5.40000  3.5862022E-03  6.6264919E-03  5.6266012E-03
   5.60000  3.9382734E-03  7.3636629E-03  6.0351570E-03
   5.80000  4.2893171E-03  8.1022067E-03  6.3651982E-03
   6.00000  4.6412383E-03  8.8611350E-03  6.6550589E-03
   6.20000  4.9963425E-03  9.6588289E-03  6.9319773E-03
   6.40000  5.3579137E-03  1.0510833E-02  7.2128382E-03
   6.60000  5.7306738E-03  1.1430249E-02  7.5100148E-03
   6.80000  6.1207645E-03  1.2428655E-02  7.8359359E-03
   7.00000  6.5355581E-03  1.3517005E-02  8.2048610E-03
   7.20000  6.9834963E-03  1.4706445E-02  8.6323885E-03
   7.40000  7.4739385E-03  1.6008976E-02  9.1339134E-03
   7.60000  8.0169799E-03  1.7438000E-02  9.7232540E-03
   7.80000  8.6232301E-03  1.9008701E-02  1.0412106E-02
   8.00000  9.3035349E-03  2.0737963E-02  1.1210277E-02
   8.20000  1.0068620E-02  2.2643765E-02  1.2126270E-02
   8.40000  1.0928605E-02  2.4744090E-02  1.3167751E-02
   8.60000  1.1892274E-02  2.7055188E-02  1.4341615E-02
   8.80000  1.2966011E-02  2.9588971E-02  1.5653571E-02
   9.00000  1.4152424E-02  3.2349314E-02  1.7107182E-02
   9.20000  1.5449052E-02  3.5327292E-02  1.8702302E-02
   9.40000  1.6847959E-02  3.8495756E-02  2.0433199E-02
   9.60000  1.8336911E-02  4.1804123E-02  2.2286928E-02
   9.80000  1.9901615E-02  4.5174592E-02  2.4242418E-02
   10.0000  2.1527243E-02  4.8500596E-02  2.6270494E-02
   10.2500  2.3620250E-02  5.2388968E-02  2.8852228E-02
   10.5000  2.5744095E-02  5.5690559E-02  3.1412659E-02
   10.7500  2.7847429E-02  5.8089229E-02  3.3877061E-02
   11.0000  2.9866993E-02  5.9321090E-02  3.6182026E-02
   11.2500  3.1732929E-02  5.9247374E-02  3.8274813E-02
   11.5000  3.3378202E-02  5.7904351E-02  4.0107368E-02
   11.7500  3.4749230E-02  5.5496438E-02  4.1630398E-02
   12.0000  3.5816029E-02  5.2336291E-02  4.2793628E-02
   12.2500  3.6580499E-02  4.8764096E-02  4.3556969E-02
   12.5000  3.7078039E-02  4.5080060E-02  4.3907728E-02
   12.7500  3.7370208E-02  4.1508613E-02  4.3871728E-02
   13.0000  3.7531301E-02  3.8192742E-02  4.3511416E-02
   13.2500  3.7634141E-02  3.5206558E-02  4.2913133E-02
   13.5000  3.7739580E-02  3.2574482E-02  4.2170314E-02
   13.7500  3.7891419E-02  3.0289488E-02  4.1369204E-02
   14.0000  3.8116236E-02  2.8327034E-02  4.0580414E-02
   14.2500  3.8426067E-02  2.6654515E-02  3.9856028E-02
   14.5000  3.8821857E-02  2.5237234E-02  3.9230333E-02
   14.7500  3.9296472E-02  2.4041883E-02  3.8722273E-02
   15.0000  3.9836891E-02  2.3038338E-02  3.8338315E-02
   15.2500  4.0425616E-02  2.2200370E-02  3.8075095E-02
   15.5000  4.1041581E-02  2.1505718E-02  3.7921629E-02
   15.7500  4.1660890E-02  2.0935805E-02  3.7861146E-02
   16.0000  4.2257690E-02  2.0475285E-02  3.7872738E-02
   16.2500  4.2805367E-02  2.0111526E-02  3.7932970E-02
   16.5000  4.3278122E-02  1.9834104E-02  3.8017591E-02
   16.7500  4.3652854E-02  1.9634341E-02  3.8103322E-02
   17.0000  4.3911111E-02  1.9504917E-02  3.8169594E-02
   17.2500  4.4040827E-02  1.9439554E-02  3.8200015E-02
   17.5000  4.4037504E-02  1.9432770E-02  3.8183349E-02
   17.7500  4.3904603E-02  1.9479714E-02  3.8113869E-02
   18.0000  4.3653057E-02  1.9576040E-02  3.7991042E-02
   18.2500  4.3299968E-02  1.9717834E-02  3.7818693E-02
   18.5000  4.2866734E-02  1.9901570E-02  3.7603823E-02
   18.7500  4.2376899E-02  2.0124091E-02  3.7355333E-02
   19.0000  4.1854042E-02  2.0382611E-02  3.7082820E-02
   19.2500  4.1319927E-02  2.0674740E-02  3.6795580E-02
   19.5000  4.0793090E-02  2.0998513E-02  3.6501867E-02
   19.7500  4.0287952E-02  2.1352357E-02  3.6208444E-02
   20.0000  3.9814631E-02  2.1734896E-02  3.5920497E-02
   21.0000  3.8327284E-02  2.3515255E-02  3.4887990E-02
   22.0000  3.7427093E-02  2.5599851E-02  3.4090553E-02
   23.0000  3.6737747E-02  2.7853404E-02  3.3437156E-02
   24.0000  3.5819332E-02  3.0095110E-02  3.2764652E-02
   25.0000  3.4373682E-02  3.2103307E-02  3.1931643E-02
   26.0000  3.2364543E-02  3.3663298E-02  3.0882785E-02
   27.0000  3.0061697E-02  3.4635278E-02  2.9684043E-02
   28.0000  2.7893248E-02  3.5005963E-02  2.8492007E-02
   29.0000  2.6147103E-02  3.4886312E-02  2.7447365E-02
   30.0000  2.4901200E-02  3.4439081E-02  2.6628434E-02
   31.0000  2.4096103E-02  3.3812177E-02  2.6047053E-02
   32.0000  2.3613886E-02  3.3106541E-02  2.5662496E-02
   33.0000  2.3330627E-02  3.2371665E-02  2.5405971E-02
   34.0000  2.3140408E-02  3.1618619E-02  2.5201861E-02
   35.0000  2.2962999E-02  3.0840054E-02  2.4981208E-02
   36.0000  2.2745367E-02  3.0028612E-02  2.4690095E-02
   37.0000  2.2462495E-02  2.9189750E-02  2.4298251E-02
   38.0000  2.2119400E-02  2.8350041E-02  2.3810410E-02
   39.0000  2.1753627E-02  2.7565206E-02  2.3278888E-02
   40.0000  2.1429201E-02  2.6920635E-02  2.2802484E-02
