    Energy   (100,001)      (010,001)      (001,110)   
  -25.0000  1.6535607E-04  1.8095286E-04  1.7947923E-04
  -24.0000  1.7134271E-04  1.8801040E-04  1.8586963E-04
  -23.0000  1.7773236E-04  1.9558854E-04  1.9269236E-04
  -22.0000  1.8456579E-04  2.0374531E-04  1.9999173E-04
  -21.0000  1.9188934E-04  2.1254754E-04  2.0781830E-04
  -20.0000  1.9975596E-04  2.2207257E-04  2.1622991E-04
  -19.0000  2.0822642E-04  2.3241036E-04  2.2529313E-04
  -18.0000  2.1737080E-04  2.4366619E-04  2.3508489E-04
  -17.0000  2.2727036E-04  2.5596399E-04  2.4569460E-04
  -16.0000  2.3801985E-04  2.6945061E-04  2.5722682E-04
  -15.0000  2.4973041E-04  2.8430128E-04  2.6980454E-04
  -14.0000  2.6253336E-04  3.0072680E-04  2.8357344E-04
  -13.0000  2.7658493E-04  3.1898280E-04  2.9870743E-04
  -12.0000  2.9207258E-04  3.3938229E-04  3.1541578E-04
  -11.0000  3.0922325E-04  3.6231238E-04  3.3395268E-04
  -10.0000  3.2831444E-04  3.8825729E-04  3.5463001E-04
  -9.00000  3.4968939E-04  4.1783044E-04  3.7783485E-04
  -8.00000  3.7377802E-04  4.5181994E-04  4.0405385E-04
  -7.00000  4.0112680E-04  4.9125465E-04  4.3390790E-04
  -6.00000  4.3244207E-04  5.3750243E-04  4.6820278E-04
  -5.00000  4.6865498E-04  5.9242040E-04  5.0800515E-04
  -4.00000  5.1102178E-04  6.5859259E-04  5.5476081E-04
  -3.00000  5.6128561E-04  7.3972065E-04  6.1048621E-04
  -2.00000  6.2194994E-04  8.4129754E-04  6.7809525E-04
  -1.00000  6.9677055E-04  9.7183954E-04  7.6199357E-04
   0.00000  7.9171272E-04  1.1453159E-03  8.6925375E-04
   1.00000  9.1702141E-04  1.3864493E-03  1.0122149E-03
   2.00000  1.0924169E-03  1.7440523E-03  1.2152160E-03
   3.00000  1.3634152E-03  2.3326879E-03  1.5366414E-03
   4.00000  1.8746265E-03  3.5171278E-03  2.1727827E-03
   5.00000  3.2576473E-03  6.8843723E-03  4.0262100E-03
   5.20000  3.6981265E-03  7.9835613E-03  4.6230637E-03
   5.40000  4.1475361E-03  9.1267068E-03  5.2173913E-03
   5.60000  4.5904402E-03  1.0282598E-02  5.7758064E-03
   5.80000  5.0269048E-03  1.1452420E-02  6.2868652E-03
   6.00000  5.4648419E-03  1.2649848E-02  6.7509521E-03
   6.20000  5.9164032E-03  1.3896590E-02  7.1757034E-03
   6.40000  6.3958803E-03  1.5224695E-02  7.5745479E-03
   6.60000  6.9182082E-03  1.6673868E-02  7.9656079E-03
   6.80000  7.4994775E-03  1.8282283E-02  8.3704300E-03
   7.00000  8.1587031E-03  2.0077921E-02  8.8122280E-03
   7.20000  8.9181809E-03  2.2076420E-02  9.3137722E-03
   7.40000  9.8006793E-03  2.4284247E-02  9.8954329E-03
   7.60000  1.0822914E-02  2.6701492E-02  1.0573424E-02
   7.80000  1.1984744E-02  2.9319297E-02  1.1357621E-02
   8.00000  1.3254360E-02  3.2111601E-02  1.2248349E-02
   8.20000  1.4554775E-02  3.5026536E-02  1.3232845E-02
   8.40000  1.5765710E-02  3.7988125E-02  1.4284577E-02
   8.60000  1.6756597E-02  4.0917252E-02  1.5369908E-02
   8.80000  1.7444499E-02  4.3763153E-02  1.6462019E-02
   9.00000  1.7836652E-02  4.6515648E-02  1.7552698E-02
   9.20000  1.8020508E-02  4.9178080E-02  1.8651415E-02
   9.40000  1.8113212E-02  5.1719235E-02  1.9772973E-02
   9.60000  1.8213629E-02  5.4041284E-02  2.0924997E-02
   9.80000  1.8381862E-02  5.5983890E-02  2.2103345E-02
   10.0000  1.8641995E-02  5.7360711E-02  2.3295215E-02
   10.2500  1.9095430E-02  5.8048553E-02  2.4780964E-02
   10.5000  1.9668771E-02  5.7463959E-02  2.6240419E-02
   10.7500  2.0333286E-02  5.5700720E-02  2.7660260E-02
   11.0000  2.1064900E-02  5.3040857E-02  2.9032587E-02
   11.2500  2.1846704E-02  4.9839591E-02  3.0346253E-02
   11.5000  2.2667939E-02  4.6423514E-02  3.1583000E-02
   11.7500  2.3516354E-02  4.3039971E-02  3.2722010E-02
   12.0000  2.4369342E-02  3.9848182E-02  3.3746568E-02
   12.2500  2.5196715E-02  3.6932661E-02  3.4647296E-02
   12.5000  2.5971418E-02  3.4324932E-02  3.5422431E-02
   12.7500  2.6678621E-02  3.2024235E-02  3.6077197E-02
   13.0000  2.7319005E-02  3.0012626E-02  3.6623469E-02
   13.2500  2.7905666E-02  2.8264501E-02  3.7078632E-02
   13.5000  2.8457854E-02  2.6752266E-02  3.7463097E-02
   13.7500  2.8996168E-02  2.5449537E-02  3.7797719E-02
   14.0000  2.9539959E-02  2.4332711E-02  3.8101809E-02
   14.2500  3.0105440E-02  2.3381366E-02  3.8391333E-02
   14.5000  3.0704492E-02  2.2578071E-02  3.8677568E-02
   14.7500  3.1344546E-02  2.1908025E-02  3.8966573E-02
   15.0000  3.2029234E-02  2.1358699E-02  3.9259247E-02
   15.2500  3.2759210E-02  2.0919484E-02  3.9551672E-02
   15.5000  3.3532738E-02  2.0581330E-02  3.9835608E-02
   15.7500  3.4345910E-02  2.0336394E-02  4.0099229E-02
   16.0000  3.5192518E-02  2.0177710E-02  4.0328196E-02
   16.2500  3.6063737E-02  2.0098902E-02  4.0507115E-02
   16.5000  3.6947850E-02  2.0093955E-02  4.0621273E-02
   16.7500  3.7830208E-02  2.0157053E-02  4.0658421E-02
   17.0000  3.8693584E-02  2.0282476E-02  4.0610303E-02
   17.2500  3.9519012E-02  2.0464557E-02  4.0473627E-02
   17.5000  4.0287053E-02  2.0697666E-02  4.0250323E-02
   17.7500  4.0979370E-02  2.0976238E-02  3.9947081E-02
   18.0000  4.1580380E-02  2.1294803E-02  3.9574326E-02
   18.2500  4.2078712E-02  2.1648037E-02  3.9144881E-02
   18.5000  4.2468219E-02  2.2030821E-02  3.8672590E-02
   18.7500  4.2748379E-02  2.2438314E-02  3.8171100E-02
   19.0000  4.2924017E-02  2.2866060E-02  3.7652919E-02
   19.2500  4.3004435E-02  2.3310118E-02  3.7128773E-02
   19.5000  4.3002117E-02  2.3767208E-02  3.6607250E-02
   19.7500  4.2931320E-02  2.4234792E-02  3.6094722E-02
   20.0000  4.2806912E-02  2.4710938E-02  3.5595633E-02
   21.0000  4.2055691E-02  2.6664492E-02  3.3789145E-02
   22.0000  4.1327101E-02  2.8628920E-02  3.2335938E-02
   23.0000  4.0633689E-02  3.0523100E-02  3.1189895E-02
   24.0000  3.9579825E-02  3.2169309E-02  3.0273335E-02
   25.0000  3.7875438E-02  3.3313725E-02  2.9530590E-02
   26.0000  3.5662721E-02  3.3769768E-02  2.8933788E-02
   27.0000  3.3359836E-02  3.3531963E-02  2.8471165E-02
   28.0000  3.1315354E-02  3.2770392E-02  2.8134921E-02
   29.0000  2.9664973E-02  3.1729728E-02  2.7910814E-02
   30.0000  2.8382897E-02  3.0610362E-02  2.7768578E-02
   31.0000  2.7389181E-02  2.9533424E-02  2.7673318E-02
   32.0000  2.6602530E-02  2.8552740E-02  2.7594437E-02
   33.0000  2.5950346E-02  2.7676215E-02  2.7506132E-02
   34.0000  2.5371201E-02  2.6887244E-02  2.7386717E-02
   35.0000  2.4818067E-02  2.6161195E-02  2.7218754E-02
   36.0000  2.4261848E-02  2.5476117E-02  2.6990587E-02
   37.0000  2.3693662E-02  2.4818879E-02  2.6699821E-02
   38.0000  2.3125869E-02  2.4190462E-02  2.6359199E-02
   39.0000  2.2593872E-02  2.3614657E-02  2.6004309E-02
   40.0000  2.2153015E-02  2.3142013E-02  2.5694684E-02
