    Energy   (100,001)      (010,001)      (001,110)   
  -25.0000  1.7523573E-04  1.8165545E-04  1.7867734E-04
  -24.0000  1.8130367E-04  1.8865773E-04  1.8471553E-04
  -23.0000  1.8776931E-04  1.9617068E-04  1.9114154E-04
  -22.0000  1.9467220E-04  2.0425061E-04  1.9799319E-04
  -21.0000  2.0205729E-04  2.1296228E-04  2.0531329E-04
  -20.0000  2.0997587E-04  2.2238057E-04  2.1315059E-04
  -19.0000  2.1848674E-04  2.3259245E-04  2.2156077E-04
  -18.0000  2.2765763E-04  2.4369951E-04  2.3060777E-04
  -17.0000  2.3756697E-04  2.5582119E-04  2.4036535E-04
  -16.0000  2.4830609E-04  2.6909877E-04  2.5091906E-04
  -15.0000  2.5998205E-04  2.8370055E-04  2.6236875E-04
  -14.0000  2.7272114E-04  2.9982860E-04  2.7483166E-04
  -13.0000  2.8667351E-04  3.1772756E-04  2.8844644E-04
  -12.0000  3.0201908E-04  3.3769630E-04  3.0337833E-04
  -11.0000  3.1897547E-04  3.6010372E-04  3.1982598E-04
  -10.0000  3.3780855E-04  3.8541024E-04  3.3803049E-04
  -9.00000  3.5884686E-04  4.1419780E-04  3.5828769E-04
  -8.00000  3.8250165E-04  4.4721231E-04  3.8096511E-04
  -7.00000  4.0929533E-04  4.8542525E-04  4.0652590E-04
  -6.00000  4.3990292E-04  5.3012510E-04  4.3556358E-04
  -5.00000  4.7521416E-04  5.8305732E-04  4.6885402E-04
  -4.00000  5.1642980E-04  6.4664562E-04  5.0743621E-04
  -3.00000  5.6521730E-04  7.2435672E-04  5.5274386E-04
  -2.00000  6.2397524E-04  8.2133158E-04  6.0683228E-04
  -1.00000  6.9631170E-04  9.4554793E-04  6.7280016E-04
   0.00000  7.8798239E-04  1.1101396E-03  7.5565246E-04
   1.00000  9.0894032E-04  1.3385511E-03  8.6431117E-04
   2.00000  1.0785486E-03  1.6778855E-03  1.0172270E-03
   3.00000  1.3422196E-03  2.2424681E-03  1.2627447E-03
   4.00000  1.8474380E-03  3.4187513E-03  1.7882932E-03
   5.00000  3.2452337E-03  6.9453631E-03  3.4707581E-03
   5.20000  3.6884001E-03  8.0410071E-03  3.8992096E-03
   5.40000  4.1392127E-03  9.0992347E-03  4.2059341E-03
   5.60000  4.5871271E-03  1.0081879E-02  4.3829488E-03
   5.80000  5.0363593E-03  1.1007284E-02  4.4705259E-03
   6.00000  5.4937571E-03  1.1913819E-02  4.5185881E-03
   6.20000  5.9647470E-03  1.2840679E-02  4.5690226E-03
   6.40000  6.4536002E-03  1.3821507E-02  4.6507212E-03
   6.60000  6.9636521E-03  1.4882966E-02  4.7795710E-03
   6.80000  7.4968198E-03  1.6045023E-02  4.9606511E-03
   7.00000  8.0533623E-03  1.7321524E-02  5.1912362E-03
   7.20000  8.6326250E-03  1.8721132E-02  5.4639897E-03
   7.40000  9.2346982E-03  2.0249258E-02  5.7702303E-03
   7.60000  9.8621208E-03  2.1910962E-02  6.1029694E-03
   7.80000  1.0520577E-02  2.3713971E-02  6.4590158E-03
   8.00000  1.1218054E-02  2.5670569E-02  6.8395541E-03
   8.20000  1.1962698E-02  2.7797407E-02  7.2492561E-03
   8.40000  1.2760030E-02  3.0113147E-02  7.6945529E-03
   8.60000  1.3610211E-02  3.2634375E-02  8.1817883E-03
   8.80000  1.4505889E-02  3.5370177E-02  8.7157432E-03
   9.00000  1.5431173E-02  3.8315418E-02  9.2987703E-03
   9.20000  1.6362192E-02  4.1442838E-02  9.9306109E-03
   9.40000  1.7269546E-02  4.4694577E-02  1.0608854E-02
   9.60000  1.8122502E-02  4.7974894E-02  1.1329940E-02
   9.80000  1.8894239E-02  5.1147024E-02  1.2090482E-02
   10.0000  1.9566623E-02  5.4037575E-02  1.2888438E-02
   10.2500  2.0258263E-02  5.6957199E-02  1.3938363E-02
   10.5000  2.0796711E-02  5.8771502E-02  1.5049534E-02
   10.7500  2.1214924E-02  5.9240818E-02  1.6226601E-02
   11.0000  2.1555856E-02  5.8328655E-02  1.7473345E-02
   11.2500  2.1861430E-02  5.6212772E-02  1.8790076E-02
   11.5000  2.2166398E-02  5.3220584E-02  2.0170710E-02
   11.7500  2.2496432E-02  4.9728269E-02  2.1601054E-02
   12.0000  2.2868192E-02  4.6072937E-02  2.3059481E-02
   12.2500  2.3290378E-02  4.2504913E-02  2.4520146E-02
   12.5000  2.3765474E-02  3.9180366E-02  2.5957699E-02
   12.7500  2.4292224E-02  3.6179043E-02  2.7349591E-02
   13.0000  2.4868503E-02  3.3528556E-02  2.8675801E-02
   13.2500  2.5493092E-02  3.1224322E-02  2.9920452E-02
   13.5000  2.6165048E-02  2.9243506E-02  3.1075019E-02
   13.7500  2.6882274E-02  2.7554502E-02  3.2140172E-02
   14.0000  2.7641540E-02  2.6123188E-02  3.3125399E-02
   14.2500  2.8439230E-02  2.4916687E-02  3.4047054E-02
   14.5000  2.9271456E-02  2.3905312E-02  3.4925637E-02
   14.7500  3.0133548E-02  2.3063296E-02  3.5782906E-02
   15.0000  3.1019370E-02  2.2368830E-02  3.6639195E-02
   15.2500  3.1920750E-02  2.1803735E-02  3.7511138E-02
   15.5000  3.2827155E-02  2.1352967E-02  3.8409876E-02
   15.7500  3.3725649E-02  2.1004091E-02  3.9339715E-02
   16.0000  3.4601139E-02  2.0746767E-02  4.0297263E-02
   16.2500  3.5436978E-02  2.0572305E-02  4.1271087E-02
   16.5000  3.6215901E-02  2.0473300E-02  4.2242056E-02
   16.7500  3.6921277E-02  2.0443338E-02  4.3184495E-02
   17.0000  3.7538542E-02  2.0476776E-02  4.4068234E-02
   17.2500  3.8056610E-02  2.0568565E-02  4.4861462E-02
   17.5000  3.8469017E-02  2.0714126E-02  4.5534060E-02
   17.7500  3.8774569E-02  2.0909252E-02  4.6060907E-02
   18.0000  3.8977377E-02  2.1150030E-02  4.6424554E-02
   18.2500  3.9086282E-02  2.1432785E-02  4.6616797E-02
   18.5000  3.9113816E-02  2.1754031E-02  4.6638917E-02
   18.7500  3.9074934E-02  2.2110444E-02  4.6500666E-02
   19.0000  3.8985716E-02  2.2498867E-02  4.6218331E-02
   19.2500  3.8862188E-02  2.2916337E-02  4.5812285E-02
   19.5000  3.8719377E-02  2.3360139E-02  4.5304503E-02
   19.7500  3.8570643E-02  2.3827789E-02  4.4716496E-02
   20.0000  3.8427411E-02  2.4316813E-02  4.4068184E-02
   21.0000  3.8081817E-02  2.6417396E-02  4.1216294E-02
   22.0000  3.8308830E-02  2.8566039E-02  3.8493274E-02
   23.0000  3.9018246E-02  3.0543279E-02  3.6158558E-02
   24.0000  3.9795033E-02  3.2154801E-02  3.4208414E-02
   25.0000  4.0103732E-02  3.3255985E-02  3.2573667E-02
   26.0000  3.9543555E-02  3.3784583E-02  3.1191709E-02
   27.0000  3.8056433E-02  3.3777336E-02  3.0035003E-02
   28.0000  3.5942137E-02  3.3351349E-02  2.9111617E-02
   29.0000  3.3655539E-02  3.2656178E-02  2.8435944E-02
   30.0000  3.1564894E-02  3.1825417E-02  2.7995586E-02
   31.0000  2.9849711E-02  3.0950889E-02  2.7745345E-02
   32.0000  2.8530975E-02  3.0085708E-02  2.7625095E-02
   33.0000  2.7544999E-02  2.9254781E-02  2.7578498E-02
   34.0000  2.6811838E-02  2.8451587E-02  2.7561161E-02
   35.0000  2.6267680E-02  2.7655382E-02  2.7540408E-02
   36.0000  2.5869419E-02  2.6849511E-02  2.7493003E-02
   37.0000  2.5588044E-02  2.6031138E-02  2.7405438E-02
   38.0000  2.5399262E-02  2.5219273E-02  2.7277286E-02
   39.0000  2.5276680E-02  2.4463179E-02  2.7125435E-02
   40.0000  2.5192861E-02  2.3841645E-02  2.6983729E-02
