    Energy   (100,001)      (010,001)      (001,110)   
  -25.0000  1.7633975E-04  1.7411183E-04  1.7876787E-04
  -24.0000  1.8288900E-04  1.8096230E-04  1.8564112E-04
  -23.0000  1.8989775E-04  1.8831829E-04  1.9301334E-04
  -22.0000  1.9741464E-04  1.9623598E-04  2.0093913E-04
  -21.0000  2.0549531E-04  2.0478001E-04  2.0948125E-04
  -20.0000  2.1420370E-04  2.1402519E-04  2.1871210E-04
  -19.0000  2.2361364E-04  2.2405846E-04  2.2871573E-04
  -18.0000  2.3381084E-04  2.3498149E-04  2.3959015E-04
  -17.0000  2.4489531E-04  2.4691387E-04  2.5145040E-04
  -16.0000  2.5698452E-04  2.5999721E-04  2.6443234E-04
  -15.0000  2.7021728E-04  2.7440034E-04  2.7869755E-04
  -14.0000  2.8475886E-04  2.9032612E-04  2.9443967E-04
  -13.0000  3.0080750E-04  3.0802037E-04  3.1189267E-04
  -12.0000  3.1860305E-04  3.2778369E-04  3.3134185E-04
  -11.0000  3.3843849E-04  3.4998736E-04  3.5313863E-04
  -10.0000  3.6067533E-04  3.7509522E-04  3.7772071E-04
  -9.00000  3.8576497E-04  4.0369390E-04  4.0564013E-04
  -8.00000  4.1427842E-04  4.3653577E-04  4.3760303E-04
  -7.00000  4.4694874E-04  4.7460113E-04  4.7452717E-04
  -6.00000  4.8473320E-04  5.1919033E-04  5.1762742E-04
  -5.00000  5.2890648E-04  5.7206424E-04  5.6854648E-04
  -4.00000  5.8120557E-04  6.3566560E-04  6.2956157E-04
  -3.00000  6.4406305E-04  7.1348109E-04  7.0392487E-04
  -2.00000  7.2100114E-04  8.1066233E-04  7.9645182E-04
  -1.00000  8.1733598E-04  9.3515378E-04  9.1460074E-04
   0.00000  9.4153167E-04  1.0998987E-03  1.0706098E-03
   1.00000  1.1080687E-03  1.3276012E-03  1.2861700E-03
   2.00000  1.3444027E-03  1.6625474E-03  1.6041486E-03
   3.00000  1.7116817E-03  2.2069036E-03  2.1246278E-03
   4.00000  2.3908346E-03  3.2781559E-03  3.1579670E-03
   5.00000  4.1155947E-03  6.2254537E-03  6.0368833E-03
   5.20000  4.6719565E-03  7.1822462E-03  7.0330673E-03
   5.40000  5.2747772E-03  8.1884656E-03  8.1474884E-03
   5.60000  5.9301489E-03  9.2299856E-03  9.3783796E-03
   5.80000  6.6629619E-03  1.0322669E-02  1.0741945E-02
   6.00000  7.5036198E-03  1.1490170E-02  1.2252974E-02
   6.20000  8.4791180E-03  1.2753200E-02  1.3910459E-02
   6.40000  9.6059251E-03  1.4127100E-02  1.5688736E-02
   6.60000  1.0881382E-02  1.5622006E-02  1.7533592E-02
   6.80000  1.2273876E-02  1.7243001E-02  1.9365055E-02
   7.00000  1.3716300E-02  1.8989586E-02  2.1088464E-02
   7.20000  1.5111475E-02  2.0855460E-02  2.2613595E-02
   7.40000  1.6357278E-02  2.2831494E-02  2.3878559E-02
   7.60000  1.7386880E-02  2.4914374E-02  2.4870587E-02
   7.80000  1.8201463E-02  2.7117948E-02  2.5632647E-02
   8.00000  1.8870820E-02  2.9477776E-02  2.6249545E-02
   8.20000  1.9501437E-02  3.2041058E-02  2.6820098E-02
   8.40000  2.0196637E-02  3.4844751E-02  2.7430556E-02
   8.60000  2.1031874E-02  3.7892470E-02  2.8139697E-02
   8.80000  2.2049359E-02  4.1139152E-02  2.8975636E-02
   9.00000  2.3263801E-02  4.4486669E-02  2.9939234E-02
   9.20000  2.4670616E-02  4.7789816E-02  3.1010105E-02
   9.40000  2.6251080E-02  5.0870487E-02  3.2153484E-02
   9.60000  2.7970946E-02  5.3537830E-02  3.3327084E-02
   9.80000  2.9775225E-02  5.5613580E-02  3.4487118E-02
   10.0000  3.1586666E-02  5.6959280E-02  3.5593114E-02
   10.2500  3.3716981E-02  5.7503814E-02  3.6849080E-02
   10.5000  3.5522800E-02  5.6800109E-02  3.7922800E-02
   10.7500  3.6862052E-02  5.5023757E-02  3.8791711E-02
   11.0000  3.7683203E-02  5.2463050E-02  3.9449342E-02
   11.2500  3.8031399E-02  4.9437300E-02  3.9899135E-02
   11.5000  3.8019484E-02  4.6227910E-02  4.0156653E-02
   11.7500  3.7783586E-02  4.3043576E-02  4.0246504E-02
   12.0000  3.7446540E-02  4.0017344E-02  4.0194096E-02
   12.2500  3.7100713E-02  3.7221220E-02  4.0023971E-02
   12.5000  3.6806076E-02  3.4685149E-02  3.9761967E-02
   12.7500  3.6595427E-02  3.2413448E-02  3.9435586E-02
   13.0000  3.6481595E-02  3.0396480E-02  3.9072412E-02
   13.2500  3.6463971E-02  2.8617833E-02  3.8697699E-02
   13.5000  3.6533459E-02  2.7058391E-02  3.8332259E-02
   13.7500  3.6675970E-02  2.5698559E-02  3.7991331E-02
   14.0000  3.6874678E-02  2.4519410E-02  3.7684324E-02
   14.2500  3.7111349E-02  2.3503258E-02  3.7415094E-02
   14.5000  3.7367017E-02  2.2633916E-02  3.7182506E-02
   14.7500  3.7622328E-02  2.1896807E-02  3.6981158E-02
   15.0000  3.7857819E-02  2.1278997E-02  3.6802249E-02
   15.2500  3.8054380E-02  2.0769164E-02  3.6634610E-02
   15.5000  3.8194002E-02  2.0357521E-02  3.6465893E-02
   15.7500  3.8260841E-02  2.0035690E-02  3.6283859E-02
   16.0000  3.8242497E-02  1.9796520E-02  3.6077645E-02
   16.2500  3.8131352E-02  1.9633887E-02  3.5838877E-02
   16.5000  3.7925684E-02  1.9542457E-02  3.5562478E-02
   16.7500  3.7630318E-02  1.9517470E-02  3.5247062E-02
   17.0000  3.7256564E-02  1.9554552E-02  3.4894864E-02
   17.2500  3.6821358E-02  1.9649575E-02  3.4511232E-02
   17.5000  3.6345679E-02  1.9798572E-02  3.4103776E-02
   17.7500  3.5852504E-02  1.9997700E-02  3.3681355E-02
   18.0000  3.5364645E-02  2.0243238E-02  3.3253065E-02
   18.2500  3.4902805E-02  2.0531602E-02  3.2827388E-02
   18.5000  3.4484088E-02  2.0859370E-02  3.2411584E-02
   18.7500  3.4121063E-02  2.1223308E-02  3.2011351E-02
   19.0000  3.3821386E-02  2.1620411E-02  3.1630716E-02
   19.2500  3.3587874E-02  2.2047955E-02  3.1272090E-02
   19.5000  3.3418911E-02  2.2503542E-02  3.0936429E-02
   19.7500  3.3309021E-02  2.2985080E-02  3.0623461E-02
   20.0000  3.3249410E-02  2.3490526E-02  3.0332004E-02
   21.0000  3.3255930E-02  2.5691187E-02  2.9346255E-02
   22.0000  3.3030604E-02  2.8011432E-02  2.8560709E-02
   23.0000  3.2116085E-02  3.0230984E-02  2.7876835E-02
   24.0000  3.0670231E-02  3.2115936E-02  2.7249352E-02
   25.0000  2.9153365E-02  3.3449037E-02  2.6679487E-02
   26.0000  2.7880822E-02  3.4109832E-02  2.6186104E-02
   27.0000  2.6896843E-02  3.4143548E-02  2.5780085E-02
   28.0000  2.6138682E-02  3.3700218E-02  2.5471154E-02
   29.0000  2.5560061E-02  3.2948924E-02  2.5266750E-02
   30.0000  2.5137214E-02  3.2029072E-02  2.5155558E-02
   31.0000  2.4845723E-02  3.1032751E-02  2.5101781E-02
   32.0000  2.4652506E-02  3.0007165E-02  2.5056440E-02
   33.0000  2.4519937E-02  2.8966773E-02  2.4973004E-02
   34.0000  2.4412779E-02  2.7908828E-02  2.4817366E-02
   35.0000  2.4303195E-02  2.6828895E-02  2.4573229E-02
   36.0000  2.4172174E-02  2.5733249E-02  2.4246035E-02
   37.0000  2.4009972E-02  2.4646433E-02  2.3864379E-02
   38.0000  2.3818508E-02  2.3613562E-02  2.3474821E-02
   39.0000  2.3615555E-02  2.2698811E-02  2.3128829E-02
   40.0000  2.3435198E-02  2.1975662E-02  2.2864157E-02
