    Energy   (100,001)      (010,001)      (001,110)   
  -25.0000  1.6971696E-04  1.8232761E-04  1.8480825E-04
  -24.0000  1.7572901E-04  1.8930169E-04  1.9125293E-04
  -23.0000  1.8213886E-04  1.9678158E-04  1.9812559E-04
  -22.0000  1.8898612E-04  2.0482280E-04  2.0546940E-04
  -21.0000  1.9631582E-04  2.1348920E-04  2.1333350E-04
  -20.0000  2.0417928E-04  2.2285450E-04  2.2177403E-04
  -19.0000  2.1263534E-04  2.3300434E-04  2.3085549E-04
  -18.0000  2.2175170E-04  2.4403866E-04  2.4065226E-04
  -17.0000  2.3160672E-04  2.5607488E-04  2.5125065E-04
  -16.0000  2.4229162E-04  2.6925178E-04  2.6275135E-04
  -15.0000  2.5391318E-04  2.8373456E-04  2.7527258E-04
  -14.0000  2.6659727E-04  2.9972138E-04  2.8895412E-04
  -13.0000  2.8049341E-04  3.1745189E-04  3.0396243E-04
  -12.0000  2.9578056E-04  3.3721856E-04  3.2049745E-04
  -11.0000  3.1267493E-04  3.5938194E-04  3.3880153E-04
  -10.0000  3.3144038E-04  3.8439140E-04  3.5917147E-04
  -9.00000  3.5240259E-04  4.1281402E-04  3.8197495E-04
  -8.00000  3.7596882E-04  4.4537536E-04  4.0767354E-04
  -7.00000  4.0265599E-04  4.8301843E-04  4.3685538E-04
  -6.00000  4.3313172E-04  5.2699098E-04  4.7028319E-04
  -5.00000  4.6827621E-04  5.7897842E-04  5.0896662E-04
  -4.00000  5.0927893E-04  6.4131326E-04  5.5427547E-04
  -3.00000  5.5779679E-04  7.1731802E-04  6.0812478E-04
  -2.00000  6.1622738E-04  8.1189505E-04  6.7329401E-04
  -1.00000  6.8821507E-04  9.3260365E-04  7.5401571E-04
   0.00000  7.7967671E-04  1.0917880E-03  8.5715966E-04
   1.00000  9.0114494E-04  1.3112488E-03  9.9490694E-04
   2.00000  1.0740936E-03  1.6341645E-03  1.1918416E-03
   3.00000  1.3527421E-03  2.1633214E-03  1.5087875E-03
   4.00000  1.9331033E-03  3.2375307E-03  2.1581799E-03
   5.00000  3.7358190E-03  6.3588675E-03  4.1233830E-03
   5.20000  4.2778049E-03  7.3363365E-03  4.7371394E-03
   5.40000  4.7716245E-03  8.3000158E-03  5.3302574E-03
   5.60000  5.1932646E-03  9.2189253E-03  5.8801581E-03
   5.80000  5.5510320E-03  1.0105576E-02  6.3922549E-03
   6.00000  5.8625609E-03  1.0986160E-02  6.8778726E-03
   6.20000  6.1446073E-03  1.1886917E-02  7.3444213E-03
   6.40000  6.4110542E-03  1.2831827E-02  7.7946451E-03
   6.60000  6.6729736E-03  1.3843365E-02  8.2291689E-03
   6.80000  6.9388857E-03  1.4943250E-02  8.6493922E-03
   7.00000  7.2150951E-03  1.6152808E-02  9.0592853E-03
   7.20000  7.5062528E-03  1.7493295E-02  9.4657172E-03
   7.40000  7.8161432E-03  1.8986466E-02  9.8777316E-03
   7.60000  8.1485048E-03  2.0655146E-02  1.0305346E-02
   7.80000  8.5076175E-03  2.2523142E-02  1.0758191E-02
   8.00000  8.8985135E-03  2.4613980E-02  1.1244120E-02
   8.20000  9.3268273E-03  2.6948133E-02  1.1768016E-02
   8.40000  9.7984097E-03  2.9538715E-02  1.2331190E-02
   8.60000  1.0318921E-02  3.2386587E-02  1.2931842E-02
   8.80000  1.0893557E-02  3.5476027E-02  1.3566728E-02
   9.00000  1.1526894E-02  3.8770555E-02  1.4233287E-02
   9.20000  1.2222760E-02  4.2206804E-02  1.4930807E-02
   9.40000  1.2983955E-02  4.5687324E-02  1.5660293E-02
   9.60000  1.3811777E-02  4.9077407E-02  1.6424039E-02
   9.80000  1.4705469E-02  5.2209698E-02  1.7225180E-02
   10.0000  1.5661687E-02  5.4898569E-02  1.8066944E-02
   10.2500  1.6934865E-02  5.7365450E-02  1.9179631E-02
   10.5000  1.8276133E-02  5.8600066E-02  2.0360042E-02
   10.7500  1.9658751E-02  5.8511950E-02  2.1605237E-02
   11.0000  2.1049375E-02  5.7206388E-02  2.2909955E-02
   11.2500  2.2409802E-02  5.4940133E-02  2.4266173E-02
   11.5000  2.3699793E-02  5.2035528E-02  2.5661547E-02
   11.7500  2.4882250E-02  4.8801949E-02  2.7078637E-02
   12.0000  2.5933025E-02  4.5490922E-02  2.8494742E-02
   12.2500  2.6849786E-02  4.2281473E-02  2.9883289E-02
   12.5000  2.7649846E-02  3.9284846E-02  3.1217401E-02
   12.7500  2.8360571E-02  3.6558847E-02  3.2473850E-02
   13.0000  2.9011266E-02  3.4124280E-02  3.3635426E-02
   13.2500  2.9628619E-02  3.1979056E-02  3.4692035E-02
   13.5000  3.0234554E-02  3.0108123E-02  3.5641832E-02
   13.7500  3.0845599E-02  2.8489813E-02  3.6491833E-02
   14.0000  3.1473110E-02  2.7099862E-02  3.7257023E-02
   14.2500  3.2123894E-02  2.5913888E-02  3.7958154E-02
   14.5000  3.2800884E-02  2.4908793E-02  3.8618836E-02
   14.7500  3.3503717E-02  2.4063458E-02  3.9262432E-02
   15.0000  3.4229125E-02  2.3358995E-02  3.9909147E-02
   15.2500  3.4971192E-02  2.2778749E-02  4.0573514E-02
   15.5000  3.5721536E-02  2.2308169E-02  4.1262411E-02
   15.7500  3.6469470E-02  2.1934600E-02  4.1973725E-02
   16.0000  3.7202264E-02  2.1647053E-02  4.2695794E-02
   16.2500  3.7905564E-02  2.1435966E-02  4.3407797E-02
   16.5000  3.8564050E-02  2.1292998E-02  4.4081254E-02
   16.7500  3.9162349E-02  2.1210833E-02  4.4682707E-02
   17.0000  3.9686163E-02  2.1183025E-02  4.5177414E-02
   17.2500  4.0123519E-02  2.1203871E-02  4.5533604E-02
   17.5000  4.0465976E-02  2.1268314E-02  4.5726589E-02
   17.7500  4.0709617E-02  2.1371872E-02  4.5741898E-02
   18.0000  4.0855639E-02  2.1510589E-02  4.5576837E-02
   18.2500  4.0910411E-02  2.1681003E-02  4.5240222E-02
   18.5000  4.0884967E-02  2.1880125E-02  4.4750505E-02
   18.7500  4.0793985E-02  2.2105425E-02  4.4132866E-02
   19.0000  4.0654412E-02  2.2354832E-02  4.3415919E-02
   19.2500  4.0483925E-02  2.2626732E-02  4.2628614E-02
   19.5000  4.0299445E-02  2.2919962E-02  4.1797710E-02
   19.7500  4.0115932E-02  2.3233749E-02  4.0946137E-02
   20.0000  3.9945702E-02  2.3567501E-02  4.0092548E-02
   21.0000  3.9557042E-02  2.5080912E-02  3.6927244E-02
   22.0000  3.9761163E-02  2.6808105E-02  3.4494089E-02
   23.0000  4.0370448E-02  2.8619195E-02  3.2814948E-02
   24.0000  4.0943830E-02  3.0331747E-02  3.1711361E-02
   25.0000  4.0916758E-02  3.1757317E-02  3.0973861E-02
   26.0000  3.9831458E-02  3.2763636E-02  3.0416918E-02
   27.0000  3.7665164E-02  3.3306279E-02  2.9914007E-02
   28.0000  3.4918654E-02  3.3425128E-02  2.9424084E-02
   29.0000  3.2262576E-02  3.3213364E-02  2.8978177E-02
   30.0000  3.0084339E-02  3.2765918E-02  2.8619405E-02
   31.0000  2.8461611E-02  3.2156241E-02  2.8370402E-02
   32.0000  2.7314273E-02  3.1433188E-02  2.8227210E-02
   33.0000  2.6513323E-02  3.0624717E-02  2.8164758E-02
   34.0000  2.5935768E-02  2.9746278E-02  2.8146897E-02
   35.0000  2.5483605E-02  2.8810515E-02  2.8133814E-02
   36.0000  2.5085539E-02  2.7835998E-02  2.8085988E-02
   37.0000  2.4694203E-02  2.6853222E-02  2.7968367E-02
   38.0000  2.4287016E-02  2.5907677E-02  2.7761089E-02
   39.0000  2.3875006E-02  2.5061430E-02  2.7480495E-02
   40.0000  2.3509657E-02  2.4387969E-02  2.7196812E-02
