    Energy   (100,001)      (010,001)      (001,110)   
  -25.0000  1.7052658E-04  1.9140132E-04  1.7701338E-04
  -24.0000  1.7669409E-04  1.9830006E-04  1.8326488E-04
  -23.0000  1.8327937E-04  2.0567983E-04  1.8993346E-04
  -22.0000  1.9032508E-04  2.1359202E-04  1.9706113E-04
  -21.0000  1.9787981E-04  2.2209552E-04  2.0469564E-04
  -20.0000  2.0599919E-04  2.3125818E-04  2.1289153E-04
  -19.0000  2.1474711E-04  2.4115853E-04  2.2171134E-04
  -18.0000  2.2419745E-04  2.5188799E-04  2.3122714E-04
  -17.0000  2.3443597E-04  2.6355359E-04  2.4152239E-04
  -16.0000  2.4556290E-04  2.7628142E-04  2.5269432E-04
  -15.0000  2.5769609E-04  2.9022107E-04  2.6485683E-04
  -14.0000  2.7097507E-04  3.0555133E-04  2.7814423E-04
  -13.0000  2.8556630E-04  3.2248760E-04  2.9271605E-04
  -12.0000  3.0167004E-04  3.4129172E-04  3.0876326E-04
  -11.0000  3.1952943E-04  3.6228516E-04  3.2651640E-04
  -10.0000  3.3944277E-04  3.8586683E-04  3.4625646E-04
  -9.00000  3.6178026E-04  4.1253784E-04  3.6832966E-04
  -8.00000  3.8700740E-04  4.4293626E-04  3.9316766E-04
  -7.00000  4.1571831E-04  4.7788722E-04  4.2131615E-04
  -6.00000  4.4868440E-04  5.1847665E-04  4.5347597E-04
  -5.00000  4.8692769E-04  5.6616324E-04  4.9056394E-04
  -4.00000  5.3183474E-04  6.2295394E-04  5.3380612E-04
  -3.00000  5.8534154E-04  6.9169024E-04  5.8488640E-04
  -2.00000  6.5024843E-04  7.7653866E-04  6.4619558E-04
  -1.00000  7.3079155E-04  8.8388384E-04  7.2127674E-04
   0.00000  8.3376630E-04  1.0240886E-03  8.1569183E-04
   1.00000  9.7098779E-04  1.2153536E-03  9.3891680E-04
   2.00000  1.1655621E-03  1.4935651E-03  1.1092400E-03
   3.00000  1.4719577E-03  1.9438971E-03  1.3700677E-03
   4.00000  2.0680331E-03  2.8466465E-03  1.8702168E-03
   5.00000  3.7414603E-03  5.4461326E-03  3.2656068E-03
   5.20000  4.2712632E-03  6.2634307E-03  3.6475116E-03
   5.40000  4.8057537E-03  7.0755276E-03  3.9772215E-03
   5.60000  5.3308894E-03  7.8583604E-03  4.2532710E-03
   5.80000  5.8534221E-03  8.6222508E-03  4.5014839E-03
   6.00000  6.3854697E-03  9.3867181E-03  4.7494471E-03
   6.20000  6.9361384E-03  1.0168668E-02  5.0169997E-03
   6.40000  7.5090090E-03  1.0980322E-02  5.3161443E-03
   6.60000  8.1031704E-03  1.1830574E-02  5.6532466E-03
   6.80000  8.7168942E-03  1.2727298E-02  6.0312389E-03
   7.00000  9.3521461E-03  1.3679729E-02  6.4514892E-03
   7.20000  1.0017367E-02  1.4700279E-02  6.9152784E-03
   7.40000  1.0727139E-02  1.5805245E-02  7.4247996E-03
   7.60000  1.1499403E-02  1.7014248E-02  7.9836940E-03
   7.80000  1.2351703E-02  1.8348544E-02  8.5972282E-03
   8.00000  1.3297286E-02  1.9828354E-02  9.2722064E-03
   8.20000  1.4341019E-02  2.1469322E-02  1.0016623E-02
   8.40000  1.5475009E-02  2.3278277E-02  1.0839019E-02
   8.60000  1.6674748E-02  2.5248970E-02  1.1747519E-02
   8.80000  1.7897979E-02  2.7359553E-02  1.2748584E-02
   9.00000  1.9089343E-02  2.9574347E-02  1.3845592E-02
   9.20000  2.0191985E-02  3.1850935E-02  1.5037601E-02
   9.40000  2.1162708E-02  3.4150172E-02  1.6318854E-02
   9.60000  2.1983470E-02  3.6444371E-02  1.7679473E-02
   9.80000  2.2662934E-02  3.8718481E-02  1.9106580E-02
   10.0000  2.3227852E-02  4.0961965E-02  2.0584120E-02
   10.2500  2.3820940E-02  4.3692065E-02  2.2470798E-02
   10.5000  2.4332120E-02  4.6261396E-02  2.4358417E-02
   10.7500  2.4782851E-02  4.8535329E-02  2.6199681E-02
   11.0000  2.5174407E-02  5.0343520E-02  2.7948780E-02
   11.2500  2.5503279E-02  5.1517108E-02  2.9562657E-02
   11.5000  2.5776365E-02  5.1931361E-02  3.1004324E-02
   11.7500  2.6018172E-02  5.1537533E-02  3.2247514E-02
   12.0000  2.6263512E-02  5.0377979E-02  3.3280756E-02
   12.2500  2.6544375E-02  4.8580832E-02  3.4109299E-02
   12.5000  2.6885303E-02  4.6329739E-02  3.4753620E-02
   12.7500  2.7303043E-02  4.3821014E-02  3.5244848E-02
   13.0000  2.7805503E-02  4.1228601E-02  3.5618843E-02
   13.2500  2.8392842E-02  3.8686462E-02  3.5911247E-02
   13.5000  2.9060088E-02  3.6285592E-02  3.6154907E-02
   13.7500  2.9798816E-02  3.4079251E-02  3.6379139E-02
   14.0000  3.0597839E-02  3.2091651E-02  3.6609447E-02
   14.2500  3.1443693E-02  3.0327022E-02  3.6867062E-02
   14.5000  3.2321235E-02  2.8777262E-02  3.7168369E-02
   14.7500  3.3214357E-02  2.7427585E-02  3.7524394E-02
   15.0000  3.4106762E-02  2.6260301E-02  3.7940462E-02
   15.2500  3.4982671E-02  2.5257147E-02  3.8416022E-02
   15.5000  3.5827390E-02  2.4400605E-02  3.8944686E-02
   15.7500  3.6627633E-02  2.3674561E-02  3.9514498E-02
   16.0000  3.7371622E-02  2.3064566E-02  4.0108517E-02
   16.2500  3.8049024E-02  2.2557874E-02  4.0705760E-02
   16.5000  3.8650836E-02  2.2143365E-02  4.1282562E-02
   16.7500  3.9169355E-02  2.1811424E-02  4.1814286E-02
   17.0000  3.9598280E-02  2.1553784E-02  4.2277285E-02
   17.2500  3.9932995E-02  2.1363371E-02  4.2650873E-02
   17.5000  4.0170947E-02  2.1234152E-02  4.2919052E-02
   17.7500  4.0312036E-02  2.1160976E-02  4.3071726E-02
   18.0000  4.0358894E-02  2.1139448E-02  4.3105233E-02
   18.2500  4.0316955E-02  2.1165795E-02  4.3022159E-02
   18.5000  4.0194280E-02  2.1236763E-02  4.2830520E-02
   18.7500  4.0001133E-02  2.1349529E-02  4.2542487E-02
   19.0000  3.9749351E-02  2.1501643E-02  4.2172887E-02
   19.2500  3.9451588E-02  2.1690980E-02  4.1737651E-02
   19.5000  3.9120514E-02  2.1915718E-02  4.1252412E-02
   19.7500  3.8768144E-02  2.2174259E-02  4.0731442E-02
   20.0000  3.8405551E-02  2.2465033E-02  4.0187219E-02
   21.0000  3.7051163E-02  2.3906109E-02  3.7980622E-02
   22.0000  3.6180874E-02  2.5665660E-02  3.6018164E-02
   23.0000  3.5929268E-02  2.7558466E-02  3.4382037E-02
   24.0000  3.6145119E-02  2.9389412E-02  3.2991782E-02
   25.0000  3.6473519E-02  3.0998797E-02  3.1742563E-02
   26.0000  3.6467378E-02  3.2284909E-02  3.0560278E-02
   27.0000  3.5773646E-02  3.3193408E-02  2.9426079E-02
   28.0000  3.4328956E-02  3.3705109E-02  2.8376358E-02
   29.0000  3.2413989E-02  3.3842853E-02  2.7478073E-02
   30.0000  3.0460964E-02  3.3674964E-02  2.6783367E-02
   31.0000  2.8756097E-02  3.3286170E-02  2.6287228E-02
   32.0000  2.7392507E-02  3.2756295E-02  2.5949988E-02
   33.0000  2.6349548E-02  3.2149412E-02  2.5727332E-02
   34.0000  2.5559789E-02  3.1509627E-02  2.5580324E-02
   35.0000  2.4948609E-02  3.0864260E-02  2.5476567E-02
   36.0000  2.4452224E-02  3.0230842E-02  2.5389635E-02
   37.0000  2.4024297E-02  2.9623883E-02  2.5299178E-02
   38.0000  2.3638315E-02  2.9059864E-02  2.5192729E-02
   39.0000  2.3290535E-02  2.8562692E-02  2.5071159E-02
   40.0000  2.3001436E-02  2.8167963E-02  2.4954465E-02
