    Energy   (100,001)      (010,001)      (001,110)   
  -25.0000  1.7138727E-04  1.8655381E-04  1.8248304E-04
  -24.0000  1.7750217E-04  1.9364040E-04  1.8903963E-04
  -23.0000  1.8402467E-04  2.0124040E-04  1.9604335E-04
  -22.0000  1.9099559E-04  2.0941031E-04  2.0354043E-04
  -21.0000  1.9846131E-04  2.1821507E-04  2.1158362E-04
  -20.0000  2.0647472E-04  2.2772974E-04  2.2023338E-04
  -19.0000  2.1509642E-04  2.3804155E-04  2.2955936E-04
  -18.0000  2.2439619E-04  2.4925235E-04  2.3964216E-04
  -17.0000  2.3445473E-04  2.6148188E-04  2.5057565E-04
  -16.0000  2.4536590E-04  2.7487178E-04  2.6246970E-04
  -15.0000  2.5723954E-04  2.8959076E-04  2.7545384E-04
  -14.0000  2.7020497E-04  3.0584136E-04  2.8968181E-04
  -13.0000  2.8441550E-04  3.2386876E-04  3.0533750E-04
  -12.0000  3.0005431E-04  3.4397249E-04  3.2264278E-04
  -11.0000  3.1734208E-04  3.6652216E-04  3.4186786E-04
  -10.0000  3.3654712E-04  3.9197903E-04  3.6334530E-04
  -9.00000  3.5799905E-04  4.2092592E-04  3.8748926E-04
  -8.00000  3.8210752E-04  4.5410962E-04  4.1482246E-04
  -7.00000  4.0938836E-04  4.9250227E-04  4.4601475E-04
  -6.00000  4.4050089E-04  5.3739241E-04  4.8193978E-04
  -5.00000  4.7630264E-04  5.9052395E-04  5.2376073E-04
  -4.00000  5.1793193E-04  6.5431555E-04  5.7306458E-04
  -3.00000  5.6693734E-04  7.3222073E-04  6.3208152E-04
  -2.00000  6.2548991E-04  8.2934869E-04  7.0406256E-04
  -1.00000  6.9675144E-04  9.5360109E-04  7.9397277E-04
   0.00000  7.8556398E-04  1.1179229E-03  9.0987494E-04
   1.00000  8.9987982E-04  1.3452532E-03  1.0660180E-03
   2.00000  1.0542038E-03  1.6811619E-03  1.2908963E-03
   3.00000  1.2800116E-03  2.2342350E-03  1.6537562E-03
   4.00000  1.6713491E-03  3.3604858E-03  2.3894435E-03
   5.00000  2.6211343E-03  6.6559648E-03  4.5858126E-03
   5.20000  2.9128318E-03  7.7316107E-03  5.3057323E-03
   5.40000  3.2110180E-03  8.8310620E-03  6.0327288E-03
   5.60000  3.5091314E-03  9.9083369E-03  6.7255621E-03
   5.80000  3.8104681E-03  1.0947564E-02  7.3626993E-03
   6.00000  4.1212406E-03  1.1944314E-02  7.9331723E-03
   6.20000  4.4473078E-03  1.2903390E-02  8.4378802E-03
   6.40000  4.7935869E-03  1.3843994E-02  8.8936130E-03
   6.60000  5.1643394E-03  1.4800519E-02  9.3313884E-03
   6.80000  5.5636030E-03  1.5816431E-02  9.7885598E-03
   7.00000  5.9955289E-03  1.6935629E-02  1.0299544E-02
   7.20000  6.4646016E-03  1.8196663E-02  1.0889966E-02
   7.40000  6.9758103E-03  1.9631640E-02  1.1575454E-02
   7.60000  7.5348301E-03  2.1268197E-02  1.2363297E-02
   7.80000  8.1481927E-03  2.3132063E-02  1.3254714E-02
   8.00000  8.8233653E-03  2.5248558E-02  1.4246426E-02
   8.20000  9.5686202E-03  2.7642201E-02  1.5331048E-02
   8.40000  1.0392594E-02  3.0334004E-02  1.6496267E-02
   8.60000  1.1303498E-02  3.3336065E-02  1.7722986E-02
   8.80000  1.2308059E-02  3.6643337E-02  1.8983148E-02
   9.00000  1.3410461E-02  4.0223171E-02  2.0238842E-02
   9.20000  1.4611646E-02  4.4004708E-02  2.1445069E-02
   9.40000  1.5909245E-02  4.7871386E-02  2.2557691E-02
   9.60000  1.7297957E-02  5.1659597E-02  2.3545199E-02
   9.80000  1.8769747E-02  5.5165027E-02  2.4399531E-02
   10.0000  2.0313208E-02  5.8157967E-02  2.5139503E-02
   10.2500  2.2317436E-02  6.0831761E-02  2.5963845E-02
   10.5000  2.4358361E-02  6.1991765E-02  2.6759909E-02
   10.7500  2.6367042E-02  6.1488795E-02  2.7603649E-02
   11.0000  2.8260747E-02  5.9449735E-02  2.8543008E-02
   11.2500  2.9956772E-02  5.6242682E-02  2.9592740E-02
   11.5000  3.1389643E-02  5.2352172E-02  3.0737076E-02
   11.7500  3.2525240E-02  4.8237776E-02  3.1937513E-02
   12.0000  3.3365503E-02  4.4243261E-02  3.3141216E-02
   12.2500  3.3943214E-02  4.0573479E-02  3.4288986E-02
   12.5000  3.4311929E-02  3.7317468E-02  3.5323797E-02
   12.7500  3.4535840E-02  3.4487962E-02  3.6199885E-02
   13.0000  3.4680961E-02  3.2057277E-02  3.6890047E-02
   13.2500  3.4806765E-02  2.9981523E-02  3.7389153E-02
   13.5000  3.4958950E-02  2.8213563E-02  3.7714059E-02
   13.7500  3.5165892E-02  2.6708985E-02  3.7899318E-02
   14.0000  3.5439615E-02  2.5428802E-02  3.7989199E-02
   14.2500  3.5779084E-02  2.4340336E-02  3.8029156E-02
   14.5000  3.6173714E-02  2.3416899E-02  3.8059306E-02
   14.7500  3.6606461E-02  2.2636884E-02  3.8110562E-02
   15.0000  3.7056448E-02  2.1982742E-02  3.8203008E-02
   15.2500  3.7501210E-02  2.1440060E-02  3.8345844E-02
   15.5000  3.7918561E-02  2.0996807E-02  3.8538276E-02
   15.7500  3.8288110E-02  2.0642767E-02  3.8770946E-02
   16.0000  3.8592430E-02  2.0369125E-02  3.9027738E-02
   16.2500  3.8817914E-02  2.0168192E-02  3.9287871E-02
   16.5000  3.8955365E-02  2.0033219E-02  3.9528280E-02
   16.7500  3.9000333E-02  1.9958287E-02  3.9726156E-02
   17.0000  3.8953227E-02  1.9938220E-02  3.9861422E-02
   17.2500  3.8819136E-02  1.9968527E-02  3.9918820E-02
   17.5000  3.8607348E-02  2.0045329E-02  3.9889299E-02
   17.7500  3.8330544E-02  2.0165294E-02  3.9770498E-02
   18.0000  3.8003758E-02  2.0325557E-02  3.9566332E-02
   18.2500  3.7643206E-02  2.0523646E-02  3.9285863E-02
   18.5000  3.7265167E-02  2.0757413E-02  3.8941761E-02
   18.7500  3.6885038E-02  2.1024976E-02  3.8548665E-02
   19.0000  3.6516621E-02  2.1324690E-02  3.8121679E-02
   19.2500  3.6171685E-02  2.1655135E-02  3.7675146E-02
   19.5000  3.5859723E-02  2.2015125E-02  3.7221723E-02
   19.7500  3.5587932E-02  2.2403658E-02  3.6771847E-02
   20.0000  3.5361408E-02  2.2819703E-02  3.6333665E-02
   21.0000  3.4962891E-02  2.4720845E-02  3.4806299E-02
   22.0000  3.5391266E-02  2.6884257E-02  3.3735235E-02
   23.0000  3.6455167E-02  2.9130482E-02  3.3014589E-02
   24.0000  3.7710008E-02  3.1223333E-02  3.2435273E-02
   25.0000  3.8491563E-02  3.2897992E-02  3.1818656E-02
   26.0000  3.8172795E-02  3.3955950E-02  3.1073601E-02
   27.0000  3.6643097E-02  3.4355215E-02  3.0219538E-02
   28.0000  3.4445680E-02  3.4210138E-02  2.9366450E-02
   29.0000  3.2249262E-02  3.3703316E-02  2.8628966E-02
   30.0000  3.0433719E-02  3.3000580E-02  2.8078894E-02
   31.0000  2.9072096E-02  3.2216527E-02  2.7731166E-02
   32.0000  2.8077237E-02  3.1413411E-02  2.7550374E-02
   33.0000  2.7323729E-02  3.0613511E-02  2.7473081E-02
   34.0000  2.6704304E-02  2.9815662E-02  2.7429249E-02
   35.0000  2.6144870E-02  2.9011566E-02  2.7355996E-02
   36.0000  2.5603248E-02  2.8198326E-02  2.7205630E-02
   37.0000  2.5064939E-02  2.7385759E-02  2.6952548E-02
   38.0000  2.4539536E-02  2.6599926E-02  2.6601872E-02
   39.0000  2.4057759E-02  2.5886785E-02  2.6199161E-02
   40.0000  2.3664488E-02  2.5311256E-02  2.5829983E-02
