    Energy   (100,001)      (010,001)      (001,110)   
  -25.0000  1.6948077E-04  1.8005210E-04  1.7553429E-04
  -24.0000  1.7587026E-04  1.8688455E-04  1.8219606E-04
  -23.0000  1.8271014E-04  1.9420900E-04  1.8933337E-04
  -22.0000  1.9004804E-04  2.0207911E-04  1.9699724E-04
  -21.0000  1.9793844E-04  2.1055656E-04  2.0524616E-04
  -20.0000  2.0644390E-04  2.1971252E-04  2.1414740E-04
  -19.0000  2.1563660E-04  2.2962957E-04  2.2377877E-04
  -18.0000  2.2560031E-04  2.4040405E-04  2.3423072E-04
  -17.0000  2.3643269E-04  2.5214901E-04  2.4560899E-04
  -16.0000  2.4824836E-04  2.6499795E-04  2.5803793E-04
  -15.0000  2.6118266E-04  2.7910964E-04  2.7166475E-04
  -14.0000  2.7539654E-04  2.9467433E-04  2.8666497E-04
  -13.0000  2.9108289E-04  3.1192181E-04  3.0324946E-04
  -12.0000  3.0847478E-04  3.3113220E-04  3.2167380E-04
  -11.0000  3.2785652E-04  3.5265033E-04  3.4225056E-04
  -10.0000  3.4957840E-04  3.7690536E-04  3.6536607E-04
  -9.00000  3.7407708E-04  4.0443797E-04  3.9150331E-04
  -8.00000  4.0190385E-04  4.3593866E-04  4.2127390E-04
  -7.00000  4.3376494E-04  4.7230296E-04  4.5546371E-04
  -6.00000  4.7058029E-04  5.1471298E-04  4.9509933E-04
  -5.00000  5.1357147E-04  5.6476099E-04  5.4154759E-04
  -4.00000  5.6439766E-04  6.2464331E-04  5.9666905E-04
  -3.00000  6.2537384E-04  6.9747598E-04  6.6306348E-04
  -2.00000  6.9983732E-04  7.8783412E-04  7.4448002E-04
  -1.00000  7.9279976E-04  9.0272867E-04  8.4653944E-04
   0.00000  9.1219418E-04  1.0535159E-03  9.7809584E-04
   1.00000  1.0715051E-03  1.2600329E-03  1.1540435E-03
   2.00000  1.2961354E-03  1.5609660E-03  1.4018783E-03
   3.00000  1.6424172E-03  2.0463325E-03  1.7802662E-03
   4.00000  2.2775670E-03  3.0030442E-03  2.4512920E-03
   5.00000  3.8883441E-03  5.6788370E-03  4.0364201E-03
   5.20000  4.4056102E-03  6.5322664E-03  4.5506470E-03
   5.40000  4.9578446E-03  7.4029353E-03  5.1224129E-03
   5.60000  5.5411196E-03  8.2687952E-03  5.7557837E-03
   5.80000  6.1668332E-03  9.1382649E-03  6.4667979E-03
   6.00000  6.8515576E-03  1.0027754E-02  7.2764305E-03
   6.20000  7.6119263E-03  1.0950977E-02  8.2066347E-03
   6.40000  8.4627084E-03  1.1917107E-02  9.2780703E-03
   6.60000  9.4150232E-03  1.2932413E-02  1.0507071E-02
   6.80000  1.0473435E-02  1.4003680E-02  1.1900616E-02
   7.00000  1.1631803E-02  1.5142589E-02  1.3449386E-02
   7.20000  1.2869041E-02  1.6369342E-02  1.5121218E-02
   7.40000  1.4148106E-02  1.7713459E-02  1.6860388E-02
   7.60000  1.5422829E-02  1.9210925E-02  1.8599583E-02
   7.80000  1.6653664E-02  2.0898785E-02  2.0285649E-02
   8.00000  1.7824981E-02  2.2809617E-02  2.1906659E-02
   8.20000  1.8951778E-02  2.4968048E-02  2.3499604E-02
   8.40000  2.0071223E-02  2.7389740E-02  2.5130056E-02
   8.60000  2.1227118E-02  3.0081747E-02  2.6857459E-02
   8.80000  2.2458311E-02  3.3042368E-02  2.8707265E-02
   9.00000  2.3794446E-02  3.6258274E-02  3.0660586E-02
   9.20000  2.5255419E-02  3.9697101E-02  3.2659475E-02
   9.40000  2.6850047E-02  4.3295520E-02  3.4621179E-02
   9.60000  2.8570766E-02  4.6946100E-02  3.6455516E-02
   9.80000  3.0383272E-02  5.0489496E-02  3.8081259E-02
   10.0000  3.2218214E-02  5.3719022E-02  3.9438454E-02
   10.2500  3.4389656E-02  5.6960206E-02  4.0710658E-02
   10.5000  3.6223559E-02  5.8932414E-02  4.1511913E-02
   10.7500  3.7549178E-02  5.9390215E-02  4.1893211E-02
   11.0000  3.8296757E-02  5.8349832E-02  4.1935187E-02
   11.2500  3.8506760E-02  5.6074921E-02  4.1724264E-02
   11.5000  3.8293115E-02  5.2965793E-02  4.1335327E-02
   11.7500  3.7792352E-02  4.9425899E-02  4.0822994E-02
   12.0000  3.7128487E-02  4.5779811E-02  4.0223071E-02
   12.2500  3.6399155E-02  4.2252061E-02  3.9560761E-02
   12.5000  3.5676164E-02  3.8976953E-02  3.8860427E-02
   12.7500  3.5011567E-02  3.6019365E-02  3.8151026E-02
   13.0000  3.4442969E-02  3.3397582E-02  3.7464543E-02
   13.2500  3.3996471E-02  3.1102443E-02  3.6830859E-02
   13.5000  3.3688196E-02  2.9110689E-02  3.6273973E-02
   13.7500  3.3525297E-02  2.7393215E-02  3.5810557E-02
   14.0000  3.3506802E-02  2.5919790E-02  3.5449741E-02
   14.2500  3.3624452E-02  2.4661557E-02  3.5193516E-02
   14.5000  3.3863616E-02  2.3592221E-02  3.5037490E-02
   14.7500  3.4204260E-02  2.2688490E-02  3.4971834E-02
   15.0000  3.4622007E-02  2.1930124E-02  3.4982353E-02
   15.2500  3.5089321E-02  2.1299771E-02  3.5051653E-02
   15.5000  3.5576884E-02  2.0782698E-02  3.5160412E-02
   15.7500  3.6055231E-02  2.0366475E-02  3.5288710E-02
   16.0000  3.6496633E-02  2.0040654E-02  3.5417375E-02
   16.2500  3.6877153E-02  1.9796466E-02  3.5529213E-02
   16.5000  3.7178653E-02  1.9626531E-02  3.5610042E-02
   16.7500  3.7390437E-02  1.9524615E-02  3.5649420E-02
   17.0000  3.7510186E-02  1.9485410E-02  3.5640981E-02
   17.2500  3.7543878E-02  1.9504359E-02  3.5582394E-02
   17.5000  3.7504635E-02  1.9577513E-02  3.5474937E-02
   17.7500  3.7410658E-02  1.9701406E-02  3.5322808E-02
   18.0000  3.7282640E-02  1.9872957E-02  3.5132272E-02
   18.2500  3.7141136E-02  2.0089385E-02  3.4910794E-02
   18.5000  3.7004325E-02  2.0348140E-02  3.4666225E-02
   18.7500  3.6886440E-02  2.0646847E-02  3.4406145E-02
   19.0000  3.6796962E-02  2.0983278E-02  3.4137359E-02
   19.2500  3.6740491E-02  2.1355353E-02  3.3865554E-02
   19.5000  3.6717134E-02  2.1761151E-02  3.3595097E-02
   19.7500  3.6723153E-02  2.2198873E-02  3.3328976E-02
   20.0000  3.6751601E-02  2.2666593E-02  3.3068922E-02
   21.0000  3.6871261E-02  2.4776187E-02  3.2096621E-02
   22.0000  3.6448686E-02  2.7093466E-02  3.1190550E-02
   23.0000  3.5053657E-02  2.9389398E-02  3.0245920E-02
   24.0000  3.2860621E-02  3.1418083E-02  2.9208270E-02
   25.0000  3.0464465E-02  3.2951411E-02  2.8130353E-02
   26.0000  2.8353596E-02  3.3901538E-02  2.7118190E-02
   27.0000  2.6689916E-02  3.4297939E-02  2.6253738E-02
   28.0000  2.5420742E-02  3.4236771E-02  2.5560017E-02
   29.0000  2.4451193E-02  3.3843387E-02  2.5023524E-02
   30.0000  2.3716641E-02  3.3237950E-02  2.4620329E-02
   31.0000  2.3174405E-02  3.2513041E-02  2.4319493E-02
   32.0000  2.2784542E-02  3.1724384E-02  2.4083214E-02
   33.0000  2.2504886E-02  3.0894701E-02  2.3874428E-02
   34.0000  2.2294849E-02  3.0025531E-02  2.3665454E-02
   35.0000  2.2120862E-02  2.9110893E-02  2.3442977E-02
   36.0000  2.1960315E-02  2.8149488E-02  2.3208456E-02
   37.0000  2.1803006E-02  2.7154747E-02  2.2973842E-02
   38.0000  2.1649838E-02  2.6163573E-02  2.2755143E-02
   39.0000  2.1509399E-02  2.5244568E-02  2.2567922E-02
   40.0000  2.1393560E-02  2.4494909E-02  2.2423880E-02
