    Energy   (100,001)      (010,001)      (001,110)   
  -25.0000  1.7162806E-04  1.7228974E-04  1.7140994E-04
  -24.0000  1.7794516E-04  1.7917190E-04  1.7787640E-04
  -23.0000  1.8469762E-04  1.8656685E-04  1.8479867E-04
  -22.0000  1.9193055E-04  1.9453193E-04  1.9222501E-04
  -21.0000  1.9969539E-04  2.0313318E-04  2.0021058E-04
  -20.0000  2.0805107E-04  2.1244703E-04  2.0881876E-04
  -19.0000  2.1706543E-04  2.2256239E-04  2.1812270E-04
  -18.0000  2.2681691E-04  2.3358329E-04  2.2820731E-04
  -17.0000  2.3739675E-04  2.4563217E-04  2.3917161E-04
  -16.0000  2.4891163E-04  2.5885407E-04  2.5113188E-04
  -15.0000  2.6148713E-04  2.7342208E-04  2.6422548E-04
  -14.0000  2.7527201E-04  2.8954428E-04  2.7861584E-04
  -13.0000  2.9044386E-04  3.0747294E-04  2.9449897E-04
  -12.0000  3.0721638E-04  3.2751677E-04  3.1211191E-04
  -11.0000  3.2584905E-04  3.5005734E-04  3.3174405E-04
  -10.0000  3.4666005E-04  3.7557158E-04  3.5375243E-04
  -9.00000  3.7004391E-04  4.0466308E-04  3.7858270E-04
  -8.00000  3.9649595E-04  4.3810645E-04  4.0679854E-04
  -7.00000  4.2664684E-04  4.7691149E-04  4.3912365E-04
  -6.00000  4.6131273E-04  5.2241841E-04  4.7650337E-04
  -5.00000  5.0156976E-04  5.7644286E-04  5.2019753E-04
  -4.00000  5.4886861E-04  6.4150437E-04  5.7192524E-04
  -3.00000  6.0521735E-04  7.2119989E-04  6.3409994E-04
  -2.00000  6.7348723E-04  8.2084350E-04  7.1022975E-04
  -1.00000  7.5795507E-04  9.4862661E-04  8.0564277E-04
   0.00000  8.6534115E-04  1.1178818E-03  9.2890780E-04
   1.00000  1.0070089E-03  1.3519557E-03  1.0949253E-03
   2.00000  1.2043555E-03  1.6962670E-03  1.3327215E-03
   3.00000  1.5052791E-03  2.2552422E-03  1.7099893E-03
   4.00000  2.0558835E-03  3.3527265E-03  2.4431389E-03
   5.00000  3.4715712E-03  6.3556416E-03  4.4709782E-03
   5.20000  3.9196052E-03  7.3139664E-03  5.1158435E-03
   5.40000  4.3871157E-03  8.3056699E-03  5.7775565E-03
   5.60000  4.8681653E-03  9.3151509E-03  6.4465553E-03
   5.80000  5.3714830E-03  1.0361809E-02  7.1387498E-03
   6.00000  5.9098047E-03  1.1477007E-02  7.8776274E-03
   6.20000  6.4945837E-03  1.2693532E-02  8.6849780E-03
   6.40000  7.1340418E-03  1.4043539E-02  9.5766467E-03
   6.60000  7.8316501E-03  1.5558337E-02  1.0558025E-02
   6.80000  8.5842926E-03  1.7267299E-02  1.1617985E-02
   7.00000  9.3807883E-03  1.9195031E-02  1.2723784E-02
   7.20000  1.0202347E-02  2.1356902E-02  1.3822300E-02
   7.40000  1.1026545E-02  2.3754541E-02  1.4852393E-02
   7.60000  1.1834781E-02  2.6374306E-02  1.5766938E-02
   7.80000  1.2620284E-02  2.9191500E-02  1.6554263E-02
   8.00000  1.3392244E-02  3.2179511E-02  1.7246143E-02
   8.20000  1.4173620E-02  3.5317684E-02  1.7907751E-02
   8.40000  1.4994488E-02  3.8589756E-02  1.8616538E-02
   8.60000  1.5885093E-02  4.1970110E-02  1.9441088E-02
   8.80000  1.6871733E-02  4.5403947E-02  2.0427045E-02
   9.00000  1.7975856E-02  4.8792144E-02  2.1591675E-02
   9.20000  1.9214561E-02  5.1988441E-02  2.2925176E-02
   9.40000  2.0599918E-02  5.4810175E-02  2.4395799E-02
   9.60000  2.2136586E-02  5.7062415E-02  2.5957370E-02
   9.80000  2.3818915E-02  5.8573780E-02  2.7558522E-02
   10.0000  2.5627238E-02  5.9233964E-02  2.9150413E-02
   10.2500  2.8003786E-02  5.8834229E-02  3.1062270E-02
   10.5000  3.0389921E-02  5.7218837E-02  3.2820125E-02
   10.7500  3.2613800E-02  5.4687384E-02  3.4360248E-02
   11.0000  3.4491723E-02  5.1592393E-02  3.5631616E-02
   11.2500  3.5883362E-02  4.8251244E-02  3.6605628E-02
   11.5000  3.6741145E-02  4.4903788E-02  3.7280058E-02
   11.7500  3.7122214E-02  4.1705818E-02  3.7679709E-02
   12.0000  3.7158308E-02  3.8742370E-02  3.7855253E-02
   12.2500  3.7006612E-02  3.6049607E-02  3.7874710E-02
   12.5000  3.6808005E-02  3.3634097E-02  3.7810248E-02
   12.7500  3.6665929E-02  3.1486143E-02  3.7726163E-02
   13.0000  3.6643785E-02  2.9588519E-02  3.7671259E-02
   13.2500  3.6771870E-02  2.7921301E-02  3.7676877E-02
   13.5000  3.7056135E-02  2.6464164E-02  3.7758690E-02
   13.7500  3.7485159E-02  2.5197550E-02  3.7919756E-02
   14.0000  3.8034872E-02  2.4103292E-02  3.8153657E-02
   14.2500  3.8671866E-02  2.3164885E-02  3.8447148E-02
   14.5000  3.9356109E-02  2.2367576E-02  3.8782139E-02
   14.7500  4.0043622E-02  2.1698339E-02  3.9137129E-02
   15.0000  4.0689297E-02  2.1145805E-02  3.9488451E-02
   15.2500  4.1249874E-02  2.0700119E-02  3.9811634E-02
   15.5000  4.1686924E-02  2.0352753E-02  4.0083036E-02
   15.7500  4.1969605E-02  2.0096259E-02  4.0281649E-02
   16.0000  4.2076894E-02  1.9924021E-02  4.0390831E-02
   16.2500  4.1998976E-02  1.9830023E-02  4.0399648E-02
   16.5000  4.1737569E-02  1.9808657E-02  4.0303566E-02
   16.7500  4.1305113E-02  1.9854597E-02  4.0104383E-02
   17.0000  4.0722964E-02  1.9962728E-02  3.9809469E-02
   17.2500  4.0018910E-02  2.0128115E-02  3.9430515E-02
   17.5000  3.9224398E-02  2.0346008E-02  3.8982046E-02
   17.7500  3.8371881E-02  2.0611854E-02  3.8479943E-02
   18.0000  3.7492562E-02  2.0921311E-02  3.7940169E-02
   18.2500  3.6614715E-02  2.1270250E-02  3.7377772E-02
   18.5000  3.5762598E-02  2.1654757E-02  3.6806207E-02
   18.7500  3.4955912E-02  2.2071128E-02  3.6236931E-02
   19.0000  3.4209675E-02  2.2515889E-02  3.5679207E-02
   19.2500  3.3534377E-02  2.2985835E-02  3.5140055E-02
   19.5000  3.2936308E-02  2.3478083E-02  3.4624303E-02
   19.7500  3.2417990E-02  2.3990061E-02  3.4134752E-02
   20.0000  3.1978760E-02  2.4519263E-02  3.3672533E-02
   21.0000  3.0932571E-02  2.6738775E-02  3.2093085E-02
   22.0000  3.0730464E-02  2.8942484E-02  3.0890877E-02
   23.0000  3.0918989E-02  3.0924114E-02  2.9956280E-02
   24.0000  3.1126100E-02  3.2489577E-02  2.9203830E-02
   25.0000  3.1146718E-02  3.3467629E-02  2.8583686E-02
   26.0000  3.0917777E-02  3.3784365E-02  2.8063544E-02
   27.0000  3.0474414E-02  3.3487302E-02  2.7625961E-02
   28.0000  2.9898364E-02  3.2730689E-02  2.7265148E-02
   29.0000  2.9276852E-02  3.1713604E-02  2.6976083E-02
   30.0000  2.8670875E-02  3.0604285E-02  2.6742496E-02
   31.0000  2.8100267E-02  2.9502184E-02  2.6534480E-02
   32.0000  2.7552946E-02  2.8441690E-02  2.6316314E-02
   33.0000  2.7004201E-02  2.7416411E-02  2.6054940E-02
   34.0000  2.6432097E-02  2.6405081E-02  2.5723207E-02
   35.0000  2.5826234E-02  2.5391257E-02  2.5300964E-02
   36.0000  2.5192224E-02  2.4374819E-02  2.4779410E-02
   37.0000  2.4552478E-02  2.3375364E-02  2.4169082E-02
   38.0000  2.3942751E-02  2.2431152E-02  2.3507985E-02
   39.0000  2.3406109E-02  2.1597412E-02  2.2865520E-02
   40.0000  2.2984729E-02  2.0938366E-02  2.2331469E-02
