    Energy   (100,001)      (010,001)      (001,110)   
  -25.0000  1.6394852E-04  1.8773713E-04  1.7601983E-04
  -24.0000  1.7000717E-04  1.9464791E-04  1.8254694E-04
  -23.0000  1.7647822E-04  2.0204806E-04  1.8952923E-04
  -22.0000  1.8340346E-04  2.0999047E-04  1.9701458E-04
  -21.0000  1.9083039E-04  2.1853582E-04  2.0505773E-04
  -20.0000  1.9881325E-04  2.2775411E-04  2.1372152E-04
  -19.0000  2.0741422E-04  2.3772648E-04  2.2307850E-04
  -18.0000  2.1670492E-04  2.4854748E-04  2.3321283E-04
  -17.0000  2.2676825E-04  2.6032797E-04  2.4422270E-04
  -16.0000  2.3770071E-04  2.7319873E-04  2.5622338E-04
  -15.0000  2.4961526E-04  2.8731510E-04  2.6935108E-04
  -14.0000  2.6264497E-04  3.0286300E-04  2.8376796E-04
  -13.0000  2.7694774E-04  3.2006674E-04  2.9966860E-04
  -12.0000  2.9271225E-04  3.3919938E-04  3.1728856E-04
  -11.0000  3.1016597E-04  3.6059655E-04  3.3691586E-04
  -10.0000  3.2958560E-04  3.8467532E-04  3.5890650E-04
  -9.00000  3.5131124E-04  4.1196019E-04  3.8370605E-04
  -8.00000  3.7576582E-04  4.4311971E-04  4.1188007E-04
  -7.00000  4.0348220E-04  4.7901911E-04  4.4415819E-04
  -6.00000  4.3514209E-04  5.2079764E-04  4.8149963E-04
  -5.00000  4.7163305E-04  5.6998567E-04  5.2519388E-04
  -4.00000  5.1413507E-04  6.2868733E-04  5.7702138E-04
  -3.00000  5.6425690E-04  6.9987694E-04  6.3952223E-04
  -2.00000  6.2426128E-04  7.8790270E-04  7.1647199E-04
  -1.00000  6.9745997E-04  8.9939433E-04  8.1378681E-04
   0.00000  7.8896400E-04  1.0450272E-03  9.4141228E-04
   1.00000  9.0727118E-04  1.2433233E-03  1.1177799E-03
   2.00000  1.0681912E-03  1.5301442E-03  1.3822646E-03
   3.00000  1.3071418E-03  1.9884396E-03  1.8397553E-03
   4.00000  1.7351423E-03  2.8826581E-03  2.8919378E-03
   5.00000  2.8321047E-03  5.3562343E-03  6.4777484E-03
   5.20000  3.1673397E-03  6.1231577E-03  7.5312166E-03
   5.40000  3.5016168E-03  6.8842949E-03  8.4300639E-03
   5.60000  3.8260276E-03  7.6186814E-03  9.1240602E-03
   5.80000  4.1435863E-03  8.3379246E-03  9.6462368E-03
   6.00000  4.4588259E-03  9.0637664E-03  1.0045786E-02
   6.20000  4.7746962E-03  9.8190974E-03  1.0354772E-02
   6.40000  5.0947806E-03  1.0627387E-02  1.0587487E-02
   6.60000  5.4258841E-03  1.1512964E-02  1.0752471E-02
   6.80000  5.7783960E-03  1.2500300E-02  1.0863396E-02
   7.00000  6.1647059E-03  1.3613223E-02  1.0943733E-02
   7.20000  6.5970152E-03  1.4874716E-02  1.1025124E-02
   7.40000  7.0854938E-03  1.6307059E-02  1.1141753E-02
   7.60000  7.6371243E-03  1.7931672E-02  1.1324434E-02
   7.80000  8.2552295E-03  1.9768080E-02  1.1597543E-02
   8.00000  8.9396544E-03  2.1831623E-02  1.1979301E-02
   8.20000  9.6877277E-03  2.4129892E-02  1.2483912E-02
   8.40000  1.0496042E-02  2.6658529E-02  1.3123670E-02
   8.60000  1.1362600E-02  2.9398087E-02  1.3909998E-02
   8.80000  1.2288419E-02  3.2314413E-02  1.4853349E-02
   9.00000  1.3277864E-02  3.5364268E-02  1.5962417E-02
   9.20000  1.4337734E-02  3.8504637E-02  1.7242961E-02
   9.40000  1.5475687E-02  4.1699955E-02  1.8696260E-02
   9.60000  1.6698498E-02  4.4919680E-02  2.0317340E-02
   9.80000  1.8010354E-02  4.8123073E-02  2.2093560E-02
   10.0000  1.9410959E-02  5.1236552E-02  2.4004167E-02
   10.2500  2.1275356E-02  5.4803125E-02  2.6537041E-02
   10.5000  2.3235948E-02  5.7652643E-02  2.9162208E-02
   10.7500  2.5241509E-02  5.9346885E-02  3.1791700E-02
   11.0000  2.7224181E-02  5.9559268E-02  3.4328499E-02
   11.2500  2.9106998E-02  5.8238873E-02  3.6676284E-02
   11.5000  3.0816314E-02  5.5638749E-02  3.8748936E-02
   11.7500  3.2296765E-02  5.2198945E-02  4.0475108E-02
   12.0000  3.3522322E-02  4.8380435E-02  4.1801278E-02
   12.2500  3.4497368E-02  4.4548344E-02  4.2700027E-02
   12.5000  3.5250036E-02  4.0935652E-02  4.3176605E-02
   12.7500  3.5823830E-02  3.7661292E-02  4.3267628E-02
   13.0000  3.6269451E-02  3.4765172E-02  4.3035481E-02
   13.2500  3.6636665E-02  3.2240907E-02  4.2559619E-02
   13.5000  3.6967880E-02  3.0060107E-02  4.1925122E-02
   13.7500  3.7295221E-02  2.8186666E-02  4.1212093E-02
   14.0000  3.7640241E-02  2.6583686E-02  4.0488818E-02
   14.2500  3.8014759E-02  2.5216525E-02  3.9808607E-02
   14.5000  3.8422308E-02  2.4054071E-02  3.9209025E-02
   14.7500  3.8859866E-02  2.3069129E-02  3.8712734E-02
   15.0000  3.9319541E-02  2.2238347E-02  3.8329418E-02
   15.2500  3.9790095E-02  2.1541923E-02  3.8058157E-02
   15.5000  4.0258265E-02  2.0963212E-02  3.7889771E-02
   15.7500  4.0709933E-02  2.0488318E-02  3.7808918E-02
   16.0000  4.1131159E-02  2.0105680E-02  3.7795946E-02
   16.2500  4.1509087E-02  1.9805695E-02  3.7828594E-02
   16.5000  4.1832740E-02  1.9580370E-02  3.7883636E-02
   16.7500  4.2093721E-02  1.9423016E-02  3.7938495E-02
   17.0000  4.2286790E-02  1.9327980E-02  3.7972781E-02
   17.2500  4.2410275E-02  1.9290423E-02  3.7969648E-02
   17.5000  4.2466254E-02  1.9306128E-02  3.7916797E-02
   17.7500  4.2460440E-02  1.9371356E-02  3.7806998E-02
   18.0000  4.2401766E-02  1.9482726E-02  3.7638090E-02
   18.2500  4.2301667E-02  1.9637126E-02  3.7412460E-02
   18.5000  4.2173152E-02  1.9831667E-02  3.7136144E-02
   18.7500  4.2029766E-02  2.0063647E-02  3.6817701E-02
   19.0000  4.1884549E-02  2.0330562E-02  3.6467028E-02
   19.2500  4.1749122E-02  2.0630143E-02  3.6094259E-02
   19.5000  4.1632928E-02  2.0960406E-02  3.5708840E-02
   19.7500  4.1542672E-02  2.1319654E-02  3.5318910E-02
   20.0000  4.1481979E-02  2.1706308E-02  3.4931106E-02
   21.0000  4.1503673E-02  2.3484809E-02  3.3497817E-02
   22.0000  4.1608020E-02  2.5527739E-02  3.2369247E-02
   23.0000  4.1068544E-02  2.7697353E-02  3.1532518E-02
   24.0000  3.9285728E-02  2.9823052E-02  3.0883381E-02
   25.0000  3.6334637E-02  3.1689857E-02  3.0300204E-02
   26.0000  3.2962022E-02  3.3093816E-02  2.9694418E-02
   27.0000  2.9915554E-02  3.3961129E-02  2.9034648E-02
   28.0000  2.7560518E-02  3.4322387E-02  2.8351019E-02
   29.0000  2.5908688E-02  3.4259731E-02  2.7710120E-02
   30.0000  2.4797062E-02  3.3883015E-02  2.7174550E-02
   31.0000  2.4039979E-02  3.3306105E-02  2.6773656E-02
   32.0000  2.3495360E-02  3.2620110E-02  2.6496936E-02
   33.0000  2.3071267E-02  3.1879768E-02  2.6303563E-02
   34.0000  2.2711362E-02  3.1109592E-02  2.6136918E-02
   35.0000  2.2379965E-02  3.0320604E-02  2.5938144E-02
   36.0000  2.2053020E-02  2.9525958E-02  2.5657576E-02
   37.0000  2.1715979E-02  2.8748278E-02  2.5265762E-02
   38.0000  2.1367481E-02  2.8017995E-02  2.4766268E-02
   39.0000  2.1026273E-02  2.7372346E-02  2.4211758E-02
   40.0000  2.0732619E-02  2.6859093E-02  2.3708750E-02
