    Energy   (100,001)      (010,001)      (001,110)   
  -25.0000  1.6942736E-04  1.8531960E-04  1.7180091E-04
  -24.0000  1.7585324E-04  1.9221044E-04  1.7841705E-04
  -23.0000  1.8273205E-04  1.9959109E-04  1.8550794E-04
  -22.0000  1.9011153E-04  2.0751451E-04  1.9312461E-04
  -21.0000  1.9804622E-04  2.1604149E-04  2.0132557E-04
  -20.0000  2.0659874E-04  2.2524214E-04  2.1017814E-04
  -19.0000  2.1584126E-04  2.3519771E-04  2.1976022E-04
  -18.0000  2.2585743E-04  2.4600289E-04  2.3016239E-04
  -17.0000  2.3674471E-04  2.5776867E-04  2.4149060E-04
  -16.0000  2.4861731E-04  2.7062601E-04  2.5386953E-04
  -15.0000  2.6160993E-04  2.8473043E-04  2.6744692E-04
  -14.0000  2.7588251E-04  3.0026804E-04  2.8239908E-04
  -13.0000  2.9162640E-04  3.1746338E-04  2.9893813E-04
  -12.0000  3.0907238E-04  3.3658972E-04  3.1732153E-04
  -11.0000  3.2850131E-04  3.5798298E-04  3.3786484E-04
  -10.0000  3.5025844E-04  3.8206050E-04  3.6095907E-04
  -9.00000  3.7477287E-04  4.0934711E-04  3.8709460E-04
  -8.00000  4.0258459E-04  4.4051172E-04  4.1689501E-04
  -7.00000  4.3438274E-04  4.7641997E-04  4.5116576E-04
  -6.00000  4.7106105E-04  5.1821164E-04  4.9096627E-04
  -5.00000  5.1380013E-04  5.6741774E-04  5.3771962E-04
  -4.00000  5.6419375E-04  6.2614334E-04  5.9338583E-04
  -3.00000  6.2444945E-04  6.9736403E-04  6.6074695E-04
  -2.00000  6.9772203E-04  7.8542982E-04  7.4390136E-04
  -1.00000  7.8869937E-04  8.9697231E-04  8.4917736E-04
   0.00000  9.0470819E-04  1.0426658E-03  9.8696854E-04
   1.00000  1.0580133E-03  1.2410116E-03  1.1758528E-03
   2.00000  1.2713092E-03  1.5277404E-03  1.4533875E-03
   3.00000  1.5939589E-03  1.9850008E-03  1.9117281E-03
   4.00000  2.1701772E-03  2.8711700E-03  2.8658426E-03
   5.00000  3.5880474E-03  5.2985598E-03  5.7618729E-03
   5.20000  4.0371940E-03  6.0673049E-03  6.6954266E-03
   5.40000  4.5127663E-03  6.8499583E-03  7.6298519E-03
   5.60000  5.0082866E-03  7.6254974E-03  8.5303231E-03
   5.80000  5.5291158E-03  8.4003008E-03  9.3949102E-03
   6.00000  6.0839254E-03  9.1897759E-03  1.0227437E-02
   6.20000  6.6812219E-03  1.0010897E-02  1.1027384E-02
   6.40000  7.3293175E-03  1.0881901E-02  1.1792225E-02
   6.60000  8.0370607E-03  1.1823136E-02  1.2522774E-02
   6.80000  8.8142000E-03  1.2856801E-02  1.3226483E-02
   7.00000  9.6710569E-03  1.4005474E-02  1.3917622E-02
   7.20000  1.0617597E-02  1.5290004E-02  1.4615875E-02
   7.40000  1.1662368E-02  1.6727433E-02  1.5344959E-02
   7.60000  1.2811954E-02  1.8329682E-02  1.6131135E-02
   7.80000  1.4071314E-02  2.0103765E-02  1.7000542E-02
   8.00000  1.5444731E-02  2.2054001E-02  1.7975427E-02
   8.20000  1.6936544E-02  2.4185871E-02  1.9071187E-02
   8.40000  1.8550645E-02  2.6509856E-02  2.0296325E-02
   8.60000  2.0288248E-02  2.9042414E-02  2.1654884E-02
   8.80000  2.2144260E-02  3.1801593E-02  2.3148155E-02
   9.00000  2.4103382E-02  3.4796902E-02  2.4772849E-02
   9.20000  2.6137326E-02  3.8015724E-02  2.6516258E-02
   9.40000  2.8204179E-02  4.1410029E-02  2.8350859E-02
   9.60000  3.0250319E-02  4.4887362E-02  3.0230345E-02
   9.80000  3.2214784E-02  4.8309694E-02  3.2090144E-02
   10.0000  3.4035431E-02  5.1501974E-02  3.3855250E-02
   10.2500  3.6024022E-02  5.4872551E-02  3.5818630E-02
   10.5000  3.7619606E-02  5.7221556E-02  3.7414117E-02
   10.7500  3.8788459E-02  5.8295087E-02  3.8595182E-02
   11.0000  3.9545128E-02  5.8010719E-02  3.9373631E-02
   11.2500  3.9937931E-02  5.6476057E-02  3.9798016E-02
   11.5000  4.0032350E-02  5.3954333E-02  3.9933390E-02
   11.7500  3.9899411E-02  5.0789206E-02  3.9847669E-02
   12.0000  3.9607614E-02  4.7320199E-02  3.9603099E-02
   12.2500  3.9217463E-02  4.3823452E-02  3.9253583E-02
   12.5000  3.8779010E-02  4.0489622E-02  3.8846193E-02
   12.7500  3.8331502E-02  3.7428684E-02  3.8422392E-02
   13.0000  3.7903235E-02  3.4688434E-02  3.8016558E-02
   13.2500  3.7511938E-02  3.2276070E-02  3.7654070E-02
   13.5000  3.7167015E-02  3.0175804E-02  3.7352062E-02
   13.7500  3.6872559E-02  2.8360776E-02  3.7121611E-02
   14.0000  3.6629573E-02  2.6800388E-02  3.6969281E-02
   14.2500  3.6437133E-02  2.5464425E-02  3.6897766E-02
   14.5000  3.6292847E-02  2.4325096E-02  3.6906066E-02
   14.7500  3.6192951E-02  2.3357809E-02  3.6989527E-02
   15.0000  3.6132321E-02  2.2541265E-02  3.7139866E-02
   15.2500  3.6104573E-02  2.1857223E-02  3.7345300E-02
   15.5000  3.6102322E-02  2.1290144E-02  3.7590838E-02
   15.7500  3.6117622E-02  2.0826817E-02  3.7858828E-02
   16.0000  3.6142566E-02  2.0456014E-02  3.8129796E-02
   16.2500  3.6169948E-02  2.0168194E-02  3.8383590E-02
   16.5000  3.6193915E-02  1.9955259E-02  3.8600755E-02
   16.7500  3.6210486E-02  1.9810346E-02  3.8763996E-02
   17.0000  3.6217867E-02  1.9727653E-02  3.8859518E-02
   17.2500  3.6216500E-02  1.9702286E-02  3.8878060E-02
   17.5000  3.6208841E-02  1.9730125E-02  3.8815424E-02
   17.7500  3.6198891E-02  1.9807702E-02  3.8672455E-02
   18.0000  3.6191564E-02  1.9932089E-02  3.8454487E-02
   18.2500  3.6191975E-02  2.0100796E-02  3.8170392E-02
   18.5000  3.6204769E-02  2.0311684E-02  3.7831407E-02
   18.7500  3.6233547E-02  2.0562903E-02  3.7449924E-02
   19.0000  3.6280470E-02  2.0852853E-02  3.7038383E-02
   19.2500  3.6346042E-02  2.1180173E-02  3.6608340E-02
   19.5000  3.6429070E-02  2.1543740E-02  3.6169779E-02
   19.7500  3.6526719E-02  2.1942618E-02  3.5730700E-02
   20.0000  3.6634541E-02  2.2375823E-02  3.5297113E-02
   21.0000  3.7026309E-02  2.4413279E-02  3.3692040E-02
   22.0000  3.6971870E-02  2.6815192E-02  3.2344411E-02
   23.0000  3.6104762E-02  2.9375538E-02  3.1165319E-02
   24.0000  3.4422687E-02  3.1771230E-02  3.0041949E-02
   25.0000  3.2279150E-02  3.3616352E-02  2.8925323E-02
   26.0000  3.0103444E-02  3.4713716E-02  2.7817292E-02
   27.0000  2.8184168E-02  3.5094450E-02  2.6760779E-02
   28.0000  2.6621507E-02  3.4930458E-02  2.5827950E-02
   29.0000  2.5400510E-02  3.4426116E-02  2.5087915E-02
   30.0000  2.4470866E-02  3.3745811E-02  2.4568228E-02
   31.0000  2.3775278E-02  3.2996059E-02  2.4238622E-02
   32.0000  2.3253678E-02  3.2233894E-02  2.4027676E-02
   33.0000  2.2848295E-02  3.1479137E-02  2.3853611E-02
   34.0000  2.2510147E-02  3.0726767E-02  2.3648706E-02
   35.0000  2.2203736E-02  2.9960357E-02  2.3371076E-02
   36.0000  2.1910322E-02  2.9165364E-02  2.3007932E-02
   37.0000  2.1628590E-02  2.8340335E-02  2.2574605E-02
   38.0000  2.1370070E-02  2.7506742E-02  2.2110274E-02
   39.0000  2.1150216E-02  2.6719540E-02  2.1670424E-02
   40.0000  2.0979953E-02  2.6067949E-02  2.1312722E-02
