    Energy   (100,001)      (010,001)      (001,110)   
  -25.0000  1.6765644E-04  1.8728404E-04  1.8061751E-04
  -24.0000  1.7363875E-04  1.9430134E-04  1.8712428E-04
  -23.0000  1.8001994E-04  2.0182100E-04  1.9407601E-04
  -22.0000  1.8684004E-04  2.0989769E-04  2.0151876E-04
  -21.0000  1.9414448E-04  2.1859420E-04  2.0950515E-04
  -20.0000  2.0198516E-04  2.2798300E-04  2.1809544E-04
  -19.0000  2.1042153E-04  2.3814815E-04  2.2735906E-04
  -18.0000  2.1952208E-04  2.4918772E-04  2.3737638E-04
  -17.0000  2.2936609E-04  2.6121672E-04  2.4824094E-04
  -16.0000  2.4004585E-04  2.7437100E-04  2.6006225E-04
  -15.0000  2.5166943E-04  2.8881205E-04  2.7296934E-04
  -14.0000  2.6436423E-04  3.0473334E-04  2.8711533E-04
  -13.0000  2.7828148E-04  3.2236848E-04  3.0268329E-04
  -12.0000  2.9360215E-04  3.4200220E-04  3.1989392E-04
  -11.0000  3.1054464E-04  3.6398485E-04  3.3901583E-04
  -10.0000  3.2937511E-04  3.8875232E-04  3.6037929E-04
  -9.00000  3.5042138E-04  4.1685350E-04  3.8439509E-04
  -8.00000  3.7409218E-04  4.4898904E-04  4.1158091E-04
  -7.00000  4.0090419E-04  4.8606710E-04  4.4259895E-04
  -6.00000  4.3152093E-04  5.2928552E-04  4.7831092E-04
  -5.00000  4.6681042E-04  5.8025645E-04  5.1986097E-04
  -4.00000  5.0793325E-04  6.4120113E-04  5.6880500E-04
  -3.00000  5.5648244E-04  7.1526693E-04  6.2732112E-04
  -2.00000  6.1471655E-04  8.0706727E-04  6.9857029E-04
  -1.00000  6.8597208E-04  9.2365721E-04  7.8735647E-04
   0.00000  7.7545239E-04  1.0764340E-03  9.0144279E-04
   1.00000  8.9190600E-04  1.2852383E-03  1.0544967E-03
   2.00000  1.0517806E-03  1.5885916E-03  1.2738410E-03
   3.00000  1.2921687E-03  2.0756379E-03  1.6264067E-03
   4.00000  1.7290416E-03  3.0289295E-03  2.3445706E-03
   5.00000  2.8636226E-03  5.6665643E-03  4.5058200E-03
   5.20000  3.2161786E-03  6.4984540E-03  5.1817334E-03
   5.40000  3.5705935E-03  7.3429280E-03  5.8345357E-03
   5.60000  3.9150860E-03  8.1817924E-03  6.4304237E-03
   5.80000  4.2517867E-03  9.0267913E-03  6.9579417E-03
   6.00000  4.5886308E-03  9.8960839E-03  7.4116936E-03
   6.20000  4.9353978E-03  1.0805355E-02  7.7934856E-03
   6.40000  5.3026169E-03  1.1768829E-02  8.1180960E-03
   6.60000  5.7010260E-03  1.2802062E-02  8.4124521E-03
   6.80000  6.1410630E-03  1.3923062E-02  8.7088003E-03
   7.00000  6.6325254E-03  1.5151638E-02  9.0377906E-03
   7.20000  7.1843619E-03  1.6508076E-02  9.4250618E-03
   7.40000  7.8044083E-03  1.8011987E-02  9.8910852E-03
   7.60000  8.4988712E-03  1.9681498E-02  1.0452458E-02
   7.80000  9.2714230E-03  2.1532577E-02  1.1123186E-02
   8.00000  1.0121906E-02  2.3578326E-02  1.1915419E-02
   8.20000  1.1044869E-02  2.5828229E-02  1.2839673E-02
   8.40000  1.2028438E-02  2.8287311E-02  1.3904775E-02
   8.60000  1.3054304E-02  3.0955037E-02  1.5117588E-02
   8.80000  1.4099648E-02  3.3823651E-02  1.6482500E-02
   9.00000  1.5141252E-02  3.6875591E-02  1.8000577E-02
   9.20000  1.6160864E-02  4.0079711E-02  1.9668391E-02
   9.40000  1.7149619E-02  4.3386289E-02  2.1476613E-02
   9.60000  1.8109340E-02  4.6721472E-02  2.3408468E-02
   9.80000  1.9050016E-02  4.9982697E-02  2.5438123E-02
   10.0000  1.9984699E-02  5.3037120E-02  2.7529012E-02
   10.2500  2.1160129E-02  5.6320606E-02  3.0153550E-02
   10.5000  2.2347710E-02  5.8702858E-02  3.2677995E-02
   10.7500  2.3532449E-02  5.9912900E-02  3.4969103E-02
   11.0000  2.4682760E-02  5.9822643E-02  3.6899774E-02
   11.2500  2.5761897E-02  5.8484357E-02  3.8371560E-02
   11.5000  2.6739507E-02  5.6109125E-02  3.9336591E-02
   11.7500  2.7597029E-02  5.3005006E-02  3.9809679E-02
   12.0000  2.8329674E-02  4.9500037E-02  3.9859289E-02
   12.2500  2.8945590E-02  4.5879714E-02  3.9585404E-02
   12.5000  2.9461248E-02  4.2356370E-02  3.9097069E-02
   12.7500  2.9896172E-02  3.9066656E-02  3.8495299E-02
   13.0000  3.0270223E-02  3.6083909E-02  3.7862692E-02
   13.2500  3.0603053E-02  3.3434926E-02  3.7259394E-02
   13.5000  3.0914483E-02  3.1115812E-02  3.6724572E-02
   13.7500  3.1224306E-02  2.9104862E-02  3.6281076E-02
   14.0000  3.1550662E-02  2.7372113E-02  3.5941422E-02
   14.2500  3.1907985E-02  2.5885681E-02  3.5712834E-02
   14.5000  3.2305884E-02  2.4615250E-02  3.5599176E-02
   14.7500  3.2749073E-02  2.3533568E-02  3.5600600E-02
   15.0000  3.3237846E-02  2.2616894E-02  3.5712743E-02
   15.2500  3.3768708E-02  2.1844919E-02  3.5926150E-02
   15.5000  3.4335002E-02  2.1200459E-02  3.6226000E-02
   15.7500  3.4927417E-02  2.0669057E-02  3.6592101E-02
   16.0000  3.5534407E-02  2.0238566E-02  3.6999299E-02
   16.2500  3.6142573E-02  1.9898762E-02  3.7418442E-02
   16.5000  3.6737139E-02  1.9640999E-02  3.7818062E-02
   16.7500  3.7302606E-02  1.9457911E-02  3.8166794E-02
   17.0000  3.7823642E-02  1.9343158E-02  3.8436326E-02
   17.2500  3.8286155E-02  1.9291219E-02  3.8604419E-02
   17.5000  3.8678440E-02  1.9297218E-02  3.8657373E-02
   17.7500  3.8992222E-02  1.9356785E-02  3.8591336E-02
   18.0000  3.9223415E-02  1.9465958E-02  3.8412117E-02
   18.2500  3.9372457E-02  1.9621107E-02  3.8133575E-02
   18.5000  3.9444164E-02  1.9818887E-02  3.7775034E-02
   18.7500  3.9447145E-02  2.0056223E-02  3.7358348E-02
   19.0000  3.9392862E-02  2.0330312E-02  3.6905207E-02
   19.2500  3.9294484E-02  2.0638655E-02  3.6435078E-02
   19.5000  3.9165678E-02  2.0979094E-02  3.5963910E-02
   19.7500  3.9019558E-02  2.1349799E-02  3.5503609E-02
   20.0000  3.8867980E-02  2.1749076E-02  3.5062252E-02
   21.0000  3.8394248E-02  2.3587214E-02  3.3561741E-02
   22.0000  3.8361000E-02  2.5701925E-02  3.2497055E-02
   23.0000  3.8676048E-02  2.7965399E-02  3.1732358E-02
   24.0000  3.8918292E-02  3.0225617E-02  3.1109726E-02
   25.0000  3.8560826E-02  3.2281289E-02  3.0518268E-02
   26.0000  3.7277848E-02  3.3909334E-02  2.9906286E-02
   27.0000  3.5191508E-02  3.4943231E-02  2.9275003E-02
   28.0000  3.2782998E-02  3.5344144E-02  2.8660276E-02
   29.0000  3.0545030E-02  3.5200771E-02  2.8105229E-02
   30.0000  2.8746144E-02  3.4667132E-02  2.7641939E-02
   31.0000  2.7425151E-02  3.3903936E-02  2.7288184E-02
   32.0000  2.6490243E-02  3.3042321E-02  2.7042158E-02
   33.0000  2.5823190E-02  3.2151105E-02  2.6875579E-02
   34.0000  2.5320912E-02  3.1253639E-02  2.6744344E-02
   35.0000  2.4901827E-02  3.0353570E-02  2.6603932E-02
   36.0000  2.4508140E-02  2.9448608E-02  2.6421160E-02
   37.0000  2.4109067E-02  2.8540885E-02  2.6182043E-02
   38.0000  2.3703386E-02  2.7648428E-02  2.5895841E-02
   39.0000  2.3317846E-02  2.6819828E-02  2.5596176E-02
   40.0000  2.2996352E-02  2.6139278E-02  2.5335303E-02
