    Energy   (100,001)      (010,001)      (001,110)   
  -25.0000  1.7260095E-04  1.8810608E-04  1.8116832E-04
  -24.0000  1.7893519E-04  1.9501875E-04  1.8778957E-04
  -23.0000  1.8570658E-04  2.0241936E-04  1.9487061E-04
  -22.0000  1.9296061E-04  2.1036046E-04  2.0245984E-04
  -21.0000  2.0074923E-04  2.1890236E-04  2.1061260E-04
  -20.0000  2.0913199E-04  2.2811454E-04  2.1939245E-04
  -19.0000  2.1817752E-04  2.3807755E-04  2.2887279E-04
  -18.0000  2.2796530E-04  2.4888521E-04  2.3913882E-04
  -17.0000  2.3858790E-04  2.6064747E-04  2.5028994E-04
  -16.0000  2.5015373E-04  2.7349401E-04  2.6244292E-04
  -15.0000  2.6279064E-04  2.8757881E-04  2.7573578E-04
  -14.0000  2.7665040E-04  3.0308611E-04  2.9033290E-04
  -13.0000  2.9191464E-04  3.2023813E-04  3.0643157E-04
  -12.0000  3.0880249E-04  3.3930533E-04  3.2427070E-04
  -11.0000  3.2758088E-04  3.6062014E-04  3.4414243E-04
  -10.0000  3.4857833E-04  3.8459563E-04  3.6640780E-04
  -9.00000  3.7220388E-04  4.1175136E-04  3.9151853E-04
  -8.00000  3.9897366E-04  4.4274984E-04  4.2004749E-04
  -7.00000  4.2954863E-04  4.7844902E-04  4.5273264E-04
  -6.00000  4.6479012E-04  5.1997972E-04  4.9054188E-04
  -5.00000  5.0584336E-04  5.6886324E-04  5.3477142E-04
  -4.00000  5.5426790E-04  6.2719587E-04  5.8720074E-04
  -3.00000  6.1224973E-04  6.9795011E-04  6.5034660E-04
  -2.00000  6.8296416E-04  7.8549093E-04  7.2790116E-04
  -1.00000  7.7123776E-04  8.9651596E-04  8.2553734E-04
   0.00000  8.8486025E-04  1.0419083E-03  9.5251457E-04
   1.00000  1.0374927E-03  1.2407986E-03  1.1252510E-03
   2.00000  1.2562193E-03  1.5309286E-03  1.3765954E-03
   3.00000  1.6064064E-03  2.0019340E-03  1.7861897E-03
   4.00000  2.3101889E-03  2.9493067E-03  2.6239694E-03
   5.00000  4.3725284E-03  5.6882749E-03  5.0933556E-03
   5.20000  5.0042268E-03  6.5482363E-03  5.8418025E-03
   5.40000  5.6074798E-03  7.3970524E-03  6.5547510E-03
   5.60000  6.1603201E-03  8.2038534E-03  7.2141172E-03
   5.80000  6.6736207E-03  8.9746396E-03  7.8412193E-03
   6.00000  7.1679864E-03  9.7287208E-03  8.4685126E-03
   6.20000  7.6627832E-03  1.0488598E-02  9.1292502E-03
   6.40000  8.1738640E-03  1.1277945E-02  9.8566656E-03
   6.60000  8.7139369E-03  1.2120404E-02  1.0683350E-02
   6.80000  9.2932145E-03  1.3037640E-02  1.1638635E-02
   7.00000  9.9198945E-03  1.4047824E-02  1.2745010E-02
   7.20000  1.0600584E-02  1.5165507E-02  1.4014302E-02
   7.40000  1.1340734E-02  1.6402661E-02  1.5443125E-02
   7.60000  1.2144965E-02  1.7769943E-02  1.7007256E-02
   7.80000  1.3017154E-02  1.9277697E-02  1.8656589E-02
   8.00000  1.3960302E-02  2.0936683E-02  2.0314601E-02
   8.20000  1.4976402E-02  2.2758652E-02  2.1886572E-02
   8.40000  1.6066497E-02  2.4756638E-02  2.3277729E-02
   8.60000  1.7230920E-02  2.6944402E-02  2.4416478E-02
   8.80000  1.8469525E-02  2.9334314E-02  2.5272297E-02
   9.00000  1.9781708E-02  3.1933261E-02  2.5859094E-02
   9.20000  2.1165991E-02  3.4736581E-02  2.6224278E-02
   9.40000  2.2618856E-02  3.7720620E-02  2.6431504E-02
   9.60000  2.4132467E-02  4.0835062E-02  2.6545547E-02
   9.80000  2.5691808E-02  4.3996457E-02  2.6623346E-02
   10.0000  2.7272341E-02  4.7084674E-02  2.6710739E-02
   10.2500  2.9222832E-02  5.0604237E-02  2.6885430E-02
   10.5000  3.1059637E-02  5.3424188E-02  2.7174344E-02
   10.7500  3.2681019E-02  5.5230273E-02  2.7599953E-02
   11.0000  3.3998419E-02  5.5822219E-02  2.8163207E-02
   11.2500  3.4962143E-02  5.5173269E-02  2.8847204E-02
   11.5000  3.5573574E-02  5.3440654E-02  2.9623235E-02
   11.7500  3.5879166E-02  5.0913677E-02  3.0457550E-02
   12.0000  3.5953257E-02  4.7924659E-02  3.1316648E-02
   12.2500  3.5878977E-02  4.4770290E-02  3.2170822E-02
   12.5000  3.5733082E-02  4.1670237E-02  3.2995304E-02
   12.7500  3.5576290E-02  3.8762386E-02  3.3770073E-02
   13.0000  3.5449346E-02  3.6119366E-02  3.4481522E-02
   13.2500  3.5374195E-02  3.3769172E-02  3.5125046E-02
   13.5000  3.5357679E-02  3.1711831E-02  3.5705338E-02
   13.7500  3.5395383E-02  2.9931342E-02  3.6234026E-02
   14.0000  3.5474867E-02  2.8403729E-02  3.6726159E-02
   14.2500  3.5578394E-02  2.7102101E-02  3.7196794E-02
   14.5000  3.5685388E-02  2.5999616E-02  3.7658295E-02
   14.7500  3.5774767E-02  2.5071091E-02  3.8118535E-02
   15.0000  3.5827142E-02  2.4293791E-02  3.8579936E-02
   15.2500  3.5826792E-02  2.3647721E-02  3.9039214E-02
   15.5000  3.5763244E-02  2.3115629E-02  3.9487695E-02
   15.7500  3.5632255E-02  2.2682841E-02  3.9912095E-02
   16.0000  3.5436063E-02  2.2336985E-02  4.0295712E-02
   16.2500  3.5182894E-02  2.2067685E-02  4.0620003E-02
   16.5000  3.4885837E-02  2.1866248E-02  4.0866470E-02
   16.7500  3.4561300E-02  2.1725362E-02  4.1018715E-02
   17.0000  3.4227306E-02  2.1638837E-02  4.1064404E-02
   17.2500  3.3901864E-02  2.1601372E-02  4.0996824E-02
   17.5000  3.3601617E-02  2.1608369E-02  4.0815748E-02
   17.7500  3.3340871E-02  2.1655782E-02  4.0527451E-02
   18.0000  3.3131029E-02  2.1740002E-02  4.0143895E-02
   18.2500  3.2980405E-02  2.1857778E-02  3.9681274E-02
   18.5000  3.2894312E-02  2.2006171E-02  3.9158247E-02
   18.7500  3.2875352E-02  2.2182530E-02  3.8594156E-02
   19.0000  3.2923807E-02  2.2384491E-02  3.8007467E-02
   19.2500  3.3038059E-02  2.2609998E-02  3.7414579E-02
   19.5000  3.3214968E-02  2.2857342E-02  3.6829022E-02
   19.7500  3.3450116E-02  2.3125143E-02  3.6261095E-02
   20.0000  3.3737747E-02  2.3412235E-02  3.5718049E-02
   21.0000  3.5241838E-02  2.4726001E-02  3.3873441E-02
   22.0000  3.6800241E-02  2.6243652E-02  3.2583183E-02
   23.0000  3.7696119E-02  2.7897004E-02  3.1693693E-02
   24.0000  3.7429546E-02  2.9588561E-02  3.0983947E-02
   25.0000  3.6012225E-02  3.1172605E-02  3.0269746E-02
   26.0000  3.3911055E-02  3.2485756E-02  2.9453478E-02
   27.0000  3.1690312E-02  3.3409511E-02  2.8542425E-02
   28.0000  2.9716261E-02  3.3908486E-02  2.7623501E-02
   29.0000  2.8109347E-02  3.4022298E-02  2.6801282E-02
   30.0000  2.6850720E-02  3.3838533E-02  2.6143675E-02
   31.0000  2.5881582E-02  3.3459259E-02  2.5665147E-02
   32.0000  2.5137225E-02  3.2956766E-02  2.5337918E-02
   33.0000  2.4562732E-02  3.2369123E-02  2.5120346E-02
   34.0000  2.4116293E-02  3.1712334E-02  2.4974983E-02
   35.0000  2.3765871E-02  3.0991214E-02  2.4874306E-02
   36.0000  2.3487199E-02  3.0210360E-02  2.4801516E-02
   37.0000  2.3262718E-02  2.9384062E-02  2.4746829E-02
   38.0000  2.3080448E-02  2.8545197E-02  2.4700946E-02
   39.0000  2.2933262E-02  2.7755101E-02  2.4654204E-02
   40.0000  2.2818418E-02  2.7104618E-02  2.4606461E-02
