    Energy   (100,001)      (010,001)      (001,110)   
  -25.0000  1.6965728E-04  1.7707994E-04  1.7964225E-04
  -24.0000  1.7553858E-04  1.8408794E-04  1.8613595E-04
  -23.0000  1.8180441E-04  1.9161647E-04  1.9307728E-04
  -22.0000  1.8849275E-04  1.9972372E-04  2.0051316E-04
  -21.0000  1.9564674E-04  2.0847672E-04  2.0849721E-04
  -20.0000  2.0331551E-04  2.1795305E-04  2.1709102E-04
  -19.0000  2.1155529E-04  2.2824298E-04  2.2636569E-04
  -18.0000  2.2043077E-04  2.3945213E-04  2.3640370E-04
  -17.0000  2.3001670E-04  2.5170486E-04  2.4730130E-04
  -16.0000  2.4039997E-04  2.6514854E-04  2.5917149E-04
  -15.0000  2.5168218E-04  2.7995901E-04  2.7214785E-04
  -14.0000  2.6398289E-04  2.9634779E-04  2.8638940E-04
  -13.0000  2.7744387E-04  3.1457142E-04  3.0208697E-04
  -12.0000  2.9223448E-04  3.3494392E-04  3.1947161E-04
  -11.0000  3.0855890E-04  3.5785362E-04  3.3882579E-04
  -10.0000  3.2666573E-04  3.8378616E-04  3.6049852E-04
  -9.00000  3.4686094E-04  4.1335657E-04  3.8492636E-04
  -8.00000  3.6952604E-04  4.4735466E-04  4.1266282E-04
  -7.00000  3.9514359E-04  4.8681102E-04  4.4442067E-04
  -6.00000  4.2433449E-04  5.3309483E-04  4.8113432E-04
  -5.00000  4.5791384E-04  5.8806348E-04  5.2405433E-04
  -4.00000  4.9697788E-04  6.5429865E-04  5.7489591E-04
  -3.00000  5.4304568E-04  7.3549383E-04  6.3608151E-04
  -2.00000  5.9830301E-04  8.3712131E-04  7.1115755E-04
  -1.00000  6.6605318E-04  9.6764958E-04  8.0555567E-04
   0.00000  7.5163064E-04  1.1409410E-03  9.2809758E-04
   1.00000  8.6449511E-04  1.3814813E-03  1.0943024E-03
   2.00000  1.0239296E-03  1.7375744E-03  1.3348238E-03
   3.00000  1.2789629E-03  2.3229445E-03  1.7223968E-03
   4.00000  1.8100710E-03  3.5047767E-03  2.4949496E-03
   5.00000  3.4686125E-03  6.8743304E-03  4.7005023E-03
   5.20000  3.9497098E-03  7.9239060E-03  5.3972996E-03
   5.40000  4.3658889E-03  8.9660271E-03  6.0983802E-03
   5.60000  4.6948731E-03  9.9786199E-03  6.7861818E-03
   5.80000  4.9497341E-03  1.0988849E-02  7.4683818E-03
   6.00000  5.1541883E-03  1.2037842E-02  8.1580997E-03
   6.20000  5.3306462E-03  1.3163190E-02  8.8682262E-03
   6.40000  5.4972907E-03  1.4395608E-02  9.6144997E-03
   6.60000  5.6681198E-03  1.5760734E-02  1.0419157E-02
   6.80000  5.8536636E-03  1.7281891E-02  1.1311452E-02
   7.00000  6.0617799E-03  1.8982597E-02  1.2324841E-02
   7.20000  6.2983729E-03  2.0888574E-02  1.3492014E-02
   7.40000  6.5679721E-03  2.3028883E-02  1.4838529E-02
   7.60000  6.8741561E-03  2.5435755E-02  1.6374890E-02
   7.80000  7.2198510E-03  2.8142345E-02  1.8087008E-02
   8.00000  7.6075638E-03  3.1177200E-02  1.9926536E-02
   8.20000  8.0396269E-03  3.4554224E-02  2.1805222E-02
   8.40000  8.5184996E-03  3.8257858E-02  2.3599500E-02
   8.60000  9.0470809E-03  4.2225591E-02  2.5170368E-02
   8.80000  9.6288807E-03  4.6333365E-02  2.6396769E-02
   9.00000  1.0267855E-02  5.0392074E-02  2.7210682E-02
   9.20000  1.0967902E-02  5.4161579E-02  2.7616984E-02
   9.40000  1.1732305E-02  5.7382114E-02  2.7687752E-02
   9.60000  1.2563230E-02  5.9817248E-02  2.7534870E-02
   9.80000  1.3461053E-02  6.1298270E-02  2.7275586E-02
   10.0000  1.4423558E-02  6.1755824E-02  2.7006392E-02
   10.2500  1.5708799E-02  6.0954726E-02  2.6752168E-02
   10.5000  1.7067075E-02  5.8880119E-02  2.6647032E-02
   10.7500  1.8470923E-02  5.5905364E-02  2.6709328E-02
   11.0000  1.9886160E-02  5.2414125E-02  2.6931874E-02
   11.2500  2.1275595E-02  4.8731757E-02  2.7294529E-02
   11.5000  2.2604471E-02  4.5097105E-02  2.7770896E-02
   11.7500  2.3845362E-02  4.1664198E-02  2.8332461E-02
   12.0000  2.4981392E-02  3.8519128E-02  2.8951359E-02
   12.2500  2.6007487E-02  3.5699647E-02  2.9602261E-02
   12.5000  2.6929883E-02  3.3211432E-02  3.0263456E-02
   12.7500  2.7764683E-02  3.1040147E-02  3.0916880E-02
   13.0000  2.8535515E-02  2.9160442E-02  3.1548101E-02
   13.2500  2.9269296E-02  2.7542680E-02  3.2148437E-02
   13.5000  2.9991231E-02  2.6157286E-02  3.2717183E-02
   13.7500  3.0721913E-02  2.4976791E-02  3.3260367E-02
   14.0000  3.1476655E-02  2.3976339E-02  3.3787458E-02
   14.2500  3.2265364E-02  2.3133804E-02  3.4308427E-02
   14.5000  3.3092287E-02  2.2429903E-02  3.4831530E-02
   14.7500  3.3955769E-02  2.1848149E-02  3.5361702E-02
   15.0000  3.4848231E-02  2.1374629E-02  3.5899470E-02
   15.2500  3.5756479E-02  2.0997693E-02  3.6440401E-02
   15.5000  3.6662398E-02  2.0707598E-02  3.6975099E-02
   15.7500  3.7544121E-02  2.0496177E-02  3.7489749E-02
   16.0000  3.8377668E-02  2.0356518E-02  3.7967208E-02
   16.2500  3.9139023E-02  2.0282696E-02  3.8388574E-02
   16.5000  3.9806452E-02  2.0269545E-02  3.8735070E-02
   16.7500  4.0362775E-02  2.0312478E-02  3.8990012E-02
   17.0000  4.0797253E-02  2.0407347E-02  3.9140589E-02
   17.2500  4.1106731E-02  2.0550336E-02  3.9179202E-02
   17.5000  4.1295841E-02  2.0737888E-02  3.9104161E-02
   17.7500  4.1376206E-02  2.0966646E-02  3.8919691E-02
   18.0000  4.1364835E-02  2.1233414E-02  3.8635277E-02
   18.2500  4.1282022E-02  2.1535136E-02  3.8264526E-02
   18.5000  4.1149128E-02  2.1868875E-02  3.7823738E-02
   18.7500  4.0986611E-02  2.2231821E-02  3.7330416E-02
   19.0000  4.0812504E-02  2.2621315E-02  3.6801880E-02
   19.2500  4.0641449E-02  2.3034912E-02  3.6254111E-02
   19.5000  4.0484239E-02  2.3470449E-02  3.5700877E-02
   19.7500  4.0347766E-02  2.3926051E-02  3.5153250E-02
   20.0000  4.0235272E-02  2.4399931E-02  3.4619654E-02
   21.0000  3.9993641E-02  2.6426350E-02  3.2735942E-02
   22.0000  3.9829286E-02  2.8517286E-02  3.1360700E-02
   23.0000  3.9292303E-02  3.0465581E-02  3.0431359E-02
   24.0000  3.8075234E-02  3.2030418E-02  2.9805367E-02
   25.0000  3.6201786E-02  3.3016293E-02  2.9350259E-02
   26.0000  3.3973827E-02  3.3366909E-02  2.8967449E-02
   27.0000  3.1757977E-02  3.3171281E-02  2.8604629E-02
   28.0000  2.9811474E-02  3.2592792E-02  2.8258161E-02
   29.0000  2.8243690E-02  3.1793059E-02  2.7950896E-02
   30.0000  2.7059655E-02  3.0890321E-02  2.7700103E-02
   31.0000  2.6212141E-02  2.9951351E-02  2.7500827E-02
   32.0000  2.5635918E-02  2.9002876E-02  2.7328824E-02
   33.0000  2.5262233E-02  2.8052526E-02  2.7153572E-02
   34.0000  2.5025727E-02  2.7104229E-02  2.6950565E-02
   35.0000  2.4874819E-02  2.6158161E-02  2.6706345E-02
   36.0000  2.4767723E-02  2.5218413E-02  2.6422282E-02
   37.0000  2.4670101E-02  2.4300222E-02  2.6112855E-02
   38.0000  2.4560993E-02  2.3432892E-02  2.5798743E-02
   39.0000  2.4438703E-02  2.2662948E-02  2.5504926E-02
   40.0000  2.4321524E-02  2.2050539E-02  2.5263706E-02
