    Energy   (100,001)      (010,001)      (001,110)   
  -25.0000  1.6624964E-04  1.8866801E-04  1.7411688E-04
  -24.0000  1.7225800E-04  1.9552706E-04  1.8042526E-04
  -23.0000  1.7866938E-04  2.0286683E-04  1.8716229E-04
  -22.0000  1.8552427E-04  2.1073878E-04  1.9437181E-04
  -21.0000  1.9286869E-04  2.1920196E-04  2.0210376E-04
  -20.0000  2.0075515E-04  2.2832437E-04  2.1041525E-04
  -19.0000  2.0924384E-04  2.3818477E-04  2.1937193E-04
  -18.0000  2.1840408E-04  2.4887481E-04  2.2904962E-04
  -17.0000  2.2831613E-04  2.6050184E-04  2.3953632E-04
  -16.0000  2.3907337E-04  2.7319235E-04  2.5093482E-04
  -15.0000  2.5078521E-04  2.8709639E-04  2.6336587E-04
  -14.0000  2.6358058E-04  3.0239331E-04  2.7697232E-04
  -13.0000  2.7761256E-04  3.1929920E-04  2.9192440E-04
  -12.0000  2.9306433E-04  3.3807674E-04  3.0842665E-04
  -11.0000  3.1015703E-04  3.5904836E-04  3.2672705E-04
  -10.0000  3.2916025E-04  3.8261417E-04  3.4712929E-04
  -9.00000  3.5040622E-04  4.0927657E-04  3.7000949E-04
  -8.00000  3.7430953E-04  4.3967511E-04  3.9583949E-04
  -7.00000  4.0139492E-04  4.7463631E-04  4.2521989E-04
  -6.00000  4.3233759E-04  5.1524720E-04  4.5892819E-04
  -5.00000  4.6802331E-04  5.6296649E-04  4.9799105E-04
  -4.00000  5.0964115E-04  6.1979845E-04  5.4379641E-04
  -3.00000  5.5883293E-04  6.8857578E-04  5.9827511E-04
  -2.00000  6.1794654E-04  7.7344219E-04  6.6421058E-04
  -1.00000  6.9049448E-04  8.8072695E-04  7.4580212E-04
   0.00000  7.8205765E-04  1.0206585E-03  8.4977925E-04
   1.00000  9.0228160E-04  1.2110948E-03  9.8786704E-04
   2.00000  1.0700517E-03  1.4869626E-03  1.1831609E-03
   3.00000  1.3305025E-03  1.9302513E-03  1.4908753E-03
   4.00000  1.8357057E-03  2.8069872E-03  2.0947657E-03
   5.00000  3.2772894E-03  5.2913396E-03  3.8339978E-03
   5.20000  3.7285015E-03  6.0783872E-03  4.4041786E-03
   5.40000  4.1727547E-03  6.8693470E-03  4.9908058E-03
   5.60000  4.5932630E-03  7.6388585E-03  5.5720174E-03
   5.80000  4.9910393E-03  8.3907392E-03  6.1430525E-03
   6.00000  5.3719492E-03  9.1373515E-03  6.7037573E-03
   6.20000  5.7414678E-03  9.8913261E-03  7.2523043E-03
   6.40000  6.1036779E-03  1.0665338E-02  7.7831049E-03
   6.60000  6.4610435E-03  1.1473372E-02  8.2852419E-03
   6.80000  6.8149336E-03  1.2331314E-02  8.7420183E-03
   7.00000  7.1675369E-03  1.3256885E-02  9.1357087E-03
   7.20000  7.5242425E-03  1.4269154E-02  9.4588700E-03
   7.40000  7.8942612E-03  1.5387736E-02  9.7247539E-03
   7.60000  8.2886808E-03  1.6631938E-02  9.9668615E-03
   7.80000  8.7177350E-03  1.8020217E-02  1.0227992E-02
   8.00000  9.1893029E-03  1.9569827E-02  1.0548278E-02
   8.20000  9.7089296E-03  2.1296156E-02  1.0959040E-02
   8.40000  1.0280549E-02  2.3211257E-02  1.1482294E-02
   8.60000  1.0907211E-02  2.5321476E-02  1.2132711E-02
   8.80000  1.1591567E-02  2.7624378E-02  1.2919532E-02
   9.00000  1.2336159E-02  3.0105653E-02  1.3847533E-02
   9.20000  1.3143546E-02  3.2737058E-02  1.4917085E-02
   9.40000  1.4016355E-02  3.5476411E-02  1.6123721E-02
   9.60000  1.4957283E-02  3.8270034E-02  1.7457608E-02
   9.80000  1.5968952E-02  4.1057109E-02  1.8903255E-02
   10.0000  1.7053351E-02  4.3773635E-02  2.0439555E-02
   10.2500  1.8510938E-02  4.6967963E-02  2.2446770E-02
   10.5000  2.0073442E-02  4.9803812E-02  2.4493858E-02
   10.7500  2.1716879E-02  5.2117759E-02  2.6516799E-02
   11.0000  2.3396596E-02  5.3736755E-02  2.8454903E-02
   11.2500  2.5047133E-02  5.4505535E-02  3.0257149E-02
   11.5000  2.6592544E-02  5.4327450E-02  3.1885908E-02
   11.7500  2.7965487E-02  5.3209336E-02  3.3318857E-02
   12.0000  2.9124428E-02  5.1276694E-02  3.4548539E-02
   12.2500  3.0061444E-02  4.8743417E-02  3.5577416E-02
   12.5000  3.0799796E-02  4.5856292E-02  3.6412013E-02
   12.7500  3.1383976E-02  4.2843755E-02  3.7062637E-02
   13.0000  3.1866373E-02  3.9885411E-02  3.7546688E-02
   13.2500  3.2295824E-02  3.7102787E-02  3.7889758E-02
   13.5000  3.2711526E-02  3.4564866E-02  3.8123724E-02
   13.7500  3.3141488E-02  3.2300546E-02  3.8283734E-02
   14.0000  3.3603229E-02  3.0311867E-02  3.8405120E-02
   14.2500  3.4105395E-02  2.8584956E-02  3.8520538E-02
   14.5000  3.4649619E-02  2.7097918E-02  3.8657589E-02
   14.7500  3.5232281E-02  2.5825978E-02  3.8837134E-02
   15.0000  3.5846001E-02  2.4744539E-02  3.9072328E-02
   15.2500  3.6480804E-02  2.3830810E-02  3.9368287E-02
   15.5000  3.7124973E-02  2.3064507E-02  3.9722273E-02
   15.7500  3.7765642E-02  2.2428019E-02  4.0124269E-02
   16.0000  3.8389196E-02  2.1906267E-02  4.0557929E-02
   16.2500  3.8981625E-02  2.1486437E-02  4.1001886E-02
   16.5000  3.9528969E-02  2.1157652E-02  4.1431434E-02
   16.7500  4.0017960E-02  2.0910665E-02  4.1820547E-02
   17.0000  4.0436918E-02  2.0737569E-02  4.2144127E-02
   17.2500  4.0776811E-02  2.0631555E-02  4.2380243E-02
   17.5000  4.1032311E-02  2.0586689E-02  4.2512124E-02
   17.7500  4.1202613E-02  2.0597739E-02  4.2529580E-02
   18.0000  4.1291795E-02  2.0660019E-02  4.2429690E-02
   18.2500  4.1308595E-02  2.0769274E-02  4.2216622E-02
   18.5000  4.1265622E-02  2.0921584E-02  4.1900690E-02
   18.7500  4.1178119E-02  2.1113320E-02  4.1496834E-02
   19.0000  4.1062505E-02  2.1341124E-02  4.1022779E-02
   19.2500  4.0934912E-02  2.1601942E-02  4.0497154E-02
   19.5000  4.0809905E-02  2.1893070E-02  3.9937799E-02
   19.7500  4.0699516E-02  2.2212165E-02  3.9360528E-02
   20.0000  4.0612709E-02  2.2557089E-02  3.8778625E-02
   21.0000  4.0579667E-02  2.4145488E-02  3.6603572E-02
   22.0000  4.0958165E-02  2.5954514E-02  3.4922785E-02
   23.0000  4.1275303E-02  2.7855336E-02  3.3739391E-02
   24.0000  4.0953593E-02  2.9703484E-02  3.2878647E-02
   25.0000  3.9659107E-02  3.1330856E-02  3.2127714E-02
   26.0000  3.7441473E-02  3.2577241E-02  3.1307636E-02
   27.0000  3.4678329E-02  3.3343221E-02  3.0345860E-02
   28.0000  3.1884208E-02  3.3632116E-02  2.9305110E-02
   29.0000  2.9418524E-02  3.3542162E-02  2.8305734E-02
   30.0000  2.7438931E-02  3.3205438E-02  2.7452234E-02
   31.0000  2.5963085E-02  3.2735962E-02  2.6794244E-02
   32.0000  2.4926201E-02  3.2206966E-02  2.6324031E-02
   33.0000  2.4229119E-02  3.1650661E-02  2.5997172E-02
   34.0000  2.3768465E-02  3.1070895E-02  2.5754192E-02
   35.0000  2.3450494E-02  3.0460090E-02  2.5534993E-02
   36.0000  2.3195902E-02  2.9815514E-02  2.5288046E-02
   37.0000  2.2942912E-02  2.9150668E-02  2.4978496E-02
   38.0000  2.2654799E-02  2.8498318E-02  2.4598236E-02
   39.0000  2.2334280E-02  2.7906906E-02  2.4178932E-02
   40.0000  2.2032276E-02  2.7433620E-02  2.3796688E-02
