    Energy   (100,001)      (010,001)      (001,110)   
  -25.0000  1.6891907E-04  1.8405016E-04  1.7763523E-04
  -24.0000  1.7501091E-04  1.9098250E-04  1.8401797E-04
  -23.0000  1.8151303E-04  1.9841176E-04  1.9083379E-04
  -22.0000  1.8846696E-04  2.0639200E-04  1.9812709E-04
  -21.0000  1.9591994E-04  2.1498525E-04  2.0594848E-04
  -20.0000  2.0392594E-04  2.2426312E-04  2.1435589E-04
  -19.0000  2.1254691E-04  2.3430864E-04  2.2341593E-04
  -18.0000  2.2185426E-04  2.4521862E-04  2.3320561E-04
  -17.0000  2.3193080E-04  2.5710660E-04  2.4381438E-04
  -16.0000  2.4287305E-04  2.7010660E-04  2.5534681E-04
  -15.0000  2.5479420E-04  2.8437790E-04  2.6792585E-04
  -14.0000  2.6782793E-04  3.0011122E-04  2.8169713E-04
  -13.0000  2.8213322E-04  3.1753675E-04  2.9683437E-04
  -12.0000  2.9790067E-04  3.3693485E-04  3.1354657E-04
  -11.0000  3.1536084E-04  3.5865033E-04  3.3208742E-04
  -10.0000  3.3479536E-04  3.8311185E-04  3.5276802E-04
  -9.00000  3.5655214E-04  4.1085881E-04  3.7597424E-04
  -8.00000  3.8106630E-04  4.4257910E-04  4.0219080E-04
  -7.00000  4.0888989E-04  4.7916351E-04  4.3203560E-04
  -6.00000  4.4073501E-04  5.2178565E-04  4.6630960E-04
  -5.00000  4.7753804E-04  5.7202301E-04  5.0607163E-04
  -4.00000  5.2055899E-04  6.3204599E-04  5.5275426E-04
  -3.00000  5.7154125E-04  7.0492468E-04  6.0835080E-04
  -2.00000  6.3298212E-04  7.9515049E-04  6.7573230E-04
  -1.00000  7.0862138E-04  9.0957641E-04  7.5921963E-04
   0.00000  8.0440080E-04  1.0592446E-03  8.6570222E-04
   1.00000  9.3057514E-04  1.2633220E-03  1.0070758E-03
   2.00000  1.1071667E-03  1.5589140E-03  1.2064259E-03
   3.00000  1.3818984E-03  2.0317098E-03  1.5177261E-03
   4.00000  1.9159707E-03  2.9535494E-03  2.1156680E-03
   5.00000  3.4313853E-03  5.4975284E-03  3.7685294E-03
   5.20000  3.8835453E-03  6.2937751E-03  4.2912667E-03
   5.40000  4.3086996E-03  7.0937426E-03  4.8228661E-03
   5.60000  4.6961750E-03  7.8769388E-03  5.3545114E-03
   5.80000  5.0618071E-03  8.6543783E-03  5.8982960E-03
   6.00000  5.4267634E-03  9.4466818E-03  6.4696571E-03
   6.20000  5.8068250E-03  1.0274398E-02  7.0772822E-03
   6.40000  6.2104146E-03  1.1156332E-02  7.7191380E-03
   6.60000  6.6398330E-03  1.2110025E-02  8.3814944E-03
   6.80000  7.0929107E-03  1.3152651E-02  9.0412979E-03
   7.00000  7.5648861E-03  1.4302004E-02  9.6735182E-03
   7.20000  8.0511384E-03  1.5577203E-02  1.0262205E-02
   7.40000  8.5503279E-03  1.6998749E-02  1.0809407E-02
   7.60000  9.0663975E-03  1.8588084E-02  1.1335958E-02
   7.80000  9.6084009E-03  2.0367118E-02  1.1874027E-02
   8.00000  1.0188642E-02  2.2357889E-02  1.2456880E-02
   8.20000  1.0820473E-02  2.4582077E-02  1.3111130E-02
   8.40000  1.1516740E-02  2.7059881E-02  1.3853086E-02
   8.60000  1.2289023E-02  2.9807727E-02  1.4688761E-02
   8.80000  1.3147269E-02  3.2834192E-02  1.5617316E-02
   9.00000  1.4099477E-02  3.6133764E-02  1.6635720E-02
   9.20000  1.5151261E-02  3.9678310E-02  1.7741011E-02
   9.40000  1.6304883E-02  4.3406564E-02  1.8930113E-02
   9.60000  1.7557859E-02  4.7214131E-02  2.0198805E-02
   9.80000  1.8901808E-02  5.0948778E-02  2.1540528E-02
   10.0000  2.0321562E-02  5.4415201E-02  2.2945254E-02
   10.2500  2.2167076E-02  5.8032827E-02  2.4767569E-02
   10.5000  2.4031372E-02  6.0468842E-02  2.6628571E-02
   10.7500  2.5834357E-02  6.1432809E-02  2.8483534E-02
   11.0000  2.7489162E-02  6.0854442E-02  3.0282542E-02
   11.2500  2.8916904E-02  5.8902958E-02  3.1970141E-02
   11.5000  3.0061925E-02  5.5921029E-02  3.3484970E-02
   11.7500  3.0901941E-02  5.2314312E-02  3.4765529E-02
   12.0000  3.1449356E-02  4.8453209E-02  3.5764062E-02
   12.2500  3.1746745E-02  4.4620197E-02  3.6460408E-02
   12.5000  3.1859163E-02  4.1000938E-02  3.6865913E-02
   12.7500  3.1862624E-02  3.7699035E-02  3.7018232E-02
   13.0000  3.1831179E-02  3.4757906E-02  3.6971902E-02
   13.2500  3.1826381E-02  3.2181649E-02  3.6788292E-02
   13.5000  3.1891817E-02  2.9951480E-02  3.6527540E-02
   13.7500  3.2053384E-02  2.8037137E-02  3.6243200E-02
   14.0000  3.2322731E-02  2.6404206E-02  3.5979160E-02
   14.2500  3.2701080E-02  2.5018537E-02  3.5768552E-02
   14.5000  3.3182304E-02  2.3848613E-02  3.5634187E-02
   14.7500  3.3755100E-02  2.2866584E-02  3.5589767E-02
   15.0000  3.4404413E-02  2.2048494E-02  3.5641218E-02
   15.2500  3.5112330E-02  2.1374069E-02  3.5787831E-02
   15.5000  3.5858669E-02  2.0826276E-02  3.6023158E-02
   15.7500  3.6621480E-02  2.0390825E-02  3.6335733E-02
   16.0000  3.7377619E-02  2.0055659E-02  3.6709795E-02
   16.2500  3.8103512E-02  1.9810517E-02  3.7126146E-02
   16.5000  3.8776174E-02  1.9646550E-02  3.7563266E-02
   16.7500  3.9374465E-02  1.9556028E-02  3.7998695E-02
   17.0000  3.9880512E-02  1.9532115E-02  3.8410613E-02
   17.2500  4.0281112E-02  1.9568709E-02  3.8779434E-02
   17.5000  4.0568915E-02  1.9660330E-02  3.9089203E-02
   17.7500  4.0743115E-02  1.9802045E-02  3.9328570E-02
   18.0000  4.0809499E-02  1.9989408E-02  3.9491200E-02
   18.2500  4.0779773E-02  2.0218411E-02  3.9575607E-02
   18.5000  4.0670261E-02  2.0485436E-02  3.9584496E-02
   18.7500  4.0500179E-02  2.0787216E-02  3.9523782E-02
   19.0000  4.0289752E-02  2.1120813E-02  3.9401496E-02
   19.2500  4.0058421E-02  2.1483634E-02  3.9226712E-02
   19.5000  3.9823338E-02  2.1873456E-02  3.9008635E-02
   19.7500  3.9598302E-02  2.2288413E-02  3.8755939E-02
   20.0000  3.9393260E-02  2.2726807E-02  3.8476497E-02
   21.0000  3.8854667E-02  2.4669679E-02  3.7227806E-02
   22.0000  3.8679569E-02  2.6806438E-02  3.5988152E-02
   23.0000  3.8482627E-02  2.9009412E-02  3.4853565E-02
   24.0000  3.7884860E-02  3.1114517E-02  3.3782828E-02
   25.0000  3.6708818E-02  3.2907472E-02  3.2694935E-02
   26.0000  3.5000144E-02  3.4183235E-02  3.1543029E-02
   27.0000  3.2973354E-02  3.4831710E-02  3.0357482E-02
   28.0000  3.0916525E-02  3.4879378E-02  2.9237002E-02
   29.0000  2.9088682E-02  3.4469743E-02  2.8295766E-02
   30.0000  2.7639614E-02  3.3794471E-02  2.7599778E-02
   31.0000  2.6570944E-02  3.2998854E-02  2.7129662E-02
   32.0000  2.5809946E-02  3.2162461E-02  2.6816696E-02
   33.0000  2.5273057E-02  3.1316620E-02  2.6585734E-02
   34.0000  2.4883149E-02  3.0462982E-02  2.6375505E-02
   35.0000  2.4570960E-02  2.9591227E-02  2.6145392E-02
   36.0000  2.4275949E-02  2.8693674E-02  2.5876379E-02
   37.0000  2.3953581E-02  2.7776010E-02  2.5569986E-02
   38.0000  2.3588366E-02  2.6865628E-02  2.5244847E-02
   39.0000  2.3205244E-02  2.6020405E-02  2.4931855E-02
   40.0000  2.2865516E-02  2.5328524E-02  2.4670304E-02
