    Energy   (100,001)      (010,001)      (001,110)   
  -25.0000  1.6911459E-04  1.8442958E-04  1.8454062E-04
  -24.0000  1.7542739E-04  1.9146631E-04  1.9136781E-04
  -23.0000  1.8217963E-04  1.9901449E-04  1.9867906E-04
  -22.0000  1.8941713E-04  2.0713053E-04  2.0652668E-04
  -21.0000  1.9719216E-04  2.1587935E-04  2.1497069E-04
  -20.0000  2.0556464E-04  2.2533599E-04  2.2408036E-04
  -19.0000  2.1460358E-04  2.3558767E-04  2.3393598E-04
  -18.0000  2.2438880E-04  2.4673631E-04  2.4463120E-04
  -17.0000  2.3501317E-04  2.5890176E-04  2.5627587E-04
  -16.0000  2.4658534E-04  2.7222588E-04  2.6899971E-04
  -15.0000  2.5923322E-04  2.8687773E-04  2.8295702E-04
  -14.0000  2.7310840E-04  3.0306038E-04  2.9833272E-04
  -13.0000  2.8839186E-04  3.2101982E-04  3.1535041E-04
  -12.0000  3.0530143E-04  3.4105674E-04  3.3428297E-04
  -11.0000  3.2410160E-04  3.6354250E-04  3.5546695E-04
  -10.0000  3.4511667E-04  3.8894084E-04  3.7932229E-04
  -9.00000  3.6874870E-04  4.1783824E-04  4.0637994E-04
  -8.00000  3.9550223E-04  4.5098678E-04  4.3732120E-04
  -7.00000  4.2601932E-04  4.8936637E-04  4.7303530E-04
  -6.00000  4.6113003E-04  5.3427702E-04  5.1470574E-04
  -5.00000  5.0192747E-04  5.8747971E-04  5.6394406E-04
  -4.00000  5.4988247E-04  6.5141868E-04  6.2300459E-04
  -3.00000  6.0702587E-04  7.2958614E-04  6.9514492E-04
  -2.00000  6.7625156E-04  8.2714989E-04  7.8526331E-04
  -1.00000  7.6185036E-04  9.5209918E-04  9.0110228E-04
   0.00000  8.7052371E-04  1.1175030E-03  1.0557184E-03
   1.00000  1.0135167E-03  1.3464409E-03  1.2731373E-03
   2.00000  1.2118220E-03  1.6844561E-03  1.6034169E-03
   3.00000  1.5121421E-03  2.2388115E-03  2.1727938E-03
   4.00000  2.0578446E-03  3.3552344E-03  3.4198979E-03
   5.00000  3.4509594E-03  6.5425335E-03  7.3736687E-03
   5.20000  3.8718517E-03  7.5569730E-03  8.6817228E-03
   5.40000  4.2898426E-03  8.5840639E-03  1.0023789E-02
   5.60000  4.6967052E-03  9.5971797E-03  1.1366445E-02
   5.80000  5.1020859E-03  1.0609422E-02  1.2718256E-02
   6.00000  5.5206496E-03  1.1646759E-02  1.4088875E-02
   6.20000  5.9667053E-03  1.2735905E-02  1.5469767E-02
   6.40000  6.4538921E-03  1.3902355E-02  1.6831922E-02
   6.60000  6.9961148E-03  1.5170765E-02  1.8132281E-02
   6.80000  7.6079595E-03  1.6564585E-02  1.9324516E-02
   7.00000  8.3040493E-03  1.8104698E-02  2.0369624E-02
   7.20000  9.0976389E-03  1.9808166E-02  2.1242130E-02
   7.40000  9.9992158E-03  2.1688073E-02  2.1931387E-02
   7.60000  1.1015837E-02  2.3754469E-02  2.2441181E-02
   7.80000  1.2151619E-02  2.6015636E-02  2.2790955E-02
   8.00000  1.3409275E-02  2.8478533E-02  2.3018399E-02
   8.20000  1.4791737E-02  3.1147262E-02  2.3179709E-02
   8.40000  1.6301973E-02  3.4019145E-02  2.3344104E-02
   8.60000  1.7939362E-02  3.7078654E-02  2.3582357E-02
   8.80000  1.9693132E-02  4.0289939E-02  2.3952802E-02
   9.00000  2.1536154E-02  4.3589367E-02  2.4489749E-02
   9.20000  2.3423125E-02  4.6880239E-02  2.5197759E-02
   9.40000  2.5295146E-02  5.0032441E-02  2.6052887E-02
   9.60000  2.7089575E-02  5.2889176E-02  2.7010347E-02
   9.80000  2.8751797E-02  5.5281169E-02  2.8016591E-02
   10.0000  3.0244329E-02  5.7047896E-02  2.9021989E-02
   10.2500  3.1846255E-02  5.8189817E-02  3.0222711E-02
   10.5000  3.3157566E-02  5.8046928E-02  3.1326532E-02
   10.7500  3.4201285E-02  5.6683831E-02  3.2322470E-02
   11.0000  3.5006630E-02  5.4325583E-02  3.3210602E-02
   11.2500  3.5603293E-02  5.1288911E-02  3.3989643E-02
   11.5000  3.6023134E-02  4.7900494E-02  3.4653376E-02
   11.7500  3.6300920E-02  4.4435891E-02  3.5193319E-02
   12.0000  3.6472300E-02  4.1091948E-02  3.5603029E-02
   12.2500  3.6572575E-02  3.7987341E-02  3.5881137E-02
   12.5000  3.6635830E-02  3.5178725E-02  3.6033888E-02
   12.7500  3.6691751E-02  3.2681595E-02  3.6075492E-02
   13.0000  3.6761871E-02  3.0488485E-02  3.6024820E-02
   13.2500  3.6859340E-02  2.8580446E-02  3.5902244E-02
   13.5000  3.6991294E-02  2.6933153E-02  3.5728437E-02
   13.7500  3.7161046E-02  2.5520452E-02  3.5523767E-02
   14.0000  3.7369244E-02  2.4316561E-02  3.5307342E-02
   14.2500  3.7614213E-02  2.3297333E-02  3.5095703E-02
   14.5000  3.7891814E-02  2.2440898E-02  3.4901534E-02
   14.7500  3.8195170E-02  2.1727901E-02  3.4732780E-02
   15.0000  3.8514552E-02  2.1141508E-02  3.4592351E-02
   15.2500  3.8837617E-02  2.0667263E-02  3.4478471E-02
   15.5000  3.9150098E-02  2.0292862E-02  3.4385560E-02
   15.7500  3.9436927E-02  2.0007871E-02  3.4305481E-02
   16.0000  3.9683680E-02  1.9803439E-02  3.4228964E-02
   16.2500  3.9878126E-02  1.9672022E-02  3.4146993E-02
   16.5000  4.0011615E-02  1.9607130E-02  3.4051970E-02
   16.7500  4.0080027E-02  1.9603127E-02  3.3938516E-02
   17.0000  4.0084086E-02  1.9655058E-02  3.3803859E-02
   17.2500  4.0028971E-02  1.9758531E-02  3.3647828E-02
   17.5000  3.9923322E-02  1.9909619E-02  3.3472527E-02
   17.7500  3.9777852E-02  2.0104789E-02  3.3281810E-02
   18.0000  3.9603836E-02  2.0340848E-02  3.3080677E-02
   18.2500  3.9411718E-02  2.0614895E-02  3.2874668E-02
   18.5000  3.9210025E-02  2.0924286E-02  3.2669330E-02
   18.7500  3.9004671E-02  2.1266607E-02  3.2469789E-02
   19.0000  3.8798667E-02  2.1639675E-02  3.2280421E-02
   19.2500  3.8592197E-02  2.2041557E-02  3.2104636E-02
   19.5000  3.8382983E-02  2.2470604E-02  3.1944756E-02
   19.7500  3.8166868E-02  2.2925421E-02  3.1801969E-02
   20.0000  3.7938491E-02  2.3404630E-02  3.1676387E-02
   21.0000  3.6788491E-02  2.5518815E-02  3.1321151E-02
   22.0000  3.5101239E-02  2.7806313E-02  3.1094091E-02
   23.0000  3.2997799E-02  3.0047288E-02  3.0830518E-02
   24.0000  3.0882746E-02  3.1977698E-02  3.0411576E-02
   25.0000  2.9131354E-02  3.3364807E-02  2.9800232E-02
   26.0000  2.7883396E-02  3.4105407E-02  2.9040988E-02
   27.0000  2.7039702E-02  3.4250855E-02  2.8236820E-02
   28.0000  2.6390506E-02  3.3942731E-02  2.7503871E-02
   29.0000  2.5775831E-02  3.3331674E-02  2.6925803E-02
   30.0000  2.5157834E-02  3.2540937E-02  2.6534049E-02
   31.0000  2.4572406E-02  3.1670938E-02  2.6311152E-02
   32.0000  2.4054623E-02  3.0801686E-02  2.6206417E-02
   33.0000  2.3608849E-02  2.9970945E-02  2.6159894E-02
   34.0000  2.3218102E-02  2.9182852E-02  2.6122006E-02
   35.0000  2.2861790E-02  2.8424131E-02  2.6061673E-02
   36.0000  2.2528737E-02  2.7674552E-02  2.5965441E-02
   37.0000  2.2221980E-02  2.6919273E-02  2.5832322E-02
   38.0000  2.1954628E-02  2.6163727E-02  2.5669650E-02
   39.0000  2.1740109E-02  2.5448910E-02  2.5494584E-02
   40.0000  2.1582452E-02  2.4853919E-02  2.5337817E-02
