    Energy   (100,001)      (010,001)      (001,110)   
  -25.0000  1.6279678E-04  1.8200124E-04  1.7044449E-04
  -24.0000  1.6869663E-04  1.8887059E-04  1.7669577E-04
  -23.0000  1.7499008E-04  1.9623153E-04  1.8337494E-04
  -22.0000  1.8171619E-04  2.0413729E-04  1.9052598E-04
  -21.0000  1.8891929E-04  2.1264897E-04  1.9819899E-04
  -20.0000  1.9664980E-04  2.2183699E-04  2.0645133E-04
  -19.0000  2.0496539E-04  2.3178296E-04  2.1534893E-04
  -18.0000  2.1393225E-04  2.4258193E-04  2.2496799E-04
  -17.0000  2.2362675E-04  2.5434526E-04  2.3539699E-04
  -16.0000  2.3413746E-04  2.6720424E-04  2.4673933E-04
  -15.0000  2.4556764E-04  2.8131467E-04  2.5911653E-04
  -14.0000  2.5803842E-04  2.9686286E-04  2.7267243E-04
  -13.0000  2.7169281E-04  3.1407329E-04  2.8757851E-04
  -12.0000  2.8670086E-04  3.3321885E-04  3.0404089E-04
  -11.0000  3.0326634E-04  3.5463448E-04  3.2230957E-04
  -10.0000  3.2163557E-04  3.7873554E-04  3.4269081E-04
  -9.00000  3.4210912E-04  4.0604331E-04  3.6556399E-04
  -8.00000  3.6505773E-04  4.3722051E-04  3.9140503E-04
  -7.00000  3.9094423E-04  4.7312226E-04  4.2081963E-04
  -6.00000  4.2035448E-04  5.1487051E-04  4.5459142E-04
  -5.00000  4.5404195E-04  5.6396600E-04  4.9375405E-04
  -4.00000  4.9299403E-04  6.2246162E-04  5.3970225E-04
  -3.00000  5.3853402E-04  6.9324121E-04  5.9437029E-04
  -2.00000  5.9248498E-04  7.8048825E-04  6.6053261E-04
  -1.00000  6.5744797E-04  8.9051926E-04  7.4234138E-04
   0.00000  7.3731048E-04  1.0333772E-03  8.4636435E-04
   1.00000  8.3827499E-04  1.2261938E-03  9.8380097E-04
   2.00000  9.7127543E-04  1.5013626E-03  1.1759215E-03
   3.00000  1.1591465E-03  1.9312781E-03  1.4704511E-03
   4.00000  1.4677151E-03  2.7354729E-03  2.0097397E-03
   5.00000  2.1635518E-03  4.8312330E-03  3.3910674E-03
   5.20000  2.3684262E-03  5.4896028E-03  3.8644166E-03
   5.40000  2.5738403E-03  6.1676187E-03  4.4022940E-03
   5.60000  2.7757120E-03  6.8531292E-03  5.0082216E-03
   5.80000  2.9783867E-03  7.5574695E-03  5.6918214E-03
   6.00000  3.1899104E-03  8.2995151E-03  6.4591388E-03
   6.20000  3.4198889E-03  9.0977922E-03  7.3045648E-03
   6.40000  3.6784892E-03  9.9680942E-03  8.2047482E-03
   6.60000  3.9744929E-03  1.0922486E-02  9.1158484E-03
   6.80000  4.3121252E-03  1.1968679E-02  9.9776651E-03
   7.00000  4.6888186E-03  1.3110278E-02  1.0726829E-02
   7.20000  5.0967922E-03  1.4348524E-02  1.1315599E-02
   7.40000  5.5280973E-03  1.5685442E-02  1.1727185E-02
   7.60000  5.9791320E-03  1.7127285E-02  1.1979597E-02
   7.80000  6.4517250E-03  1.8686735E-02  1.2117673E-02
   8.00000  6.9515678E-03  2.0383489E-02  1.2199741E-02
   8.20000  7.4861369E-03  2.2243875E-02  1.2285802E-02
   8.40000  8.0632714E-03  2.4300076E-02  1.2430356E-02
   8.60000  8.6905051E-03  2.6589052E-02  1.2679347E-02
   8.80000  9.3748853E-03  2.9150780E-02  1.3069399E-02
   9.00000  1.0123039E-02  3.2025161E-02  1.3627756E-02
   9.20000  1.0941318E-02  3.5246809E-02  1.4372117E-02
   9.40000  1.1835917E-02  3.8836804E-02  1.5310188E-02
   9.60000  1.2812891E-02  4.2790488E-02  1.6439314E-02
   9.80000  1.3878016E-02  4.7060793E-02  1.7746810E-02
   10.0000  1.5036379E-02  5.1537676E-02  1.9211473E-02
   10.2500  1.6620701E-02  5.7120855E-02  2.1221844E-02
   10.5000  1.8357427E-02  6.2142814E-02  2.3378865E-02
   10.7500  2.0238566E-02  6.5883023E-02  2.5631319E-02
   11.0000  2.2242919E-02  6.7678324E-02  2.7936749E-02
   11.2500  2.4332722E-02  6.7192636E-02  3.0257117E-02
   11.5000  2.6453158E-02  6.4581295E-02  3.2551241E-02
   11.7500  2.8536320E-02  6.0415850E-02  3.4767794E-02
   12.0000  3.0509213E-02  5.5428116E-02  3.6839144E-02
   12.2500  3.2304377E-02  5.0261262E-02  3.8680863E-02
   12.5000  3.3871240E-02  4.5351613E-02  4.0203748E-02
   12.7500  3.5184672E-02  4.0930361E-02  4.1333454E-02
   13.0000  3.6247485E-02  3.7079119E-02  4.2028042E-02
   13.2500  3.7086924E-02  3.3790259E-02  4.2288047E-02
   13.5000  3.7747619E-02  3.1012295E-02  4.2157354E-02
   13.7500  3.8282486E-02  2.8678183E-02  4.1714655E-02
   14.0000  3.8742124E-02  2.6720744E-02  4.1057236E-02
   14.2500  3.9166520E-02  2.5079793E-02  4.0283205E-02
   14.5000  3.9582926E-02  2.3704382E-02  3.9479099E-02
   14.7500  4.0007820E-02  2.2552632E-02  3.8714216E-02
   15.0000  4.0449320E-02  2.1590634E-02  3.8039477E-02
   15.2500  4.0908886E-02  2.0791160E-02  3.7488683E-02
   15.5000  4.1382462E-02  2.0132413E-02  3.7080840E-02
   15.7500  4.1861345E-02  1.9596939E-02  3.6822668E-02
   16.0000  4.2332944E-02  1.9170704E-02  3.6710839E-02
   16.2500  4.2781563E-02  1.8842348E-02  3.6733798E-02
   16.5000  4.3189354E-02  1.8602580E-02  3.6873251E-02
   16.7500  4.3537507E-02  1.8443707E-02  3.7105526E-02
   17.0000  4.3807706E-02  1.8359271E-02  3.7403016E-02
   17.2500  4.3983791E-02  1.8343767E-02  3.7735858E-02
   17.5000  4.4053450E-02  1.8392419E-02  3.8073916E-02
   17.7500  4.4009723E-02  1.8501021E-02  3.8388933E-02
   18.0000  4.3852062E-02  1.8665805E-02  3.8656622E-02
   18.2500  4.3586723E-02  1.8883351E-02  3.8858381E-02
   18.5000  4.3226365E-02  1.9150524E-02  3.8982335E-02
   18.7500  4.2788901E-02  1.9464440E-02  3.9023548E-02
   19.0000  4.2295744E-02  1.9822458E-02  3.8983399E-02
   19.2500  4.1769725E-02  2.0222211E-02  3.8868287E-02
   19.5000  4.1232986E-02  2.0661643E-02  3.8687956E-02
   19.7500  4.0705205E-02  2.1138980E-02  3.8453828E-02
   20.0000  4.0202580E-02  2.1652473E-02  3.8177748E-02
   21.0000  3.8653876E-02  2.4013820E-02  3.6875985E-02
   22.0000  3.7972271E-02  2.6714785E-02  3.5608672E-02
   23.0000  3.7793148E-02  2.9535813E-02  3.4501399E-02
   24.0000  3.7513849E-02  3.2166347E-02  3.3482497E-02
   25.0000  3.6674237E-02  3.4237649E-02  3.2470178E-02
   26.0000  3.5147612E-02  3.5528068E-02  3.1424488E-02
   27.0000  3.3142777E-02  3.5998747E-02  3.0354642E-02
   28.0000  3.1041724E-02  3.5757377E-02  2.9314001E-02
   29.0000  2.9171816E-02  3.5001721E-02  2.8381065E-02
   30.0000  2.7683502E-02  3.3948991E-02  2.7621442E-02
   31.0000  2.6574352E-02  3.2782473E-02  2.7051802E-02
   32.0000  2.5766595E-02  3.1626819E-02  2.6635218E-02
   33.0000  2.5163720E-02  3.0545962E-02  2.6305220E-02
   34.0000  2.4675177E-02  2.9554485E-02  2.5993567E-02
   35.0000  2.4224186E-02  2.8636167E-02  2.5645639E-02
   36.0000  2.3751414E-02  2.7763422E-02  2.5224584E-02
   37.0000  2.3222006E-02  2.6914608E-02  2.4713332E-02
   38.0000  2.2637242E-02  2.6089531E-02  2.4122041E-02
   39.0000  2.2045176E-02  2.5324044E-02  2.3502983E-02
   40.0000  2.1533693E-02  2.4692751E-02  2.2956690E-02
