    Energy   (100,001)      (010,001)      (001,110)   
  -25.0000  1.6711362E-04  1.8690264E-04  1.7819568E-04
  -24.0000  1.7316389E-04  1.9381730E-04  1.8464818E-04
  -23.0000  1.7962139E-04  2.0122239E-04  1.9154264E-04
  -22.0000  1.8652716E-04  2.0917087E-04  1.9892486E-04
  -21.0000  1.9392789E-04  2.1772353E-04  2.0684709E-04
  -20.0000  2.0187684E-04  2.2695045E-04  2.1536926E-04
  -19.0000  2.1043507E-04  2.3693286E-04  2.2456036E-04
  -18.0000  2.1967293E-04  2.4776538E-04  2.3450026E-04
  -17.0000  2.2967186E-04  2.5955894E-04  2.4528195E-04
  -16.0000  2.4052666E-04  2.7244434E-04  2.5701430E-04
  -15.0000  2.5234833E-04  2.8657692E-04  2.6982556E-04
  -14.0000  2.6526769E-04  3.0214253E-04  2.8386798E-04
  -13.0000  2.7944002E-04  3.1936531E-04  2.9932355E-04
  -12.0000  2.9505102E-04  3.3851800E-04  3.1641172E-04
  -11.0000  3.1232466E-04  3.5993573E-04  3.3539952E-04
  -10.0000  3.3153367E-04  3.8403475E-04  3.5661526E-04
  -9.00000  3.5301363E-04  4.1133834E-04  3.8046716E-04
  -8.00000  3.7718230E-04  4.4251321E-04  4.0746946E-04
  -7.00000  4.0456688E-04  4.7842190E-04  4.3827935E-04
  -6.00000  4.3584287E-04  5.2019975E-04  4.7375098E-04
  -5.00000  4.7189142E-04  5.6937155E-04  5.1501608E-04
  -4.00000  5.1388636E-04  6.2803365E-04  5.6360874E-04
  -3.00000  5.6343148E-04  6.9914995E-04  6.2166569E-04
  -2.00000  6.2278719E-04  7.8705612E-04  6.9226358E-04
  -1.00000  6.9526742E-04  8.9837103E-04  7.8002056E-04
   0.00000  7.8598990E-04  1.0437768E-03  8.9225418E-04
   1.00000  9.0345087E-04  1.2418791E-03  1.0414474E-03
   2.00000  1.0633683E-03  1.5289298E-03  1.2513185E-03
   3.00000  1.3005110E-03  1.9896144E-03  1.5754429E-03
   4.00000  1.7215710E-03  2.8976217E-03  2.1787969E-03
   5.00000  2.7763686E-03  5.4489221E-03  3.7704712E-03
   5.20000  3.0941843E-03  6.2415626E-03  4.2829946E-03
   5.40000  3.4103195E-03  7.0258384E-03  4.8128681E-03
   5.60000  3.7185894E-03  7.7799346E-03  5.3373291E-03
   5.80000  4.0257714E-03  8.5168242E-03  5.8493472E-03
   6.00000  4.3415817E-03  9.2598351E-03  6.3547331E-03
   6.20000  4.6744627E-03  1.0031420E-02  6.8715772E-03
   6.40000  5.0315352E-03  1.0851030E-02  7.4279073E-03
   6.60000  5.4197405E-03  1.1735491E-02  8.0562197E-03
   6.80000  5.8468693E-03  1.2699583E-02  8.7875368E-03
   7.00000  6.3222009E-03  1.3756491E-02  9.6472627E-03
   7.20000  6.8567184E-03  1.4918402E-02  1.0653067E-02
   7.40000  7.4628625E-03  1.6197512E-02  1.1814156E-02
   7.60000  8.1537233E-03  1.7607485E-02  1.3131406E-02
   7.80000  8.9414497E-03  1.9164966E-02  1.4597638E-02
   8.00000  9.8346333E-03  2.0890314E-02  1.6196683E-02
   8.20000  1.0834638E-02  2.2806550E-02  1.7899966E-02
   8.40000  1.1931402E-02  2.4935882E-02  1.9661642E-02
   8.60000  1.3100283E-02  2.7294246E-02  2.1416721E-02
   8.80000  1.4302934E-02  2.9885581E-02  2.3086825E-02
   9.00000  1.5495111E-02  3.2698066E-02  2.4595319E-02
   9.20000  1.6640467E-02  3.5703845E-02  2.5888405E-02
   9.40000  1.7723644E-02  3.8861369E-02  2.6951124E-02
   9.60000  1.8754494E-02  4.2116688E-02  2.7807179E-02
   9.80000  1.9760858E-02  4.5400720E-02  2.8502996E-02
   10.0000  2.0774913E-02  4.8623544E-02  2.9087284E-02
   10.2500  2.2088494E-02  5.2388081E-02  2.9715879E-02
   10.5000  2.3464280E-02  5.5601975E-02  3.0265973E-02
   10.7500  2.4879405E-02  5.7974456E-02  3.0747777E-02
   11.0000  2.6284961E-02  5.9256529E-02  3.1157354E-02
   11.2500  2.7620798E-02  5.9303547E-02  3.1488912E-02
   11.5000  2.8829769E-02  5.8117227E-02  3.1742779E-02
   11.7500  2.9868169E-02  5.5849889E-02  3.1928297E-02
   12.0000  3.0712287E-02  5.2768199E-02  3.2062114E-02
   12.2500  3.1362438E-02  4.9190290E-02  3.2164517E-02
   12.5000  3.1841998E-02  4.5422532E-02  3.2256214E-02
   12.7500  3.2190252E-02  4.1714888E-02  3.2356236E-02
   13.0000  3.2453164E-02  3.8240732E-02  3.2480524E-02
   13.2500  3.2676075E-02  3.5099284E-02  3.2640721E-02
   13.5000  3.2899078E-02  3.2331485E-02  3.2843493E-02
   13.7500  3.3154527E-02  2.9938359E-02  3.3090895E-02
   14.0000  3.3466362E-02  2.7896852E-02  3.3381454E-02
   14.2500  3.3850520E-02  2.6171987E-02  3.3711156E-02
   14.5000  3.4315573E-02  2.4725095E-02  3.4074038E-02
   14.7500  3.4863203E-02  2.3518649E-02  3.4462474E-02
   15.0000  3.5488475E-02  2.2518673E-02  3.4867368E-02
   15.2500  3.6180052E-02  2.1695650E-02  3.5278441E-02
   15.5000  3.6920578E-02  2.1024595E-02  3.5684685E-02
   15.7500  3.7687419E-02  2.0484707E-02  3.6074988E-02
   16.0000  3.8453908E-02  2.0058849E-02  3.6438862E-02
   16.2500  3.9191136E-02  1.9732982E-02  3.6767165E-02
   16.5000  3.9870185E-02  1.9495622E-02  3.7052707E-02
   16.7500  4.0464590E-02  1.9337359E-02  3.7290666E-02
   17.0000  4.0952710E-02  1.9250434E-02  3.7478734E-02
   17.2500  4.1319663E-02  1.9228395E-02  3.7617016E-02
   17.5000  4.1558529E-02  1.9265806E-02  3.7707675E-02
   17.7500  4.1670670E-02  1.9358026E-02  3.7754430E-02
   18.0000  4.1665135E-02  1.9501040E-02  3.7761959E-02
   18.2500  4.1557321E-02  1.9691331E-02  3.7735339E-02
   18.5000  4.1367126E-02  1.9925792E-02  3.7679570E-02
   18.7500  4.1116902E-02  2.0201660E-02  3.7599230E-02
   19.0000  4.0829450E-02  2.0516487E-02  3.7498279E-02
   19.2500  4.0526262E-02  2.0868134E-02  3.7379967E-02
   19.5000  4.0226113E-02  2.1254780E-02  3.7246841E-02
   19.7500  3.9944097E-02  2.1674867E-02  3.7100825E-02
   20.0000  3.9691220E-02  2.2126852E-02  3.6943394E-02
   21.0000  3.9068674E-02  2.4204130E-02  3.6224982E-02
   22.0000  3.8981443E-02  2.6563520E-02  3.5410689E-02
   23.0000  3.8947091E-02  2.8977623E-02  3.4528457E-02
   24.0000  3.8430634E-02  3.1177812E-02  3.3578857E-02
   25.0000  3.7170851E-02  3.2914645E-02  3.2562431E-02
   26.0000  3.5263665E-02  3.4031811E-02  3.1499873E-02
   27.0000  3.3035713E-02  3.4501683E-02  3.0431603E-02
   28.0000  3.0850420E-02  3.4416394E-02  2.9420214E-02
   29.0000  2.8963430E-02  3.3942581E-02  2.8539691E-02
   30.0000  2.7455446E-02  3.3248548E-02  2.7829101E-02
   31.0000  2.6297633E-02  3.2462807E-02  2.7288853E-02
   32.0000  2.5423196E-02  3.1664879E-02  2.6891868E-02
   33.0000  2.4760090E-02  3.0891961E-02  2.6594548E-02
   34.0000  2.4244116E-02  3.0152288E-02  2.6349904E-02
   35.0000  2.3822181E-02  2.9439109E-02  2.6117347E-02
   36.0000  2.3452454E-02  2.8743204E-02  2.5867692E-02
   37.0000  2.3105388E-02  2.8062515E-02  2.5585099E-02
   38.0000  2.2767165E-02  2.7408577E-02  2.5269277E-02
   39.0000  2.2445525E-02  2.6813444E-02  2.4941954E-02
   40.0000  2.2171205E-02  2.6330731E-02  2.4652127E-02
