    Energy   (100,001)      (010,001)      (001,110)   
  -25.0000  1.7530584E-04  1.8093845E-04  1.8359800E-04
  -24.0000  1.8141063E-04  1.8801296E-04  1.9013788E-04
  -23.0000  1.8791866E-04  1.9560925E-04  1.9712376E-04
  -22.0000  1.9487031E-04  2.0378542E-04  2.0460199E-04
  -21.0000  2.0231146E-04  2.1260833E-04  2.1262554E-04
  -20.0000  2.1029452E-04  2.2215535E-04  2.2125518E-04
  -19.0000  2.1887952E-04  2.3251645E-04  2.3056099E-04
  -18.0000  2.2813568E-04  2.4379689E-04  2.4062423E-04
  -17.0000  2.3814313E-04  2.5612049E-04  2.5153960E-04
  -16.0000  2.4899519E-04  2.6963394E-04  2.6341821E-04
  -15.0000  2.6080120E-04  2.8451219E-04  2.7639121E-04
  -14.0000  2.7369009E-04  3.0096555E-04  2.9061459E-04
  -13.0000  2.8781504E-04  3.1924892E-04  3.0627531E-04
  -12.0000  3.0335942E-04  3.3967413E-04  3.2359944E-04
  -11.0000  3.2054468E-04  3.6262655E-04  3.4286292E-04
  -10.0000  3.3964091E-04  3.8858771E-04  3.6440619E-04
  -9.00000  3.6098101E-04  4.1816692E-04  3.8865429E-04
  -8.00000  3.8498041E-04  4.5214598E-04  4.1614501E-04
  -7.00000  4.1216472E-04  4.9154386E-04  4.4756918E-04
  -6.00000  4.4320972E-04  5.3771281E-04  4.8382981E-04
  -5.00000  4.7900056E-04  5.9248472E-04  5.2613117E-04
  -4.00000  5.2072259E-04  6.5840193E-04  5.7611753E-04
  -3.00000  5.7000607E-04  7.3909509E-04  6.3609772E-04
  -2.00000  6.2916866E-04  8.3993174E-04  7.0942552E-04
  -1.00000  7.0164768E-04  9.6919641E-04  8.0118196E-04
   0.00000  7.9283607E-04  1.1404049E-03  9.1949029E-04
   1.00000  9.1188880E-04  1.3773231E-03  1.0783032E-03
   2.00000  1.0762951E-03  1.7265253E-03  1.3041476E-03
   3.00000  1.3265721E-03  2.2964695E-03  1.6560644E-03
   4.00000  1.7949511E-03  3.4305031E-03  2.3074414E-03
   5.00000  3.0629474E-03  6.6077775E-03  3.9572652E-03
   5.20000  3.4453273E-03  7.6265700E-03  4.4939480E-03
   5.40000  3.8158937E-03  8.6756901E-03  5.0796664E-03
   5.60000  4.1654112E-03  9.7340127E-03  5.7173421E-03
   5.80000  4.5018025E-03  1.0815978E-02  6.4240544E-03
   6.00000  4.8363793E-03  1.1945508E-02  7.2201464E-03
   6.20000  5.1785489E-03  1.3143935E-02  8.1240010E-03
   6.40000  5.5356135E-03  1.4428086E-02  9.1508941E-03
   6.60000  5.9136197E-03  1.5811940E-02  1.0313150E-02
   6.80000  6.3180089E-03  1.7309041E-02  1.1620006E-02
   7.00000  6.7539070E-03  1.8934331E-02  1.3075975E-02
   7.20000  7.2261401E-03  2.0704865E-02  1.4676951E-02
   7.40000  7.7390931E-03  2.2639713E-02  1.6404006E-02
   7.60000  8.2964798E-03  2.4759724E-02  1.8215659E-02
   7.80000  8.9011032E-03  2.7087429E-02  2.0041048E-02
   8.00000  9.5547776E-03  2.9646753E-02  2.1779618E-02
   8.20000  1.0258614E-02  3.2461341E-02  2.3314053E-02
   8.40000  1.1013714E-02  3.5549849E-02  2.4537400E-02
   8.60000  1.1822022E-02  3.8917225E-02  2.5384333E-02
   8.80000  1.2686936E-02  4.2542627E-02  2.5850389E-02
   9.00000  1.3613383E-02  4.6366058E-02  2.5989598E-02
   9.20000  1.4607343E-02  5.0276811E-02  2.5894346E-02
   9.40000  1.5674998E-02  5.4107737E-02  2.5669330E-02
   9.60000  1.6821734E-02  5.7639521E-02  2.5410000E-02
   9.80000  1.8051118E-02  6.0618312E-02  2.5189975E-02
   10.0000  1.9363673E-02  6.2789191E-02  2.5057146E-02
   10.2500  2.1114230E-02  6.4056665E-02  2.5050228E-02
   10.5000  2.2964006E-02  6.3551723E-02  2.5233967E-02
   10.7500  2.4868196E-02  6.1395462E-02  2.5608541E-02
   11.0000  2.6758833E-02  5.7980215E-02  2.6167584E-02
   11.2500  2.8549017E-02  5.3824093E-02  2.6893585E-02
   11.5000  3.0145864E-02  4.9412784E-02  2.7749382E-02
   11.7500  3.1470779E-02  4.5107291E-02  2.8677559E-02
   12.0000  3.2479336E-02  4.1127613E-02  2.9609373E-02
   12.2500  3.3170871E-02  3.7577943E-02  3.0477175E-02
   12.5000  3.3584386E-02  3.4483294E-02  3.1225843E-02
   12.7500  3.3783671E-02  3.1823187E-02  3.1820751E-02
   13.0000  3.3839550E-02  2.9556316E-02  3.2251015E-02
   13.2500  3.3817140E-02  2.7635092E-02  3.2528155E-02
   13.5000  3.3769726E-02  2.6012955E-02  3.2680729E-02
   13.7500  3.3737400E-02  2.4647654E-02  3.2746043E-02
   14.0000  3.3748341E-02  2.3502439E-02  3.2762262E-02
   14.2500  3.3820939E-02  2.2546185E-02  3.2763949E-02
   14.5000  3.3965745E-02  2.1753003E-02  3.2780343E-02
   14.7500  3.4186938E-02  2.1101587E-02  3.2834624E-02
   15.0000  3.4483270E-02  2.0574479E-02  3.2943511E-02
   15.2500  3.4848606E-02  2.0157363E-02  3.3117148E-02
   15.5000  3.5272262E-02  1.9838431E-02  3.3359266E-02
   15.7500  3.5739305E-02  1.9607847E-02  3.3667582E-02
   16.0000  3.6231008E-02  1.9457310E-02  3.4034424E-02
   16.2500  3.6725577E-02  1.9379709E-02  3.4447587E-02
   16.5000  3.7199222E-02  1.9368852E-02  3.4891431E-02
   16.7500  3.7627607E-02  1.9419266E-02  3.5348191E-02
   17.0000  3.7987607E-02  1.9526036E-02  3.5799415E-02
   17.2500  3.8259220E-02  1.9684687E-02  3.6227407E-02
   17.5000  3.8427405E-02  1.9891083E-02  3.6616495E-02
   17.7500  3.8483561E-02  2.0141348E-02  3.6953998E-02
   18.0000  3.8426389E-02  2.0431807E-02  3.7230790E-02
   18.2500  3.8261959E-02  2.0758940E-02  3.7441441E-02
   18.5000  3.8002965E-02  2.1119356E-02  3.7584002E-02
   18.7500  3.7667275E-02  2.1509792E-02  3.7659516E-02
   19.0000  3.7276023E-02  2.1927146E-02  3.7671360E-02
   19.2500  3.6851505E-02  2.2368539E-02  3.7624530E-02
   19.5000  3.6415174E-02  2.2831402E-02  3.7524949E-02
   19.7500  3.5986013E-02  2.3313496E-02  3.7378907E-02
   20.0000  3.5579620E-02  2.3812703E-02  3.7192756E-02
   21.0000  3.4383537E-02  2.5922957E-02  3.6173491E-02
   22.0000  3.4002232E-02  2.8065067E-02  3.4950639E-02
   23.0000  3.4114234E-02  3.0058746E-02  3.3691370E-02
   24.0000  3.4204181E-02  3.1728375E-02  3.2454052E-02
   25.0000  3.3921436E-02  3.2929059E-02  3.1263609E-02
   26.0000  3.3245203E-02  3.3585853E-02  3.0155956E-02
   27.0000  3.2393926E-02  3.3716005E-02  2.9188109E-02
   28.0000  3.1553333E-02  3.3416648E-02  2.8421170E-02
   29.0000  3.0738088E-02  3.2821230E-02  2.7894107E-02
   30.0000  2.9909112E-02  3.2051937E-02  2.7605489E-02
   31.0000  2.9093938E-02  3.1193930E-02  2.7510810E-02
   32.0000  2.8357987E-02  3.0294470E-02  2.7536843E-02
   33.0000  2.7739633E-02  2.9378753E-02  2.7605159E-02
   34.0000  2.7236715E-02  2.8461476E-02  2.7652111E-02
   35.0000  2.6826148E-02  2.7541657E-02  2.7638248E-02
   36.0000  2.6481744E-02  2.6614417E-02  2.7544052E-02
   37.0000  2.6181885E-02  2.5685024E-02  2.7364226E-02
   38.0000  2.5912774E-02  2.4778448E-02  2.7109442E-02
   39.0000  2.5672703E-02  2.3948628E-02  2.6815224E-02
   40.0000  2.5475337E-02  2.3275613E-02  2.6545396E-02
