    Energy   (100,001)      (010,001)      (001,110)   
  -25.0000  1.6499617E-04  1.8003274E-04  1.7131845E-04
  -24.0000  1.7132689E-04  1.8692982E-04  1.7784220E-04
  -23.0000  1.7810569E-04  1.9432712E-04  1.8482784E-04
  -22.0000  1.8537989E-04  2.0227950E-04  1.9232432E-04
  -21.0000  1.9320360E-04  2.1085008E-04  2.0038758E-04
  -20.0000  2.0163892E-04  2.2011171E-04  2.0908190E-04
  -19.0000  2.1075752E-04  2.3014899E-04  2.1848147E-04
  -18.0000  2.2064246E-04  2.4106067E-04  2.2867232E-04
  -17.0000  2.3139059E-04  2.5296273E-04  2.3975482E-04
  -16.0000  2.4311550E-04  2.6599222E-04  2.5184675E-04
  -15.0000  2.5595126E-04  2.8031228E-04  2.6508718E-04
  -14.0000  2.7005720E-04  2.9611852E-04  2.7964153E-04
  -13.0000  2.8562417E-04  3.1364743E-04  2.9570804E-04
  -12.0000  3.0288266E-04  3.3318755E-04  3.1352632E-04
  -11.0000  3.2211364E-04  3.5509444E-04  3.3338867E-04
  -10.0000  3.4366313E-04  3.7981101E-04  3.5565542E-04
  -9.00000  3.6796217E-04  4.0789585E-04  3.8077592E-04
  -8.00000  3.9555465E-04  4.4006309E-04  4.0931790E-04
  -7.00000  4.2713702E-04  4.7724000E-04  4.4200949E-04
  -6.00000  4.6361603E-04  5.2065194E-04  4.7980068E-04
  -5.00000  5.0619545E-04  5.7195147E-04  5.2395597E-04
  -4.00000  5.5651022E-04  6.3342080E-04  5.7619907E-04
  -3.00000  6.1684231E-04  7.0830184E-04  6.3894802E-04
  -2.00000  6.9048490E-04  8.0136024E-04  7.1571775E-04
  -1.00000  7.8239414E-04  9.1990749E-04  8.1185508E-04
   0.00000  9.0044825E-04  1.0757998E-03  9.3599930E-04
   1.00000  1.0581451E-03  1.2897710E-03  1.1033383E-03
   2.00000  1.2812998E-03  1.6023182E-03  1.3441605E-03
   3.00000  1.6288744E-03  2.1079824E-03  1.7326210E-03
   4.00000  2.2861123E-03  3.1107600E-03  2.5288633E-03
   5.00000  4.0439892E-03  5.9290029E-03  4.8937319E-03
   5.20000  4.5872009E-03  6.8030201E-03  5.5514489E-03
   5.40000  5.1322745E-03  7.6683817E-03  6.1199399E-03
   5.60000  5.6686556E-03  8.5037717E-03  6.5967515E-03
   5.80000  6.2085533E-03  9.3270682E-03  7.0271813E-03
   6.00000  6.7711037E-03  1.0167372E-02  7.4585585E-03
   6.20000  7.3752779E-03  1.1052171E-02  7.9232389E-03
   6.40000  8.0385155E-03  1.2005282E-02  8.4391517E-03
   6.60000  8.7767604E-03  1.3048094E-02  9.0146644E-03
   6.80000  9.6043981E-03  1.4201186E-02  9.6530617E-03
   7.00000  1.0533823E-02  1.5485542E-02  1.0356050E-02
   7.20000  1.1574596E-02  1.6923285E-02  1.1126840E-02
   7.40000  1.2731986E-02  1.8537955E-02  1.1973046E-02
   7.60000  1.4004616E-02  2.0353981E-02  1.2908723E-02
   7.80000  1.5381359E-02  2.2394963E-02  1.3954295E-02
   8.00000  1.6838750E-02  2.4681311E-02  1.5133593E-02
   8.20000  1.8341433E-02  2.7228452E-02  1.6468537E-02
   8.40000  1.9848063E-02  3.0046196E-02  1.7973023E-02
   8.60000  2.1322333E-02  3.3138279E-02  1.9647519E-02
   8.80000  2.2744039E-02  3.6499118E-02  2.1475201E-02
   9.00000  2.4113200E-02  4.0104641E-02  2.3419947E-02
   9.20000  2.5444712E-02  4.3897397E-02  2.5426811E-02
   9.40000  2.6757939E-02  4.7770856E-02  2.7426169E-02
   9.60000  2.8068053E-02  5.1560645E-02  2.9342441E-02
   9.80000  2.9382606E-02  5.5049750E-02  3.1106141E-02
   10.0000  3.0701178E-02  5.7990789E-02  3.2665910E-02
   10.2500  3.2338237E-02  6.0533846E-02  3.4292267E-02
   10.5000  3.3916992E-02  6.1505355E-02  3.5567210E-02
   10.7500  3.5363486E-02  6.0810425E-02  3.6540166E-02
   11.0000  3.6592875E-02  5.8635837E-02  3.7279132E-02
   11.2500  3.7530977E-02  5.5376406E-02  3.7849592E-02
   11.5000  3.8134886E-02  5.1502326E-02  3.8301656E-02
   11.7500  3.8403938E-02  4.7437915E-02  3.8665147E-02
   12.0000  3.8377195E-02  4.3495541E-02  3.8951735E-02
   12.2500  3.8120226E-02  3.9865198E-02  3.9162144E-02
   12.5000  3.7708186E-02  3.6635963E-02  3.9294646E-02
   12.7500  3.7212225E-02  3.3827216E-02  3.9351820E-02
   13.0000  3.6692066E-02  3.1417395E-02  3.9344194E-02
   13.2500  3.6193501E-02  2.9365441E-02  3.9290463E-02
   13.5000  3.5748162E-02  2.7624614E-02  3.9214944E-02
   13.7500  3.5374602E-02  2.6150247E-02  3.9143779E-02
   14.0000  3.5080796E-02  2.4902889E-02  3.9101403E-02
   14.2500  3.4867073E-02  2.3848855E-02  3.9107741E-02
   14.5000  3.4728388E-02  2.2959882E-02  3.9176114E-02
   14.7500  3.4655800E-02  2.2212550E-02  3.9311850E-02
   15.0000  3.4637490E-02  2.1587650E-02  3.9511622E-02
   15.2500  3.4659565E-02  2.1069547E-02  3.9763490E-02
   15.5000  3.4706878E-02  2.0645582E-02  4.0047725E-02
   15.7500  3.4763924E-02  2.0305546E-02  4.0338477E-02
   16.0000  3.4815845E-02  2.0041196E-02  4.0606319E-02
   16.2500  3.4849521E-02  1.9845839E-02  4.0821513E-02
   16.5000  3.4854632E-02  1.9713975E-02  4.0957580E-02
   16.7500  3.4824575E-02  1.9640985E-02  4.0994568E-02
   17.0000  3.4757069E-02  1.9622874E-02  4.0921341E-02
   17.2500  3.4654330E-02  1.9656073E-02  4.0736417E-02
   17.5000  3.4522755E-02  1.9737298E-02  4.0447258E-02
   17.7500  3.4372164E-02  1.9863460E-02  4.0068318E-02
   18.0000  3.4214723E-02  2.0031634E-02  3.9618419E-02
   18.2500  3.4063737E-02  2.0239047E-02  3.9118087E-02
   18.5000  3.3932482E-02  2.0483099E-02  3.8587294E-02
   18.7500  3.3833239E-02  2.0761398E-02  3.8043867E-02
   19.0000  3.3776576E-02  2.1071805E-02  3.7502564E-02
   19.2500  3.3770900E-02  2.1412493E-02  3.6974697E-02
   19.5000  3.3822222E-02  2.1782003E-02  3.6468143E-02
   19.7500  3.3934032E-02  2.2179240E-02  3.5987628E-02
   20.0000  3.4107172E-02  2.2603281E-02  3.5535271E-02
   21.0000  3.5339607E-02  2.4538850E-02  3.4000282E-02
   22.0000  3.7049609E-02  2.6779877E-02  3.2802347E-02
   23.0000  3.8469020E-02  2.9205188E-02  3.1741338E-02
   24.0000  3.8783025E-02  3.1602479E-02  3.0658743E-02
   25.0000  3.7592031E-02  3.3643218E-02  2.9499687E-02
   26.0000  3.5196803E-02  3.4992801E-02  2.8315665E-02
   27.0000  3.2327428E-02  3.5524372E-02  2.7211403E-02
   28.0000  2.9644452E-02  3.5327930E-02  2.6289879E-02
   29.0000  2.7473760E-02  3.4606947E-02  2.5603145E-02
   30.0000  2.5851453E-02  3.3580668E-02  2.5137348E-02
   31.0000  2.4674883E-02  3.2424812E-02  2.4833761E-02
   32.0000  2.3810899E-02  3.1252539E-02  2.4619096E-02
   33.0000  2.3142606E-02  3.0121241E-02  2.4426567E-02
   34.0000  2.2581780E-02  2.9049335E-02  2.4204067E-02
   35.0000  2.2069156E-02  2.8033854E-02  2.3915370E-02
   36.0000  2.1572773E-02  2.7065400E-02  2.3541208E-02
   37.0000  2.1086093E-02  2.6139916E-02  2.3082939E-02
   38.0000  2.0623854E-02  2.5268624E-02  2.2567854E-02
   39.0000  2.0214463E-02  2.4487677E-02  2.2053046E-02
   40.0000  1.9888638E-02  2.3859045E-02  2.1617041E-02
