    Energy   (100,001)      (010,001)      (001,110)   
  -25.0000  1.7413482E-04  1.7794360E-04  1.8648758E-04
  -24.0000  1.8006223E-04  1.8498972E-04  1.9296337E-04
  -23.0000  1.8637106E-04  1.9255927E-04  1.9987077E-04
  -22.0000  1.9309843E-04  2.0071077E-04  2.0725372E-04
  -21.0000  2.0028643E-04  2.0951164E-04  2.1516233E-04
  -20.0000  2.0798291E-04  2.1903992E-04  2.2365399E-04
  -19.0000  2.1624253E-04  2.2938640E-04  2.3279468E-04
  -18.0000  2.2512803E-04  2.4065737E-04  2.4266073E-04
  -17.0000  2.3471175E-04  2.5297795E-04  2.5334087E-04
  -16.0000  2.4507756E-04  2.6649642E-04  2.6493892E-04
  -15.0000  2.5632326E-04  2.8138981E-04  2.7757709E-04
  -14.0000  2.6856365E-04  2.9787106E-04  2.9140032E-04
  -13.0000  2.8193433E-04  3.1619850E-04  3.0658182E-04
  -12.0000  2.9659678E-04  3.3668846E-04  3.2333038E-04
  -11.0000  3.1274489E-04  3.5973228E-04  3.4190008E-04
  -10.0000  3.3061360E-04  3.8581962E-04  3.6260341E-04
  -9.00000  3.5049070E-04  4.1557089E-04  3.8582932E-04
  -8.00000  3.7273284E-04  4.4978349E-04  4.1206844E-04
  -7.00000  3.9778812E-04  4.8949876E-04  4.4194923E-04
  -6.00000  4.2622850E-04  5.3610178E-04  4.7629106E-04
  -5.00000  4.5879771E-04  5.9147421E-04  5.1618441E-04
  -4.00000  4.9648457E-04  6.5823627E-04  5.6311624E-04
  -3.00000  5.4064005E-04  7.4014560E-04  6.1917423E-04
  -2.00000  5.9317388E-04  8.4278720E-04  6.8739617E-04
  -1.00000  6.5690778E-04  9.7484080E-04  7.7240551E-04
   0.00000  7.3626703E-04  1.1505971E-03  8.8166128E-04
   1.00000  8.3880342E-04  1.3955023E-03  1.0281856E-03
   2.00000  9.7915363E-04  1.7603183E-03  1.2374439E-03
   3.00000  1.1922072E-03  2.3663745E-03  1.5689154E-03
   4.00000  1.5971267E-03  3.6124243E-03  2.2117136E-03
   5.00000  2.7343334E-03  7.2649610E-03  3.9874645E-03
   5.20000  3.0705863E-03  8.4285178E-03  4.5657743E-03
   5.40000  3.3814679E-03  9.5957733E-03  5.1740169E-03
   5.60000  3.6548823E-03  1.0730620E-02  5.8027920E-03
   5.80000  3.8983011E-03  1.1843017E-02  6.4583619E-03
   6.00000  4.1248038E-03  1.2957277E-02  7.1482512E-03
   6.20000  4.3466656E-03  1.4098782E-02  7.8756528E-03
   6.40000  4.5741492E-03  1.5293274E-02  8.6406019E-03
   6.60000  4.8157513E-03  1.6568999E-02  9.4437464E-03
   6.80000  5.0785023E-03  1.7957794E-02  1.0290004E-02
   7.00000  5.3680920E-03  1.9494194E-02  1.1190216E-02
   7.20000  5.6889665E-03  2.1213417E-02  1.2159889E-02
   7.40000  6.0445181E-03  2.3149290E-02  1.3214970E-02
   7.60000  6.4373350E-03  2.5332189E-02  1.4364994E-02
   7.80000  6.8693827E-03  2.7786273E-02  1.5604154E-02
   8.00000  7.3420124E-03  3.0525188E-02  1.6901942E-02
   8.20000  7.8558233E-03  3.3545908E-02  1.8197153E-02
   8.40000  8.4105704E-03  3.6821271E-02  1.9401155E-02
   8.60000  9.0053693E-03  4.0292901E-02  2.0415194E-02
   8.80000  9.6392489E-03  4.3867373E-02  2.1159362E-02
   9.00000  1.0311694E-02  4.7418656E-02  2.1600737E-02
   9.20000  1.1022702E-02  5.0797883E-02  2.1764874E-02
   9.40000  1.1772261E-02  5.3847947E-02  2.1724475E-02
   9.60000  1.2559313E-02  5.6418522E-02  2.1573012E-02
   9.80000  1.3380373E-02  5.8378707E-02  2.1397603E-02
   10.0000  1.4228573E-02  5.9627483E-02  2.1262340E-02
   10.2500  1.5311531E-02  6.0099046E-02  2.1204843E-02
   10.5000  1.6399105E-02  5.9356050E-02  2.1296741E-02
   10.7500  1.7473580E-02  5.7521536E-02  2.1541176E-02
   11.0000  1.8526466E-02  5.4834388E-02  2.1933317E-02
   11.2500  1.9558553E-02  5.1594120E-02  2.2466073E-02
   11.5000  2.0576650E-02  4.8093688E-02  2.3127760E-02
   11.7500  2.1589905E-02  4.4571746E-02  2.3900676E-02
   12.0000  2.2607887E-02  4.1194239E-02  2.4762874E-02
   12.2500  2.3639700E-02  3.8059401E-02  2.5691405E-02
   12.5000  2.4691692E-02  3.5215337E-02  2.6664720E-02
   12.7500  2.5764958E-02  3.2678203E-02  2.7663079E-02
   13.0000  2.6855590E-02  3.0444715E-02  2.8667350E-02
   13.2500  2.7956654E-02  2.8499844E-02  2.9658370E-02
   13.5000  2.9060069E-02  2.6822013E-02  3.0619233E-02
   13.7500  3.0157790E-02  2.5386721E-02  3.1538293E-02
   14.0000  3.1242348E-02  2.4168986E-02  3.2410205E-02
   14.2500  3.2306961E-02  2.3144849E-02  3.3235070E-02
   14.5000  3.3345388E-02  2.2292233E-02  3.4016616E-02
   14.7500  3.4351666E-02  2.1591337E-02  3.4760148E-02
   15.0000  3.5319794E-02  2.1024736E-02  3.5470652E-02
   15.2500  3.6243416E-02  2.0577284E-02  3.6151304E-02
   15.5000  3.7115553E-02  2.0235913E-02  3.6802521E-02
   15.7500  3.7928466E-02  1.9989378E-02  3.7421585E-02
   16.0000  3.8673739E-02  1.9827985E-02  3.8002856E-02
   16.2500  3.9342614E-02  1.9743340E-02  3.8538477E-02
   16.5000  3.9926619E-02  1.9728133E-02  3.9019433E-02
   16.7500  4.0418406E-02  1.9775948E-02  3.9436781E-02
   17.0000  4.0812719E-02  1.9881118E-02  3.9782829E-02
   17.2500  4.1107319E-02  2.0038614E-02  4.0052079E-02
   17.5000  4.1303693E-02  2.0243946E-02  4.0241798E-02
   17.7500  4.1407382E-02  2.0493097E-02  4.0352177E-02
   18.0000  4.1427860E-02  2.0782458E-02  4.0386114E-02
   18.2500  4.1377931E-02  2.1108781E-02  4.0348742E-02
   18.5000  4.1272772E-02  2.1469142E-02  4.0246803E-02
   18.7500  4.1128752E-02  2.1860912E-02  4.0088004E-02
   19.0000  4.0962210E-02  2.2281760E-02  3.9880415E-02
   19.2500  4.0788337E-02  2.2729673E-02  3.9631944E-02
   19.5000  4.0620261E-02  2.3202989E-02  3.9349932E-02
   19.7500  4.0468426E-02  2.3700354E-02  3.9040894E-02
   20.0000  4.0340319E-02  2.4220454E-02  3.8710556E-02
   21.0000  4.0125383E-02  2.6481229E-02  3.7278537E-02
   22.0000  4.0291751E-02  2.8878916E-02  3.5846866E-02
   23.0000  4.0401444E-02  3.1161816E-02  3.4525256E-02
   24.0000  3.9896760E-02  3.3010227E-02  3.3343430E-02
   25.0000  3.8456823E-02  3.4145462E-02  3.2300810E-02
   26.0000  3.6239936E-02  3.4472266E-02  3.1388395E-02
   27.0000  3.3763025E-02  3.4109724E-02  3.0600924E-02
   28.0000  3.1525188E-02  3.3291966E-02  2.9942416E-02
   29.0000  2.9765971E-02  3.2246325E-02  2.9422102E-02
   30.0000  2.8490373E-02  3.1131231E-02  2.9043531E-02
   31.0000  2.7598688E-02  3.0036846E-02  2.8797275E-02
   32.0000  2.6980388E-02  2.9004601E-02  2.8660774E-02
   33.0000  2.6554060E-02  2.8033878E-02  2.8601531E-02
   34.0000  2.6267681E-02  2.7104113E-02  2.8583833E-02
   35.0000  2.6085165E-02  2.6193810E-02  2.8572368E-02
   36.0000  2.5974496E-02  2.5289992E-02  2.8533817E-02
   37.0000  2.5901442E-02  2.4395215E-02  2.8440420E-02
   38.0000  2.5832434E-02  2.3533319E-02  2.8278074E-02
   39.0000  2.5747662E-02  2.2753515E-02  2.8060659E-02
   40.0000  2.5655635E-02  2.2125162E-02  2.7842265E-02
