    Energy   (100,001)      (010,001)      (001,110)   
  -25.0000  1.7455034E-04  1.8232501E-04  1.7978949E-04
  -24.0000  1.8076983E-04  1.8935453E-04  1.8629122E-04
  -23.0000  1.8740673E-04  1.9689757E-04  1.9324050E-04
  -22.0000  1.9450327E-04  2.0501088E-04  2.0068413E-04
  -21.0000  2.0210749E-04  2.1375973E-04  2.0867555E-04
  -20.0000  2.1027428E-04  2.2321960E-04  2.1727615E-04
  -19.0000  2.1906661E-04  2.3347817E-04  2.2655672E-04
  -18.0000  2.2855708E-04  2.4463791E-04  2.3659936E-04
  -17.0000  2.3882984E-04  2.5681928E-04  2.4749980E-04
  -16.0000  2.4998294E-04  2.7016477E-04  2.5937037E-04
  -15.0000  2.6213131E-04  2.8484418E-04  2.7234371E-04
  -14.0000  2.7541061E-04  3.0106133E-04  2.8657760E-04
  -13.0000  2.8998200E-04  3.1906297E-04  3.0226118E-04
  -12.0000  3.0603853E-04  3.3915048E-04  3.1962314E-04
  -11.0000  3.2381337E-04  3.6169571E-04  3.3894267E-04
  -10.0000  3.4359088E-04  3.8716252E-04  3.6056417E-04
  -9.00000  3.6572147E-04  4.1613666E-04  3.8491753E-04
  -8.00000  3.9064217E-04  4.4936808E-04  4.1254655E-04
  -7.00000  4.1890535E-04  4.8783186E-04  4.4414946E-04
  -6.00000  4.5122008E-04  5.3281836E-04  4.8063841E-04
  -5.00000  4.8851293E-04  5.8607010E-04  5.2322894E-04
  -4.00000  5.3202044E-04  6.4999650E-04  5.7357917E-04
  -3.00000  5.8343503E-04  7.2802357E-04  6.3401483E-04
  -2.00000  6.4514603E-04  8.2519072E-04  7.0791019E-04
  -1.00000  7.2066183E-04  9.4922907E-04  8.0037142E-04
   0.00000  8.1540810E-04  1.1126602E-03  9.1955597E-04
   1.00000  9.3840306E-04  1.3373111E-03  1.0794835E-03
   2.00000  1.1063457E-03  1.6655245E-03  1.3069189E-03
   3.00000  1.3561848E-03  2.1948701E-03  1.6622384E-03
   4.00000  1.8010855E-03  3.2321582E-03  2.3293085E-03
   5.00000  2.9214097E-03  6.0823757E-03  4.0586173E-03
   5.20000  3.2654780E-03  6.9693711E-03  4.5868862E-03
   5.40000  3.6127977E-03  7.8613287E-03  5.1262167E-03
   5.60000  3.9546924E-03  8.7422341E-03  5.6795727E-03
   5.80000  4.2948748E-03  9.6336336E-03  6.2723476E-03
   6.00000  4.6405048E-03  1.0567824E-02  6.9351123E-03
   6.20000  4.9983542E-03  1.1575513E-02  7.6969375E-03
   6.40000  5.3745339E-03  1.2683583E-02  8.5849669E-03
   6.60000  5.7752304E-03  1.3915976E-02  9.6252481E-03
   6.80000  6.2074136E-03  1.5295106E-02  1.0842796E-02
   7.00000  6.6792135E-03  1.6843051E-02  1.2259764E-02
   7.20000  7.1999098E-03  1.8582348E-02  1.3890554E-02
   7.40000  7.7796091E-03  2.0536193E-02  1.5732705E-02
   7.60000  8.4287343E-03  2.2727754E-02  1.7753369E-02
   7.80000  9.1574004E-03  2.5178265E-02  1.9874358E-02
   8.00000  9.9746578E-03  2.7903774E-02  2.1964171E-02
   8.20000  1.0887558E-02  3.0910715E-02  2.3849838E-02
   8.40000  1.1900082E-02  3.4191026E-02  2.5356585E-02
   8.60000  1.3012116E-02  3.7717724E-02  2.6364377E-02
   8.80000  1.4218759E-02  4.1441514E-02  2.6850266E-02
   9.00000  1.5510255E-02  4.5287691E-02  2.6889536E-02
   9.20000  1.6872792E-02  4.9151687E-02  2.6618876E-02
   9.40000  1.8290291E-02  5.2893286E-02  2.6189382E-02
   9.60000  1.9746794E-02  5.6334339E-02  2.5733777E-02
   9.80000  2.1228427E-02  5.9267985E-02  2.5353242E-02
   10.0000  2.2723710E-02  6.1483811E-02  2.5116722E-02
   10.2500  2.4595786E-02  6.2983094E-02  2.5083620E-02
   10.5000  2.6448718E-02  6.2922416E-02  2.5368879E-02
   10.7500  2.8250257E-02  6.1380203E-02  2.5962420E-02
   11.0000  2.9957291E-02  5.8644819E-02  2.6824423E-02
   11.2500  3.1520098E-02  5.5106374E-02  2.7894990E-02
   11.5000  3.2890936E-02  5.1150687E-02  2.9102727E-02
   11.7500  3.4032942E-02  4.7096010E-02  3.0369149E-02
   12.0000  3.4926855E-02  4.3172207E-02  3.1611167E-02
   12.2500  3.5574087E-02  3.9524679E-02  3.2748718E-02
   12.5000  3.5995969E-02  3.6231452E-02  3.3716609E-02
   12.7500  3.6229912E-02  3.3323755E-02  3.4474530E-02
   13.0000  3.6323744E-02  3.0801611E-02  3.5012277E-02
   13.2500  3.6329149E-02  2.8644361E-02  3.5348531E-02
   13.5000  3.6295392E-02  2.6818903E-02  3.5522495E-02
   13.7500  3.6264427E-02  2.5286360E-02  3.5582560E-02
   14.0000  3.6267925E-02  2.4007021E-02  3.5576792E-02
   14.2500  3.6326256E-02  2.2943585E-02  3.5546934E-02
   14.5000  3.6448987E-02  2.2062952E-02  3.5525558E-02
   14.7500  3.6636233E-02  2.1336926E-02  3.5535368E-02
   15.0000  3.6880322E-02  2.0742176E-02  3.5589659E-02
   15.2500  3.7167505E-02  2.0259798E-02  3.5693260E-02
   15.5000  3.7479628E-02  1.9874676E-02  3.5843602E-02
   15.7500  3.7795803E-02  1.9574824E-02  3.6031820E-02
   16.0000  3.8094153E-02  1.9350755E-02  3.6243924E-02
   16.2500  3.8353624E-02  1.9194939E-02  3.6462154E-02
   16.5000  3.8555807E-02  1.9101349E-02  3.6666577E-02
   16.7500  3.8686597E-02  1.9065092E-02  3.6836928E-02
   17.0000  3.8737504E-02  1.9082130E-02  3.6954581E-02
   17.2500  3.8706392E-02  1.9149057E-02  3.7004431E-02
   17.5000  3.8597518E-02  1.9262936E-02  3.6976414E-02
   17.7500  3.8420871E-02  1.9421168E-02  3.6866437E-02
   18.0000  3.8190896E-02  1.9621394E-02  3.6676547E-02
   18.2500  3.7924862E-02  1.9861424E-02  3.6414345E-02
   18.5000  3.7641105E-02  2.0139179E-02  3.6091792E-02
   18.7500  3.7357403E-02  2.0452667E-02  3.5723645E-02
   19.0000  3.7089661E-02  2.0799979E-02  3.5325782E-02
   19.2500  3.6850978E-02  2.1179328E-02  3.4913663E-02
   19.5000  3.6651086E-02  2.1589096E-02  3.4501070E-02
   19.7500  3.6496131E-02  2.2027830E-02  3.4099275E-02
   20.0000  3.6388709E-02  2.2494036E-02  3.3716761E-02
   21.0000  3.6386035E-02  2.4585123E-02  3.2474889E-02
   22.0000  3.6751850E-02  2.6902411E-02  3.1732859E-02
   23.0000  3.6912426E-02  2.9258145E-02  3.1330730E-02
   24.0000  3.6385495E-02  3.1413052E-02  3.1059071E-02
   25.0000  3.5039790E-02  3.3096492E-02  3.0759438E-02
   26.0000  3.3148591E-02  3.4119020E-02  3.0345943E-02
   27.0000  3.1172599E-02  3.4461435E-02  2.9811031E-02
   28.0000  2.9464329E-02  3.4246336E-02  2.9210523E-02
   29.0000  2.8145205E-02  3.3649739E-02  2.8628276E-02
   30.0000  2.7177025E-02  3.2833902E-02  2.8136897E-02
   31.0000  2.6477037E-02  3.1924673E-02  2.7772445E-02
   32.0000  2.5972548E-02  3.1006107E-02  2.7528532E-02
   33.0000  2.5609241E-02  3.0106490E-02  2.7364570E-02
   34.0000  2.5343239E-02  2.9219511E-02  2.7226054E-02
   35.0000  2.5136027E-02  2.8329918E-02  2.7060949E-02
   36.0000  2.4955204E-02  2.7427385E-02  2.6830446E-02
   37.0000  2.4777237E-02  2.6515699E-02  2.6518199E-02
   38.0000  2.4590948E-02  2.5620139E-02  2.6137400E-02
   39.0000  2.4401809E-02  2.4795070E-02  2.5733962E-02
   40.0000  2.4233719E-02  2.4122527E-02  2.5380447E-02
