    Energy   (100,001)      (010,001)      (001,110)   
  -25.0000  1.6859593E-04  1.7854884E-04  1.7332965E-04
  -24.0000  1.7487704E-04  1.8554588E-04  1.7990582E-04
  -23.0000  1.8159317E-04  1.9306010E-04  1.8694661E-04
  -22.0000  1.8878943E-04  2.0114922E-04  1.9450121E-04
  -21.0000  1.9651728E-04  2.0987970E-04  2.0262584E-04
  -20.0000  2.0483568E-04  2.1932848E-04  2.1138510E-04
  -19.0000  2.1381248E-04  2.2958509E-04  2.2085355E-04
  -18.0000  2.2352615E-04  2.4075431E-04  2.3111767E-04
  -17.0000  2.3406793E-04  2.5295950E-04  2.4227835E-04
  -16.0000  2.4554452E-04  2.6634687E-04  2.5445401E-04
  -15.0000  2.5808147E-04  2.8109098E-04  2.6778449E-04
  -14.0000  2.7182752E-04  2.9740182E-04  2.8243619E-04
  -13.0000  2.8696020E-04  3.1553419E-04  2.9860858E-04
  -12.0000  3.0369310E-04  3.3580016E-04  3.1654284E-04
  -11.0000  3.2228551E-04  3.5858590E-04  3.3653339E-04
  -10.0000  3.4305535E-04  3.8437472E-04  3.5894337E-04
  -9.00000  3.6639669E-04  4.1377928E-04  3.8422601E-04
  -8.00000  3.9280420E-04  4.4758731E-04  4.1295458E-04
  -7.00000  4.2290753E-04  4.8682815E-04  4.4586519E-04
  -6.00000  4.5752127E-04  5.3287184E-04  4.8391973E-04
  -5.00000  4.9771915E-04  5.8758102E-04  5.2840102E-04
  -4.00000  5.4494806E-04  6.5355193E-04  5.8106162E-04
  -3.00000  6.0120997E-04  7.3451200E-04  6.4436663E-04
  -2.00000  6.6936614E-04  8.3600857E-04  7.2191000E-04
  -1.00000  7.5367691E-04  9.6667609E-04  8.1917523E-04
   0.00000  8.6083584E-04  1.1407555E-03  9.4504238E-04
   1.00000  1.0021696E-03  1.3836517E-03  1.1151157E-03
   2.00000  1.1990735E-03  1.7461319E-03  1.3602731E-03
   3.00000  1.4999093E-03  2.3496218E-03  1.7541887E-03
   4.00000  2.0559643E-03  3.5921917E-03  2.5395431E-03
   5.00000  3.5121416E-03  7.2465950E-03  4.8147436E-03
   5.20000  3.9556490E-03  8.4322786E-03  5.5616966E-03
   5.40000  4.3955324E-03  9.6379230E-03  6.3252830E-03
   5.60000  4.8223127E-03  1.0819442E-02  7.0705377E-03
   5.80000  5.2460816E-03  1.1976408E-02  7.7921358E-03
   6.00000  5.6829298E-03  1.3127070E-02  8.5035046E-03
   6.20000  6.1489274E-03  1.4295359E-02  9.2256498E-03
   6.40000  6.6593727E-03  1.5506333E-02  9.9773761E-03
   6.60000  7.2295003E-03  1.6785297E-02  1.0769446E-02
   6.80000  7.8747416E-03  1.8159143E-02  1.1604253E-02
   7.00000  8.6093895E-03  1.9658061E-02  1.2478820E-02
   7.20000  9.4431889E-03  2.1315755E-02  1.3387668E-02
   7.40000  1.0376863E-02  2.3167764E-02  1.4323740E-02
   7.60000  1.1399390E-02  2.5248781E-02  1.5277686E-02
   7.80000  1.2489834E-02  2.7589703E-02  1.6237281E-02
   8.00000  1.3623573E-02  3.0214181E-02  1.7188999E-02
   8.20000  1.4779475E-02  3.3133993E-02  1.8121746E-02
   8.40000  1.5944649E-02  3.6342343E-02  1.9030002E-02
   8.60000  1.7116091E-02  3.9804618E-02  1.9913754E-02
   8.80000  1.8300169E-02  4.3447661E-02  2.0775512E-02
   9.00000  1.9510538E-02  4.7150303E-02  2.1617205E-02
   9.20000  2.0764578E-02  5.0739550E-02  2.2439612E-02
   9.40000  2.2079084E-02  5.3997963E-02  2.3245249E-02
   9.60000  2.3466309E-02  5.6686935E-02  2.4043728E-02
   9.80000  2.4930809E-02  5.8585998E-02  2.4856949E-02
   10.0000  2.6466739E-02  5.9539490E-02  2.5719465E-02
   10.2500  2.8456471E-02  5.9330314E-02  2.6924869E-02
   10.5000  3.0456237E-02  5.7704703E-02  2.8318499E-02
   10.7500  3.2365144E-02  5.5002122E-02  2.9906869E-02
   11.0000  3.4069431E-02  5.1639094E-02  3.1650259E-02
   11.2500  3.5466683E-02  4.7996363E-02  3.3472425E-02
   11.5000  3.6489830E-02  4.4359804E-02  3.5277423E-02
   11.7500  3.7123238E-02  4.0912427E-02  3.6970932E-02
   12.0000  3.7405287E-02  3.7754995E-02  3.8477255E-02
   12.2500  3.7415889E-02  3.4931434E-02  3.9746462E-02
   12.5000  3.7255230E-02  3.2448536E-02  4.0755571E-02
   12.7500  3.7022706E-02  3.0290518E-02  4.1508571E-02
   13.0000  3.6801489E-02  2.8430250E-02  4.2034059E-02
   13.2500  3.6650465E-02  2.6837152E-02  4.2378693E-02
   13.5000  3.6602966E-02  2.5481457E-02  4.2597665E-02
   13.7500  3.6669664E-02  2.4335958E-02  4.2745291E-02
   14.0000  3.6843133E-02  2.3376466E-02  4.2867857E-02
   14.2500  3.7102734E-02  2.2581722E-02  4.2999253E-02
   14.5000  3.7419265E-02  2.1933140E-02  4.3159049E-02
   14.7500  3.7759177E-02  2.1414513E-02  4.3352387E-02
   15.0000  3.8088270E-02  2.1011717E-02  4.3571188E-02
   15.2500  3.8374759E-02  2.0712406E-02  4.3796403E-02
   15.5000  3.8591632E-02  2.0505740E-02  4.4001139E-02
   15.7500  3.8718265E-02  2.0382129E-02  4.4154519E-02
   16.0000  3.8741367E-02  2.0333026E-02  4.4225955E-02
   16.2500  3.8655327E-02  2.0350750E-02  4.4189316E-02
   16.5000  3.8462062E-02  2.0428364E-02  4.4026372E-02
   16.7500  3.8170364E-02  2.0559562E-02  4.3728896E-02
   17.0000  3.7794813E-02  2.0738597E-02  4.3299132E-02
   17.2500  3.7354308E-02  2.0960196E-02  4.2748685E-02
   17.5000  3.6870385E-02  2.1219504E-02  4.2096260E-02
   17.7500  3.6365489E-02  2.1512017E-02  4.1364852E-02
   18.0000  3.5861425E-02  2.1833539E-02  4.0578984E-02
   18.2500  3.5378121E-02  2.2180137E-02  3.9762413E-02
   18.5000  3.4932781E-02  2.2548123E-02  3.8936512E-02
   18.7500  3.4539428E-02  2.2934049E-02  3.8119319E-02
   19.0000  3.4208770E-02  2.3334743E-02  3.7325148E-02
   19.2500  3.3948302E-02  2.3747370E-02  3.6564577E-02
   19.5000  3.3762544E-02  2.4169519E-02  3.5844671E-02
   19.7500  3.3653299E-02  2.4599235E-02  3.5169371E-02
   20.0000  3.3619883E-02  2.5034872E-02  3.4540141E-02
   21.0000  3.4161048E-02  2.6797388E-02  3.2474195E-02
   22.0000  3.5432012E-02  2.8505319E-02  3.1037816E-02
   23.0000  3.6753408E-02  3.0071634E-02  3.0027515E-02
   24.0000  3.7343041E-02  3.1373700E-02  2.9243421E-02
   25.0000  3.6688739E-02  3.2263033E-02  2.8551996E-02
   26.0000  3.4879047E-02  3.2675679E-02  2.7904073E-02
   27.0000  3.2502859E-02  3.2653016E-02  2.7318991E-02
   28.0000  3.0185825E-02  3.2302062E-02  2.6836900E-02
   29.0000  2.8274596E-02  3.1745005E-02  2.6473732E-02
   30.0000  2.6840229E-02  3.1079443E-02  2.6209866E-02
   31.0000  2.5808731E-02  3.0362118E-02  2.6004588E-02
   32.0000  2.5063741E-02  2.9612902E-02  2.5812719E-02
   33.0000  2.4495742E-02  2.8828694E-02  2.5592570E-02
   34.0000  2.4019710E-02  2.7999289E-02  2.5308321E-02
   35.0000  2.3579306E-02  2.7120372E-02  2.4932920E-02
   36.0000  2.3145534E-02  2.6201038E-02  2.4454301E-02
   37.0000  2.2712684E-02  2.5266066E-02  2.3883581E-02
   38.0000  2.2292739E-02  2.4356176E-02  2.3261589E-02
   39.0000  2.1910502E-02  2.3530924E-02  2.2658785E-02
   40.0000  2.1598932E-02  2.2866762E-02  2.2160265E-02
