    Energy   (100,001)      (010,001)      (001,110)   
  -25.0000  1.7426127E-04  1.8837035E-04  1.8170306E-04
  -24.0000  1.8020282E-04  1.9536774E-04  1.8790488E-04
  -23.0000  1.8652506E-04  2.0286300E-04  1.9450911E-04
  -22.0000  1.9326479E-04  2.1091007E-04  2.0155539E-04
  -21.0000  2.0046365E-04  2.1957084E-04  2.0908866E-04
  -20.0000  2.0816897E-04  2.2891673E-04  2.1716016E-04
  -19.0000  2.1643474E-04  2.3903054E-04  2.2582848E-04
  -18.0000  2.2532288E-04  2.5000877E-04  2.3516099E-04
  -17.0000  2.3490467E-04  2.6196458E-04  2.4523553E-04
  -16.0000  2.4526267E-04  2.7503153E-04  2.5614252E-04
  -15.0000  2.5649305E-04  2.8936831E-04  2.6798766E-04
  -14.0000  2.6870848E-04  3.0516487E-04  2.8089523E-04
  -13.0000  2.8204193E-04  3.2265052E-04  2.9501248E-04
  -12.0000  2.9665149E-04  3.4210450E-04  3.1051519E-04
  -11.0000  3.1272669E-04  3.6387025E-04  3.2761500E-04
  -10.0000  3.3049692E-04  3.8837483E-04  3.4656923E-04
  -9.00000  3.5024270E-04  4.1615572E-04  3.6769408E-04
  -8.00000  3.7231124E-04  4.4789876E-04  3.9138286E-04
  -7.00000  3.9713826E-04  4.8449268E-04  4.1813173E-04
  -6.00000  4.2527933E-04  5.2710967E-04  4.4857677E-04
  -5.00000  4.5745641E-04  5.7732774E-04  4.8354911E-04
  -4.00000  4.9462922E-04  6.3732279E-04  5.2415980E-04
  -3.00000  5.3810970E-04  7.1018247E-04  5.7193602E-04
  -2.00000  5.8975558E-04  8.0044444E-04  6.2905170E-04
  -1.00000  6.5232056E-04  9.1507799E-04  6.9874468E-04
   0.00000  7.3014618E-04  1.0654221E-03  7.8614055E-04
   1.00000  8.3070007E-04  1.2714474E-03  9.0008294E-04
   2.00000  9.6860688E-04  1.5726822E-03  1.0579333E-03
   3.00000  1.1790995E-03  2.0635693E-03  1.3016613E-03
   4.00000  1.5829554E-03  3.0588647E-03  1.7764294E-03
   5.00000  2.7383266E-03  5.9619437E-03  3.1453833E-03
   5.20000  3.0984335E-03  6.8578372E-03  3.5540407E-03
   5.40000  3.4483434E-03  7.7251438E-03  3.9348119E-03
   5.60000  3.7711597E-03  8.5354535E-03  4.2746343E-03
   5.80000  4.0644839E-03  9.3046690E-03  4.5827392E-03
   6.00000  4.3309085E-03  1.0061845E-02  4.8723997E-03
   6.20000  4.5746349E-03  1.0834024E-02  5.1527952E-03
   6.40000  4.8012076E-03  1.1642779E-02  5.4288881E-03
   6.60000  5.0173036E-03  1.2504810E-02  5.7043215E-03
   6.80000  5.2301261E-03  1.3433547E-02  5.9838018E-03
   7.00000  5.4467277E-03  1.4440939E-02  6.2731542E-03
   7.20000  5.6735041E-03  1.5539242E-02  6.5775147E-03
   7.40000  5.9159690E-03  1.6742705E-02  6.8998093E-03
   7.60000  6.1788248E-03  1.8068854E-02  7.2414294E-03
   7.80000  6.4662011E-03  1.9538808E-02  7.6050025E-03
   8.00000  6.7818767E-03  2.1176352E-02  7.9971471E-03
   8.20000  7.1294239E-03  2.3006515E-02  8.4290430E-03
   8.40000  7.5122877E-03  2.5054363E-02  8.9146106E-03
   8.60000  7.9337950E-03  2.7343661E-02  9.4678121E-03
   8.80000  8.3971159E-03  2.9894475E-02  1.0100494E-02
   9.00000  8.9052088E-03  3.2718908E-02  1.0821141E-02
   9.20000  9.4607591E-03  3.5814509E-02  1.1634223E-02
   9.40000  1.0066084E-02  3.9155225E-02  1.2539961E-02
   9.60000  1.0722964E-02  4.2680573E-02  1.3534605E-02
   9.80000  1.1432497E-02  4.6285722E-02  1.4611006E-02
   10.0000  1.2195028E-02  4.9817370E-02  1.5758817E-02
   10.2500  1.3221730E-02  5.3830200E-02  1.7272678E-02
   10.5000  1.4326667E-02  5.7013408E-02  1.8842763E-02
   10.7500  1.5504250E-02  5.9018934E-02  2.0433160E-02
   11.0000  1.6747416E-02  5.9654342E-02  2.2012060E-02
   11.2500  1.8045651E-02  5.8933365E-02  2.3553860E-02
   11.5000  1.9382018E-02  5.7057803E-02  2.5037490E-02
   11.7500  2.0731850E-02  5.4342724E-02  2.6444101E-02
   12.0000  2.2064410E-02  5.1127817E-02  2.7755379E-02
   12.2500  2.3347487E-02  4.7710680E-02  2.8953558E-02
   12.5000  2.4552732E-02  4.4315197E-02  3.0024138E-02
   12.7500  2.5659666E-02  4.1089134E-02  3.0960264E-02
   13.0000  2.6658552E-02  3.8117004E-02  3.1765828E-02
   13.2500  2.7551724E-02  3.5436997E-02  3.2455014E-02
   13.5000  2.8352394E-02  3.3056694E-02  3.3049401E-02
   13.7500  2.9081571E-02  3.0965278E-02  3.3575179E-02
   14.0000  2.9764106E-02  2.9142039E-02  3.4060625E-02
   14.2500  3.0424811E-02  2.7561967E-02  3.4533379E-02
   14.5000  3.1085472E-02  2.6199219E-02  3.5018001E-02
   14.7500  3.1763098E-02  2.5029063E-02  3.5534281E-02
   15.0000  3.2469261E-02  2.4028844E-02  3.6096376E-02
   15.2500  3.3210192E-02  2.3178337E-02  3.6712503E-02
   15.5000  3.3987277E-02  2.2459781E-02  3.7384950E-02
   15.7500  3.4797712E-02  2.1857733E-02  3.8110192E-02
   16.0000  3.5635192E-02  2.1358861E-02  3.8879071E-02
   16.2500  3.6490582E-02  2.0951708E-02  3.9677076E-02
   16.5000  3.7352593E-02  2.0626479E-02  4.0484848E-02
   16.7500  3.8208474E-02  2.0374850E-02  4.1279042E-02
   17.0000  3.9044743E-02  2.0189800E-02  4.2033644E-02
   17.2500  3.9847966E-02  2.0065471E-02  4.2721729E-02
   17.5000  4.0605543E-02  1.9997032E-02  4.3317549E-02
   17.7500  4.1306497E-02  1.9980552E-02  4.3798704E-02
   18.0000  4.1942184E-02  2.0012880E-02  4.4148085E-02
   18.2500  4.2506899E-02  2.0091522E-02  4.4355298E-02
   18.5000  4.2998280E-02  2.0214523E-02  4.4417332E-02
   18.7500  4.3417456E-02  2.0380360E-02  4.4338387E-02
   19.0000  4.3768879E-02  2.0587840E-02  4.4128926E-02
   19.2500  4.4059810E-02  2.0836031E-02  4.3804111E-02
   19.5000  4.4299492E-02  2.1124197E-02  4.3381913E-02
   19.7500  4.4498138E-02  2.1451696E-02  4.2881297E-02
   20.0000  4.4665894E-02  2.1817728E-02  4.2321035E-02
   21.0000  4.5188575E-02  2.3630212E-02  3.9836085E-02
   22.0000  4.5601556E-02  2.5869735E-02  3.7549705E-02
   23.0000  4.5625163E-02  2.8305017E-02  3.5742713E-02
   24.0000  4.4761077E-02  3.0639252E-02  3.4365751E-02
   25.0000  4.2745639E-02  3.2582378E-02  3.3273279E-02
   26.0000  3.9789034E-02  3.3937529E-02  3.2329256E-02
   27.0000  3.6451237E-02  3.4646742E-02  3.1452151E-02
   28.0000  3.3303190E-02  3.4777327E-02  3.0624743E-02
   29.0000  3.0688420E-02  3.4466360E-02  2.9874123E-02
   30.0000  2.8711000E-02  3.3873689E-02  2.9244329E-02
   31.0000  2.7326973E-02  3.3148296E-02  2.8768473E-02
   32.0000  2.6419170E-02  3.2383264E-02  2.8439967E-02
   33.0000  2.5866549E-02  3.1621382E-02  2.8226240E-02
   34.0000  2.5571725E-02  3.0874681E-02  2.8087793E-02
   35.0000  2.5456013E-02  3.0136607E-02  2.7985635E-02
   36.0000  2.5448088E-02  2.9393688E-02  2.7884969E-02
   37.0000  2.5476609E-02  2.8637602E-02  2.7758496E-02
   38.0000  2.5475652E-02  2.7878214E-02  2.7591826E-02
   39.0000  2.5409337E-02  2.7158673E-02  2.7393393E-02
   40.0000  2.5300444E-02  2.6560021E-02  2.7202683E-02
