    Energy   (100,001)      (010,001)      (001,110)   
  -25.0000  1.6655040E-04  1.7994711E-04  1.8043827E-04
  -24.0000  1.7260201E-04  1.8686430E-04  1.8695588E-04
  -23.0000  1.7906187E-04  1.9428383E-04  1.9391962E-04
  -22.0000  1.8597118E-04  2.0226081E-04  2.0137569E-04
  -21.0000  1.9337681E-04  2.1085857E-04  2.0937680E-04
  -20.0000  2.0133226E-04  2.2015024E-04  2.1798337E-04
  -19.0000  2.0989887E-04  2.3022072E-04  2.2726498E-04
  -18.0000  2.1914734E-04  2.4116909E-04  2.3730214E-04
  -17.0000  2.2915951E-04  2.5311163E-04  2.4818854E-04
  -16.0000  2.4003071E-04  2.6618579E-04  2.6003385E-04
  -15.0000  2.5187260E-04  2.8055503E-04  2.7296725E-04
  -14.0000  2.6481685E-04  2.9641531E-04  2.8714196E-04
  -13.0000  2.7901983E-04  3.1400344E-04  3.0274109E-04
  -12.0000  2.9466869E-04  3.3360815E-04  3.1998533E-04
  -11.0000  3.1198940E-04  3.5558500E-04  3.3914305E-04
  -10.0000  3.3125746E-04  3.8037660E-04  3.6054400E-04
  -9.00000  3.5281234E-04  4.0854065E-04  3.8459798E-04
  -8.00000  3.7707759E-04  4.4078948E-04  4.1182085E-04
  -7.00000  4.0458902E-04  4.7804692E-04  4.4287157E-04
  -6.00000  4.3603559E-04  5.2153217E-04  4.7860619E-04
  -5.00000  4.7232012E-04  5.7288691E-04  5.2015888E-04
  -4.00000  5.1465265E-04  6.3437405E-04  5.6906770E-04
  -3.00000  5.6470031E-04  7.0920082E-04  6.2747788E-04
  -2.00000  6.2483987E-04  8.0206866E-04  6.9848767E-04
  -1.00000  6.9861231E-04  9.2016491E-04  7.8677539E-04
   0.00000  7.9161221E-04  1.0750899E-03  8.9983677E-04
   1.00000  9.1343727E-04  1.2869995E-03  1.0507249E-03
   2.00000  1.0827039E-03  1.5948919E-03  1.2652155E-03
   3.00000  1.3434377E-03  2.0884908E-03  1.6059493E-03
   4.00000  1.8427264E-03  3.0498121E-03  2.2932219E-03
   5.00000  3.2423766E-03  5.6820826E-03  4.2830053E-03
   5.20000  3.6715094E-03  6.5061608E-03  4.7913269E-03
   5.40000  4.0869828E-03  7.3412004E-03  5.1955885E-03
   5.60000  4.4745389E-03  8.1728298E-03  5.5111440E-03
   5.80000  4.8403579E-03  9.0185670E-03  5.7961031E-03
   6.00000  5.1958553E-03  9.9029734E-03  6.1034936E-03
   6.20000  5.5498197E-03  1.0846592E-02  6.4677191E-03
   6.40000  5.9067699E-03  1.1864901E-02  6.9090264E-03
   6.60000  6.2687708E-03  1.2970786E-02  7.4406979E-03
   6.80000  6.6387348E-03  1.4177413E-02  8.0740709E-03
   7.00000  7.0228990E-03  1.5500060E-02  8.8207779E-03
   7.20000  7.4311365E-03  1.6956581E-02  9.6927399E-03
   7.40000  7.8756258E-03  1.8567028E-02  1.0700719E-02
   7.60000  8.3691156E-03  2.0353096E-02  1.1852173E-02
   7.80000  8.9233656E-03  2.2337544E-02  1.3148707E-02
   8.00000  9.5475330E-03  2.4543238E-02  1.4582863E-02
   8.20000  1.0246108E-02  2.6991470E-02  1.6134042E-02
   8.40000  1.1016399E-02  2.9699249E-02  1.7764161E-02
   8.60000  1.1846375E-02  3.2675184E-02  1.9415353E-02
   8.80000  1.2714674E-02  3.5913670E-02  2.1013713E-02
   9.00000  1.3594779E-02  3.9387428E-02  2.2482427E-02
   9.20000  1.4463534E-02  4.3038998E-02  2.3762406E-02
   9.40000  1.5310603E-02  4.6772464E-02  2.4831078E-02
   9.60000  1.6143384E-02  5.0447730E-02  2.5708080E-02
   9.80000  1.6984270E-02  5.3881269E-02  2.6444634E-02
   10.0000  1.7862185E-02  5.6858159E-02  2.7104150E-02
   10.2500  1.9050603E-02  5.9604969E-02  2.7907342E-02
   10.5000  2.0367104E-02  6.0957660E-02  2.8758998E-02
   10.7500  2.1814035E-02  6.0785248E-02  2.9695815E-02
   11.0000  2.3369171E-02  5.9213946E-02  3.0718861E-02
   11.2500  2.4992271E-02  5.6566949E-02  3.1803878E-02
   11.5000  2.6631794E-02  5.3242360E-02  3.2911821E-02
   11.7500  2.8231353E-02  4.9606109E-02  3.3998281E-02
   12.0000  2.9736080E-02  4.5937484E-02  3.5020063E-02
   12.2500  3.1099140E-02  4.2421637E-02  3.5939797E-02
   12.5000  3.2288774E-02  3.9166414E-02  3.6729678E-02
   12.7500  3.3293973E-02  3.6224119E-02  3.7374292E-02
   13.0000  3.4124606E-02  3.3610549E-02  3.7872447E-02
   13.2500  3.4805638E-02  3.1319818E-02  3.8236912E-02
   13.5000  3.5369281E-02  2.9334267E-02  3.8492108E-02
   13.7500  3.5848593E-02  2.7630028E-02  3.8670384E-02
   14.0000  3.6273862E-02  2.6180059E-02  3.8806769E-02
   14.2500  3.6670832E-02  2.4956214E-02  3.8933384E-02
   14.5000  3.7059689E-02  2.3930909E-02  3.9075136E-02
   14.7500  3.7454621E-02  2.3078356E-02  3.9247226E-02
   15.0000  3.7863908E-02  2.2375335E-02  3.9454286E-02
   15.2500  3.8290415E-02  2.1801560E-02  3.9690794E-02
   15.5000  3.8732333E-02  2.1339746E-02  3.9942442E-02
   15.7500  3.9184029E-02  2.0975478E-02  4.0188285E-02
   16.0000  3.9636973E-02  2.0696954E-02  4.0403498E-02
   16.2500  4.0080726E-02  2.0494644E-02  4.0562552E-02
   16.5000  4.0503987E-02  2.0360916E-02  4.0642466E-02
   16.7500  4.0895677E-02  2.0289647E-02  4.0625709E-02
   17.0000  4.1245998E-02  2.0275848E-02  4.0502260E-02
   17.2500  4.1547362E-02  2.0315336E-02  4.0270491E-02
   17.5000  4.1795100E-02  2.0404450E-02  3.9936798E-02
   17.7500  4.1987847E-02  2.0539852E-02  3.9514153E-02
   18.0000  4.2127551E-02  2.0718387E-02  3.9020013E-02
   18.2500  4.2219096E-02  2.0937015E-02  3.8474038E-02
   18.5000  4.2269608E-02  2.1192804E-02  3.7896030E-02
   18.7500  4.2287538E-02  2.1482948E-02  3.7304328E-02
   19.0000  4.2281678E-02  2.1804835E-02  3.6714746E-02
   19.2500  4.2260222E-02  2.2156116E-02  3.6139985E-02
   19.5000  4.2229987E-02  2.2534784E-02  3.5589439E-02
   19.7500  4.2195836E-02  2.2939164E-02  3.5069317E-02
   20.0000  4.2160345E-02  2.3367700E-02  3.4583117E-02
   21.0000  4.1979513E-02  2.5277918E-02  3.2995448E-02
   22.0000  4.1510193E-02  2.7370803E-02  3.1923868E-02
   23.0000  4.0379736E-02  2.9453528E-02  3.1196134E-02
   24.0000  3.8433204E-02  3.1305297E-02  3.0635601E-02
   25.0000  3.5883181E-02  3.2731222E-02  3.0112636E-02
   26.0000  3.3160153E-02  3.3623564E-02  2.9554608E-02
   27.0000  3.0650849E-02  3.3971113E-02  2.8951310E-02
   28.0000  2.8562448E-02  3.3827962E-02  2.8349526E-02
   29.0000  2.6947831E-02  3.3300327E-02  2.7825505E-02
   30.0000  2.5773602E-02  3.2534968E-02  2.7439907E-02
   31.0000  2.4960777E-02  3.1662582E-02  2.7198806E-02
   32.0000  2.4415055E-02  3.0767585E-02  2.7066683E-02
   33.0000  2.4045533E-02  2.9887173E-02  2.6992615E-02
   34.0000  2.3773477E-02  2.9022789E-02  2.6926107E-02
   35.0000  2.3535534E-02  2.8156521E-02  2.6824718E-02
   36.0000  2.3284709E-02  2.7267601E-02  2.6657009E-02
   37.0000  2.2992952E-02  2.6348545E-02  2.6404983E-02
   38.0000  2.2656638E-02  2.5420620E-02  2.6070040E-02
   39.0000  2.2303207E-02  2.4546322E-02  2.5685937E-02
   40.0000  2.1989291E-02  2.3824923E-02  2.5329407E-02
