    Energy   (100,001)      (010,001)      (001,110)   
  -25.0000  1.7219252E-04  1.8057154E-04  1.8581717E-04
  -24.0000  1.7813977E-04  1.8770595E-04  1.9228997E-04
  -23.0000  1.8447165E-04  1.9536969E-04  1.9919537E-04
  -22.0000  1.9122559E-04  2.0362187E-04  2.0657758E-04
  -21.0000  1.9844394E-04  2.1253056E-04  2.1448701E-04
  -20.0000  2.0617487E-04  2.2217451E-04  2.2298142E-04
  -19.0000  2.1447335E-04  2.3264535E-04  2.3212730E-04
  -18.0000  2.2340239E-04  2.4405026E-04  2.4200159E-04
  -17.0000  2.3303462E-04  2.5651535E-04  2.5269384E-04
  -16.0000  2.4345414E-04  2.7019003E-04  2.6430890E-04
  -15.0000  2.5475892E-04  2.8525250E-04  2.7697038E-04
  -14.0000  2.6706377E-04  3.0191694E-04  2.9082502E-04
  -13.0000  2.8050414E-04  3.2044297E-04  3.0604849E-04
  -12.0000  2.9524105E-04  3.4114811E-04  3.2285292E-04
  -11.0000  3.1146747E-04  3.6442463E-04  3.4149702E-04
  -10.0000  3.2941677E-04  3.9076255E-04  3.6229978E-04
  -9.00000  3.4937414E-04  4.2078152E-04  3.8565947E-04
  -8.00000  3.7169210E-04  4.5527604E-04  4.1208035E-04
  -7.00000  3.9681234E-04  4.9528064E-04  4.4221137E-04
  -6.00000  4.2529689E-04  5.4216639E-04  4.7690342E-04
  -5.00000  4.5787422E-04  5.9778755E-04  5.1729711E-04
  -4.00000  4.9550955E-04  6.6471167E-04  5.6496208E-04
  -3.00000  5.3951722E-04  7.4659458E-04  6.2212842E-04
  -2.00000  5.9174986E-04  8.4881975E-04  6.9209226E-04
  -1.00000  6.5493995E-04  9.7965261E-04  7.7997666E-04
   0.00000  7.3337530E-04  1.1524821E-03  8.9428820E-04
   1.00000  8.3441058E-04  1.3906258E-03  1.0504918E-03
   2.00000  9.7249030E-04  1.7391940E-03  1.2806522E-03
   3.00000  1.1829674E-03  2.3015508E-03  1.6664331E-03
   4.00000  1.5918718E-03  3.3997444E-03  2.5023056E-03
   5.00000  2.7802384E-03  6.3897408E-03  5.1411226E-03
   5.20000  3.1174498E-03  7.3162419E-03  5.9225643E-03
   5.40000  3.4102913E-03  8.2483067E-03  6.6381894E-03
   5.60000  3.6477778E-03  9.1715206E-03  7.2769487E-03
   5.80000  3.8432236E-03  1.0110914E-02  7.8731977E-03
   6.00000  4.0152033E-03  1.1102501E-02  8.4641245E-03
   6.20000  4.1788532E-03  1.2180636E-02  9.0737175E-03
   6.40000  4.3444255E-03  1.3376490E-02  9.7121238E-03
   6.60000  4.5182557E-03  1.4719894E-02  1.0378810E-02
   6.80000  4.7041844E-03  1.6241494E-02  1.1065942E-02
   7.00000  4.9048402E-03  1.7974277E-02  1.1761525E-02
   7.20000  5.1225976E-03  1.9954082E-02  1.2452430E-02
   7.40000  5.3601499E-03  2.2218699E-02  1.3127307E-02
   7.60000  5.6207381E-03  2.4805375E-02  1.3779022E-02
   7.80000  5.9081588E-03  2.7746986E-02  1.4406053E-02
   8.00000  6.2266644E-03  3.1066766E-02  1.5012309E-02
   8.20000  6.5808061E-03  3.4771025E-02  1.5605303E-02
   8.40000  6.9752626E-03  3.8839889E-02  1.6193354E-02
   8.60000  7.4146701E-03  4.3216904E-02  1.6782849E-02
   8.80000  7.9034559E-03  4.7799028E-02  1.7376234E-02
   9.00000  8.4457781E-03  5.2428188E-02  1.7971304E-02
   9.20000  9.0457535E-03  5.6885661E-02  1.8562489E-02
   9.40000  9.7078027E-03  6.0898232E-02  1.9143184E-02
   9.60000  1.0436713E-02  6.4168948E-02  1.9707149E-02
   9.80000  1.1237422E-02  6.6430736E-02  2.0249145E-02
   10.0000  1.2114637E-02  6.7505328E-02  2.0765683E-02
   10.2500  1.3324483E-02  6.7118581E-02  2.1374085E-02
   10.5000  1.4663579E-02  6.5008388E-02  2.1945010E-02
   10.7500  1.6129310E-02  6.1603840E-02  2.2490949E-02
   11.0000  1.7709920E-02  5.7417488E-02  2.3033115E-02
   11.2500  1.9382195E-02  5.2917759E-02  2.3595649E-02
   11.5000  2.1110775E-02  4.8459948E-02  2.4197117E-02
   11.7500  2.2850593E-02  4.4272379E-02  2.4844744E-02
   12.0000  2.4552490E-02  4.0476093E-02  2.5534401E-02
   12.2500  2.6170070E-02  3.7116112E-02  2.6254328E-02
   12.5000  2.7666443E-02  3.4190376E-02  2.6990360E-02
   12.7500  2.9019152E-02  3.1671173E-02  2.7731062E-02
   13.0000  3.0221588E-02  2.9519099E-02  2.8470810E-02
   13.2500  3.1281185E-02  2.7691287E-02  2.9210186E-02
   13.5000  3.2215815E-02  2.6145732E-02  2.9953595E-02
   13.7500  3.3049720E-02  2.4843357E-02  3.0706211E-02
   14.0000  3.3809638E-02  2.3749049E-02  3.1473414E-02
   14.2500  3.4521363E-02  2.2832199E-02  3.2261729E-02
   14.5000  3.5206841E-02  2.2066872E-02  3.3078739E-02
   14.7500  3.5882285E-02  2.1431625E-02  3.3931639E-02
   15.0000  3.6557838E-02  2.0908935E-02  3.4825040E-02
   15.2500  3.7238248E-02  2.0484476E-02  3.5758760E-02
   15.5000  3.7923640E-02  2.0146490E-02  3.6726202E-02
   15.7500  3.8610139E-02  1.9885320E-02  3.7713446E-02
   16.0000  3.9290427E-02  1.9693056E-02  3.8699074E-02
   16.2500  3.9954394E-02  1.9563248E-02  3.9654831E-02
   16.5000  4.0589958E-02  1.9490670E-02  4.0547276E-02
   16.7500  4.1184091E-02  1.9471120E-02  4.1340475E-02
   17.0000  4.1724016E-02  1.9501236E-02  4.1999595E-02
   17.2500  4.2198485E-02  1.9578340E-02  4.2494940E-02
   17.5000  4.2598972E-02  1.9700279E-02  4.2805701E-02
   17.7500  4.2920616E-02  1.9865282E-02  4.2922646E-02
   18.0000  4.3162746E-02  2.0071814E-02  4.2849115E-02
   18.2500  4.3328912E-02  2.0318459E-02  4.2600140E-02
   18.5000  4.3426415E-02  2.0603824E-02  4.2199965E-02
   18.7500  4.3465458E-02  2.0926480E-02  4.1678612E-02
   19.0000  4.3458031E-02  2.1284951E-02  4.1068234E-02
   19.2500  4.3416732E-02  2.1677736E-02  4.0399882E-02
   19.5000  4.3353643E-02  2.2103362E-02  3.9701050E-02
   19.7500  4.3279409E-02  2.2560366E-02  3.8994241E-02
   20.0000  4.3202645E-02  2.3047062E-02  3.8296725E-02
   21.0000  4.2967974E-02  2.5230619E-02  3.5817287E-02
   22.0000  4.2836840E-02  2.7608300E-02  3.4041497E-02
   23.0000  4.2446118E-02  2.9913055E-02  3.2885371E-02
   24.0000  4.1317646E-02  3.1868989E-02  3.2136014E-02
   25.0000  3.9260473E-02  3.3260254E-02  3.1602593E-02
   26.0000  3.6561155E-02  3.3996313E-02  3.1152173E-02
   27.0000  3.3773114E-02  3.4123382E-02  3.0717452E-02
   28.0000  3.1346319E-02  3.3779215E-02  3.0291144E-02
   29.0000  2.9464017E-02  3.3125746E-02  2.9903509E-02
   30.0000  2.8111718E-02  3.2297483E-02  2.9590311E-02
   31.0000  2.7197021E-02  3.1380984E-02  2.9368419E-02
   32.0000  2.6612226E-02  3.0422636E-02  2.9228901E-02
   33.0000  2.6254972E-02  2.9443559E-02  2.9142850E-02
   34.0000  2.6046240E-02  2.8443507E-02  2.9070754E-02
   35.0000  2.5918888E-02  2.7419218E-02  2.8973764E-02
   36.0000  2.5805620E-02  2.6378704E-02  2.8822338E-02
   37.0000  2.5645155E-02  2.5344255E-02  2.8602311E-02
   38.0000  2.5402331E-02  2.4353470E-02  2.8319306E-02
   39.0000  2.5092537E-02  2.3463949E-02  2.8003203E-02
   40.0000  2.4787569E-02  2.2751559E-02  2.7714598E-02
