    Energy   (100,001)      (010,001)      (001,110)   
  -25.0000  1.6435772E-04  1.8677062E-04  1.6688810E-04
  -24.0000  1.7055634E-04  1.9366185E-04  1.7331683E-04
  -23.0000  1.7718592E-04  2.0104238E-04  1.8020372E-04
  -22.0000  1.8429107E-04  2.0896526E-04  1.8759754E-04
  -21.0000  1.9192269E-04  2.1749140E-04  1.9555410E-04
  -20.0000  2.0013900E-04  2.2669108E-04  2.0413755E-04
  -19.0000  2.0900698E-04  2.3664584E-04  2.1342195E-04
  -18.0000  2.1860400E-04  2.4745074E-04  2.2349332E-04
  -17.0000  2.2901994E-04  2.5921736E-04  2.3445206E-04
  -16.0000  2.4035979E-04  2.7207739E-04  2.4641610E-04
  -15.0000  2.5274692E-04  2.8618748E-04  2.5952485E-04
  -14.0000  2.6632725E-04  3.0173527E-04  2.7394435E-04
  -13.0000  2.8127465E-04  3.1894745E-04  2.8987385E-04
  -12.0000  2.9779790E-04  3.3810034E-04  3.0755456E-04
  -11.0000  3.1614985E-04  3.5953420E-04  3.2728130E-04
  -10.0000  3.3663975E-04  3.8367260E-04  3.4941827E-04
  -9.00000  3.5964979E-04  4.1104939E-04  3.7442074E-04
  -8.00000  3.8565802E-04  4.4234676E-04  4.0286561E-04
  -7.00000  4.1527055E-04  4.7845020E-04  4.3549520E-04
  -6.00000  4.4926784E-04  5.2052975E-04  4.7328184E-04
  -5.00000  4.8867297E-04  5.7016360E-04  5.1752576E-04
  -4.00000  5.3485555E-04  6.2953247E-04  5.7000890E-04
  -3.00000  5.8969580E-04  7.0173742E-04  6.3324674E-04
  -2.00000  6.5585540E-04  7.9134520E-04  7.1092213E-04
  -1.00000  7.3725120E-04  9.0538162E-04  8.0868158E-04
   0.00000  8.3994731E-04  1.0552872E-03  9.3572086E-04
   1.00000  9.7401582E-04  1.2611913E-03  1.1083038E-03
   2.00000  1.1580331E-03  1.5627544E-03  1.3588492E-03
   3.00000  1.4327249E-03  2.0536745E-03  1.7653361E-03
   4.00000  1.9208915E-03  3.0395674E-03  2.5869672E-03
   5.00000  3.1336641E-03  5.8623086E-03  4.9822663E-03
   5.20000  3.5023989E-03  6.7439944E-03  5.7487448E-03
   5.40000  3.8746410E-03  7.6168896E-03  6.5265013E-03
   5.60000  4.2438432E-03  8.4560316E-03  7.3016685E-03
   5.80000  4.6173877E-03  9.2750116E-03  8.0912146E-03
   6.00000  5.0064421E-03  1.0099703E-02  8.9163860E-03
   6.20000  5.4214689E-03  1.0957328E-02  9.7892739E-03
   6.40000  5.8713272E-03  1.1875111E-02  1.0709243E-02
   6.60000  6.3633579E-03  1.2880043E-02  1.1661577E-02
   6.80000  6.9037845E-03  1.3997529E-02  1.2617088E-02
   7.00000  7.4984530E-03  1.5250225E-02  1.3537661E-02
   7.20000  8.1537922E-03  1.6658012E-02  1.4390704E-02
   7.40000  8.8775522E-03  1.8238005E-02  1.5164729E-02
   7.60000  9.6789041E-03  2.0002654E-02  1.5873707E-02
   7.80000  1.0567923E-02  2.1955427E-02  1.6547966E-02
   8.00000  1.1554781E-02  2.4085398E-02  1.7220768E-02
   8.20000  1.2648911E-02  2.6363360E-02  1.7919646E-02
   8.40000  1.3858210E-02  2.8743056E-02  1.8664654E-02
   8.60000  1.5188332E-02  3.1171071E-02  1.9470621E-02
   8.80000  1.6642010E-02  3.3605375E-02  2.0349389E-02
   9.00000  1.8218206E-02  3.6033525E-02  2.1309597E-02
   9.20000  1.9910752E-02  3.8474123E-02  2.2354106E-02
   9.40000  2.1706508E-02  4.0955589E-02  2.3476866E-02
   9.60000  2.3583404E-02  4.3485481E-02  2.4661380E-02
   9.80000  2.5508956E-02  4.6026073E-02  2.5882143E-02
   10.0000  2.7439975E-02  4.8483448E-02  2.7108772E-02
   10.2500  2.9780757E-02  5.1212836E-02  2.8605027E-02
   10.5000  3.1934497E-02  5.3239051E-02  3.0016603E-02
   10.7500  3.3794740E-02  5.4251999E-02  3.1314609E-02
   11.0000  3.5281204E-02  5.4083694E-02  3.2488971E-02
   11.2500  3.6355025E-02  5.2767334E-02  3.3542822E-02
   11.5000  3.7027322E-02  5.0518973E-02  3.4485524E-02
   11.7500  3.7354021E-02  4.7657454E-02  3.5328452E-02
   12.0000  3.7418764E-02  4.4509111E-02  3.6082608E-02
   12.2500  3.7313666E-02  4.1339965E-02  3.6757041E-02
   12.5000  3.7125158E-02  3.8330224E-02  3.7359103E-02
   12.7500  3.6925641E-02  3.5580965E-02  3.7896199E-02
   13.0000  3.6769143E-02  3.3134689E-02  3.8376786E-02
   13.2500  3.6690962E-02  3.0996376E-02  3.8810263E-02
   13.5000  3.6710237E-02  2.9149716E-02  3.9206917E-02
   13.7500  3.6833152E-02  2.7568099E-02  3.9577819E-02
   14.0000  3.7055528E-02  2.6221486E-02  3.9934067E-02
   14.2500  3.7364720E-02  2.5080341E-02  4.0285410E-02
   14.5000  3.7741162E-02  2.4117612E-02  4.0638669E-02
   14.7500  3.8159866E-02  2.3309528E-02  4.0996346E-02
   15.0000  3.8592120E-02  2.2635718E-02  4.1355699E-02
   15.2500  3.9007520E-02  2.2078988E-02  4.1708455E-02
   15.5000  3.9376321E-02  2.1624934E-02  4.2041202E-02
   15.7500  3.9671957E-02  2.1261521E-02  4.2336468E-02
   16.0000  3.9873462E-02  2.0978673E-02  4.2574381E-02
   16.2500  3.9967450E-02  2.0767922E-02  4.2734775E-02
   16.5000  3.9949314E-02  2.0622099E-02  4.2799490E-02
   16.7500  3.9823419E-02  2.0535084E-02  4.2754557E-02
   17.0000  3.9602272E-02  2.0501610E-02  4.2591930E-02
   17.2500  3.9304811E-02  2.0517101E-02  4.2310466E-02
   17.5000  3.8954167E-02  2.0577550E-02  4.1916003E-02
   17.7500  3.8575262E-02  2.0679429E-02  4.1420556E-02
   18.0000  3.8192609E-02  2.0819619E-02  4.0840850E-02
   18.2500  3.7828526E-02  2.0995359E-02  4.0196489E-02
   18.5000  3.7501899E-02  2.1204213E-02  3.9508088E-02
   18.7500  3.7227476E-02  2.1444045E-02  3.8795637E-02
   19.0000  3.7015623E-02  2.1713017E-02  3.8077219E-02
   19.2500  3.6872428E-02  2.2009595E-02  3.7368133E-02
   19.5000  3.6800027E-02  2.2332566E-02  3.6680389E-02
   19.7500  3.6796982E-02  2.2680990E-02  3.6022581E-02
   20.0000  3.6858559E-02  2.3054001E-02  3.5400234E-02
   21.0000  3.7558946E-02  2.4761438E-02  3.3314059E-02
   22.0000  3.8371194E-02  2.6716858E-02  3.1849357E-02
   23.0000  3.8470027E-02  2.8732587E-02  3.0809884E-02
   24.0000  3.7391619E-02  3.0544906E-02  2.9971816E-02
   25.0000  3.5278853E-02  3.1968741E-02  2.9179960E-02
   26.0000  3.2682124E-02  3.2927356E-02  2.8365132E-02
   27.0000  3.0144498E-02  3.3430170E-02  2.7526355E-02
   28.0000  2.7972520E-02  3.3540157E-02  2.6702221E-02
   29.0000  2.6252497E-02  3.3340686E-02  2.5942253E-02
   30.0000  2.4949905E-02  3.2916589E-02  2.5283066E-02
   31.0000  2.3985166E-02  3.2343533E-02  2.4734735E-02
   32.0000  2.3271557E-02  3.1680885E-02  2.4279660E-02
   33.0000  2.2730358E-02  3.0969995E-02  2.3881034E-02
   34.0000  2.2295688E-02  3.0238645E-02  2.3494599E-02
   35.0000  2.1915654E-02  2.9508207E-02  2.3079647E-02
   36.0000  2.1553868E-02  2.8798308E-02  2.2608828E-02
   37.0000  2.1192402E-02  2.8126664E-02  2.2076727E-02
   38.0000  2.0834101E-02  2.7507795E-02  2.1506456E-02
   39.0000  2.0501114E-02  2.6959802E-02  2.0952263E-02
   40.0000  2.0226373E-02  2.6518418E-02  2.0489115E-02
