    Energy   (100,001)      (010,001)      (001,110)   
  -25.0000  1.7351414E-04  1.8896560E-04  1.7528653E-04
  -24.0000  1.7980029E-04  1.9594003E-04  1.8166922E-04
  -23.0000  1.8651522E-04  2.0340907E-04  1.8848993E-04
  -22.0000  1.9370306E-04  2.1142623E-04  1.9579400E-04
  -21.0000  2.0141413E-04  2.2005292E-04  2.0363319E-04
  -20.0000  2.0970604E-04  2.2936001E-04  2.1206678E-04
  -19.0000  2.1864508E-04  2.3942965E-04  2.2116304E-04
  -18.0000  2.2830789E-04  2.5035761E-04  2.3100096E-04
  -17.0000  2.3878357E-04  2.6225619E-04  2.4167246E-04
  -16.0000  2.5017628E-04  2.7525793E-04  2.5328508E-04
  -15.0000  2.6260859E-04  2.8952035E-04  2.6596549E-04
  -14.0000  2.7622570E-04  3.0523204E-04  2.7986393E-04
  -13.0000  2.9120090E-04  3.2262067E-04  2.9515991E-04
  -12.0000  3.0774275E-04  3.4196353E-04  3.1206975E-04
  -11.0000  3.2610453E-04  3.6360177E-04  3.3085652E-04
  -10.0000  3.4659689E-04  3.8795967E-04  3.5184345E-04
  -9.00000  3.6960523E-04  4.1557135E-04  3.7543228E-04
  -8.00000  3.9561377E-04  4.4711852E-04  4.0212888E-04
  -7.00000  4.2523967E-04  4.8348477E-04  4.3257976E-04
  -6.00000  4.5928268E-04  5.2583572E-04  4.6762541E-04
  -5.00000  4.9879933E-04  5.7574072E-04  5.0838067E-04
  -4.00000  5.4521737E-04  6.3536364E-04  5.5636002E-04
  -3.00000  6.0051967E-04  7.0777408E-04  6.1368117E-04
  -2.00000  6.6755402E-04  7.9747979E-04  6.8341405E-04
  -1.00000  7.5058819E-04  9.1139365E-04  7.7021949E-04
   0.00000  8.5638573E-04  1.0607313E-03  8.8162414E-04
   1.00000  9.9652687E-04  1.2651468E-03  1.0308817E-03
   2.00000  1.1932390E-03  1.5631952E-03  1.2445555E-03
   3.00000  1.4978439E-03  2.0455604E-03  1.5882752E-03
   4.00000  2.0749358E-03  3.0067775E-03  2.2949235E-03
   5.00000  3.6435623E-03  5.7391141E-03  4.4280794E-03
   5.20000  4.1308590E-03  6.5952315E-03  5.0389234E-03
   5.40000  4.6168773E-03  7.4478379E-03  5.5731889E-03
   5.60000  5.0883523E-03  8.2740301E-03  6.0139925E-03
   5.80000  5.5520930E-03  9.0872422E-03  6.3884052E-03
   6.00000  6.0206594E-03  9.9111026E-03  6.7325269E-03
   6.20000  6.5057184E-03  1.0767208E-02  7.0759872E-03
   6.40000  7.0169380E-03  1.1672692E-02  7.4396440E-03
   6.60000  7.5626256E-03  1.2640750E-02  7.8373961E-03
   6.80000  8.1505189E-03  1.3681727E-02  8.2787079E-03
   7.00000  8.7881745E-03  1.4804529E-02  8.7710079E-03
   7.20000  9.4828794E-03  1.6018427E-02  9.3217273E-03
   7.40000  1.0241264E-02  1.7335001E-02  9.9397450E-03
   7.60000  1.1068866E-02  1.8769839E-02  1.0635924E-02
   7.80000  1.1969751E-02  2.0343540E-02  1.1422494E-02
   8.00000  1.2946126E-02  2.2081523E-02  1.2311272E-02
   8.20000  1.3997821E-02  2.4012399E-02  1.3310976E-02
   8.40000  1.5121711E-02  2.6164990E-02  1.4424196E-02
   8.60000  1.6311296E-02  2.8564206E-02  1.5644966E-02
   8.80000  1.7556822E-02  3.1226064E-02  1.6958317E-02
   9.00000  1.8846494E-02  3.4152031E-02  1.8343113E-02
   9.20000  2.0169062E-02  3.7322738E-02  1.9778148E-02
   9.40000  2.1516823E-02  4.0691274E-02  2.1249231E-02
   9.60000  2.2887161E-02  4.4176613E-02  2.2753274E-02
   9.80000  2.4281145E-02  4.7658611E-02  2.4296357E-02
   10.0000  2.5699156E-02  5.0977163E-02  2.5886228E-02
   10.2500  2.7495398E-02  5.4599586E-02  2.7938064E-02
   10.5000  2.9283900E-02  5.7265680E-02  3.0029325E-02
   10.7500  3.1002891E-02  5.8646965E-02  3.2088637E-02
   11.0000  3.2573477E-02  5.8588797E-02  3.4017704E-02
   11.2500  3.3915304E-02  5.7163684E-02  3.5712601E-02
   11.5000  3.4964279E-02  5.4641653E-02  3.7085192E-02
   11.7500  3.5688820E-02  5.1397109E-02  3.8078708E-02
   12.0000  3.6097072E-02  4.7805660E-02  3.8675743E-02
   12.2500  3.6231669E-02  4.4173297E-02  3.8898120E-02
   12.5000  3.6156305E-02  4.0709744E-02  3.8799806E-02
   12.7500  3.5940522E-02  3.7535138E-02  3.8455203E-02
   13.0000  3.5647749E-02  3.4702053E-02  3.7946110E-02
   13.2500  3.5328660E-02  3.2219091E-02  3.7350714E-02
   13.5000  3.5019322E-02  3.0069731E-02  3.6736357E-02
   13.7500  3.4742974E-02  2.8225195E-02  3.6156262E-02
   14.0000  3.4513265E-02  2.6652367E-02  3.5649303E-02
   14.2500  3.4337228E-02  2.5318310E-02  3.5241617E-02
   14.5000  3.4217432E-02  2.4192567E-02  3.4948851E-02
   14.7500  3.4153338E-02  2.3248078E-02  3.4778269E-02
   15.0000  3.4142083E-02  2.2461325E-02  3.4730443E-02
   15.2500  3.4178938E-02  2.1812098E-02  3.4800462E-02
   15.5000  3.4257591E-02  2.1283117E-02  3.4978780E-02
   15.7500  3.4370344E-02  2.0859632E-02  3.5251795E-02
   16.0000  3.4508301E-02  2.0529045E-02  3.5602355E-02
   16.2500  3.4661614E-02  2.0280601E-02  3.6010328E-02
   16.5000  3.4819854E-02  2.0105123E-02  3.6453390E-02
   16.7500  3.4972541E-02  1.9994814E-02  3.6908082E-02
   17.0000  3.5109819E-02  1.9943097E-02  3.7351119E-02
   17.2500  3.5223212E-02  1.9944481E-02  3.7760845E-02
   17.5000  3.5306373E-02  1.9994447E-02  3.8118630E-02
   17.7500  3.5355706E-02  2.0089320E-02  3.8410009E-02
   18.0000  3.5370751E-02  2.0226145E-02  3.8625385E-02
   18.2500  3.5354261E-02  2.0402546E-02  3.8760194E-02
   18.5000  3.5311929E-02  2.0616580E-02  3.8814566E-02
   18.7500  3.5251802E-02  2.0866603E-02  3.8792568E-02
   19.0000  3.5183446E-02  2.1151165E-02  3.8701185E-02
   19.2500  3.5116975E-02  2.1468948E-02  3.8549202E-02
   19.5000  3.5062059E-02  2.1818738E-02  3.8346128E-02
   19.7500  3.5027020E-02  2.2199369E-02  3.8101333E-02
   20.0000  3.5018160E-02  2.2609517E-02  3.7823570E-02
   21.0000  3.5290992E-02  2.4498256E-02  3.6536307E-02
   22.0000  3.5937848E-02  2.6646347E-02  3.5210511E-02
   23.0000  3.6528361E-02  2.8863267E-02  3.3957404E-02
   24.0000  3.6593345E-02  3.0937942E-02  3.2757582E-02
   25.0000  3.5880478E-02  3.2664702E-02  3.1565241E-02
   26.0000  3.4443925E-02  3.3892574E-02  3.0363603E-02
   27.0000  3.2581696E-02  3.4567496E-02  2.9187205E-02
   28.0000  3.0670297E-02  3.4735711E-02  2.8109493E-02
   29.0000  2.8996021E-02  3.4507548E-02  2.7206612E-02
   30.0000  2.7682184E-02  3.4009727E-02  2.6522308E-02
   31.0000  2.6721007E-02  3.3350747E-02  2.6052727E-02
   32.0000  2.6041820E-02  3.2606869E-02  2.5753474E-02
   33.0000  2.5557007E-02  3.1831032E-02  2.5556207E-02
   34.0000  2.5184625E-02  3.1061133E-02  2.5389289E-02
   35.0000  2.4867696E-02  3.0305930E-02  2.5202917E-02
   36.0000  2.4573815E-02  2.9560444E-02  2.4972324E-02
   37.0000  2.4289143E-02  2.8824122E-02  2.4693935E-02
   38.0000  2.4015305E-02  2.8108884E-02  2.4385030E-02
   39.0000  2.3766120E-02  2.7448942E-02  2.4081845E-02
   40.0000  2.3562565E-02  2.6907275E-02  2.3829183E-02
