    Energy   (100,001)      (010,001)      (001,110)   
  -25.0000  1.6736607E-04  1.7742450E-04  1.8242669E-04
  -24.0000  1.7334374E-04  1.8437806E-04  1.8885260E-04
  -23.0000  1.7972011E-04  1.9184383E-04  1.9571082E-04
  -22.0000  1.8653516E-04  1.9987866E-04  2.0304555E-04
  -21.0000  1.9383433E-04  2.0854798E-04  2.1090722E-04
  -20.0000  2.0166944E-04  2.1792745E-04  2.1935354E-04
  -19.0000  2.1009993E-04  2.2810503E-04  2.2845090E-04
  -18.0000  2.1919423E-04  2.3918355E-04  2.3827603E-04
  -17.0000  2.2903154E-04  2.5128396E-04  2.4891814E-04
  -16.0000  2.3970408E-04  2.6454941E-04  2.6048151E-04
  -15.0000  2.5131983E-04  2.7915058E-04  2.7308884E-04
  -14.0000  2.6400607E-04  2.9529250E-04  2.8688549E-04
  -13.0000  2.7791391E-04  3.1322357E-04  3.0204495E-04
  -12.0000  2.9322415E-04  3.3324746E-04  3.1877608E-04
  -11.0000  3.1015503E-04  3.5573922E-04  3.3733253E-04
  -10.0000  3.2897250E-04  3.8116726E-04  3.5802559E-04
  -9.00000  3.5000424E-04  4.1012394E-04  3.8124160E-04
  -8.00000  3.7365883E-04  4.4336890E-04  4.0746622E-04
  -7.00000  4.0045297E-04  4.8189189E-04  4.3731898E-04
  -6.00000  4.3105052E-04  5.2700589E-04  4.7160341E-04
  -5.00000  4.6632054E-04  5.8048942E-04  5.1138216E-04
  -4.00000  5.0742603E-04  6.4481103E-04  5.5809300E-04
  -3.00000  5.5596538E-04  7.2349783E-04  6.1373513E-04
  -2.00000  6.1420867E-04  8.2177003E-04  6.8118275E-04
  -1.00000  6.8551752E-04  9.4770065E-04  7.6474458E-04
   0.00000  7.7515232E-04  1.1145042E-03  8.7123931E-04
   1.00000  8.9200115E-04  1.3455436E-03  1.0122789E-03
   2.00000  1.0529013E-03  1.6870109E-03  1.2098423E-03
   3.00000  1.2963131E-03  2.2480392E-03  1.5130780E-03
   4.00000  1.7453353E-03  3.3820363E-03  2.0696210E-03
   5.00000  2.9264844E-03  6.6321221E-03  3.4891466E-03
   5.20000  3.2732675E-03  7.6624959E-03  3.9441257E-03
   5.40000  3.6057596E-03  8.7044415E-03  4.4308392E-03
   5.60000  3.9204199E-03  9.7359969E-03  4.9488142E-03
   5.80000  4.2314249E-03  1.0774840E-02  5.5092803E-03
   6.00000  4.5559380E-03  1.1847277E-02  6.1243493E-03
   6.20000  4.9080591E-03  1.2975008E-02  6.8028422E-03
   6.40000  5.2982423E-03  1.4174475E-02  7.5506791E-03
   6.60000  5.7342759E-03  1.5459973E-02  8.3725590E-03
   6.80000  6.2224575E-03  1.6846572E-02  9.2728860E-03
   7.00000  6.7685315E-03  1.8351527E-02  1.0254758E-02
   7.20000  7.3781341E-03  1.9994136E-02  1.1316903E-02
   7.40000  8.0566155E-03  2.1794817E-02  1.2449487E-02
   7.60000  8.8082215E-03  2.3773866E-02  1.3630380E-02
   7.80000  9.6346581E-03  2.5949551E-02  1.4823790E-02
   8.00000  1.0533151E-02  2.8334579E-02  1.5983214E-02
   8.20000  1.1494355E-02  3.0930144E-02  1.7059492E-02
   8.40000  1.2500865E-02  3.3718183E-02  1.8012106E-02
   8.60000  1.3527802E-02  3.6655345E-02  1.8820570E-02
   8.80000  1.4546811E-02  3.9674161E-02  1.9491739E-02
   9.00000  1.5532798E-02  4.2693986E-02  2.0057653E-02
   9.20000  1.6470359E-02  4.5637214E-02  2.0563495E-02
   9.40000  1.7356379E-02  4.8440579E-02  2.1052335E-02
   9.60000  1.8197530E-02  5.1053239E-02  2.1554455E-02
   9.80000  1.9004525E-02  5.3422280E-02  2.2084498E-02
   10.0000  1.9786526E-02  5.5474673E-02  2.2644597E-02
   10.2500  2.0735437E-02  5.7435036E-02  2.3379136E-02
   10.5000  2.1652087E-02  5.8491206E-02  2.4139208E-02
   10.7500  2.2532540E-02  5.8424332E-02  2.4915211E-02
   11.0000  2.3374227E-02  5.7146660E-02  2.5704134E-02
   11.2500  2.4176334E-02  5.4764047E-02  2.6507017E-02
   11.5000  2.4938116E-02  5.1553954E-02  2.7324703E-02
   11.7500  2.5657479E-02  4.7875984E-02  2.8156719E-02
   12.0000  2.6329717E-02  4.4074392E-02  2.9003162E-02
   12.2500  2.6948407E-02  4.0415328E-02  2.9864393E-02
   12.5000  2.7509382E-02  3.7065877E-02  3.0738492E-02
   12.7500  2.8015333E-02  3.4104213E-02  3.1620167E-02
   13.0000  2.8478155E-02  3.1545422E-02  3.2501937E-02
   13.2500  2.8918044E-02  2.9368265E-02  3.3376323E-02
   13.5000  2.9359371E-02  2.7534490E-02  3.4238062E-02
   13.7500  2.9825668E-02  2.6000328E-02  3.5085346E-02
   14.0000  3.0336852E-02  2.4722970E-02  3.5919620E-02
   14.2500  3.0908290E-02  2.3663855E-02  3.6744232E-02
   14.5000  3.1550231E-02  2.2789908E-02  3.7562438E-02
   14.7500  3.2267302E-02  2.2073590E-02  3.8375176E-02
   15.0000  3.3058254E-02  2.1492399E-02  3.9178967E-02
   15.2500  3.3915965E-02  2.1028159E-02  3.9964206E-02
   15.5000  3.4827676E-02  2.0666287E-02  4.0714180E-02
   15.7500  3.5775464E-02  2.0395089E-02  4.1405161E-02
   16.0000  3.6736988E-02  2.0205148E-02  4.2007882E-02
   16.2500  3.7686618E-02  2.0088790E-02  4.2490512E-02
   16.5000  3.8596979E-02  2.0039647E-02  4.2822839E-02
   16.7500  3.9440905E-02  2.0052309E-02  4.2980959E-02
   17.0000  4.0193634E-02  2.0122060E-02  4.2951415E-02
   17.2500  4.0835006E-02  2.0244693E-02  4.2733730E-02
   17.5000  4.1351295E-02  2.0416392E-02  4.2340685E-02
   17.7500  4.1736333E-02  2.0633661E-02  4.1796318E-02
   18.0000  4.1991708E-02  2.0893288E-02  4.1132326E-02
   18.2500  4.2126019E-02  2.1192326E-02  4.0383823E-02
   18.5000  4.2153362E-02  2.1528071E-02  3.9585437E-02
   18.7500  4.2091389E-02  2.1898051E-02  3.8768338E-02
   19.0000  4.1959285E-02  2.2300016E-02  3.7958438E-02
   19.2500  4.1775948E-02  2.2731941E-02  3.7175621E-02
   19.5000  4.1558574E-02  2.3192034E-02  3.6433759E-02
   19.7500  4.1321750E-02  2.3678668E-02  3.5741266E-02
   20.0000  4.1077164E-02  2.4190097E-02  3.5102118E-02
   21.0000  4.0174028E-02  2.6422537E-02  3.3076807E-02
   22.0000  3.9520828E-02  2.8763522E-02  3.1773289E-02
   23.0000  3.8957427E-02  3.0933827E-02  3.0936298E-02
   24.0000  3.8148660E-02  3.2645043E-02  3.0350618E-02
   25.0000  3.6855052E-02  3.3693107E-02  2.9880464E-02
   26.0000  3.5090975E-02  3.4038182E-02  2.9455938E-02
   27.0000  3.3086795E-02  3.3790476E-02  2.9056192E-02
   28.0000  3.1128749E-02  3.3130215E-02  2.8692146E-02
   29.0000  2.9425000E-02  3.2235873E-02  2.8383691E-02
   30.0000  2.8066562E-02  3.1246857E-02  2.8140574E-02
   31.0000  2.7051544E-02  3.0252042E-02  2.7957135E-02
   32.0000  2.6319167E-02  2.9296682E-02  2.7818193E-02
   33.0000  2.5780785E-02  2.8393548E-02  2.7705679E-02
   34.0000  2.5354873E-02  2.7527336E-02  2.7600802E-02
   35.0000  2.4976129E-02  2.6670401E-02  2.7485416E-02
   36.0000  2.4597172E-02  2.5800358E-02  2.7344021E-02
   37.0000  2.4193276E-02  2.4912889E-02  2.7167357E-02
   38.0000  2.3765544E-02  2.4030938E-02  2.6957573E-02
   39.0000  2.3342780E-02  2.3211607E-02  2.6734185E-02
   40.0000  2.2979536E-02  2.2540857E-02  2.6535888E-02
