    Energy   (100,001)      (010,001)      (001,110)   
  -25.0000  1.6575464E-04  1.8991578E-04  1.7702031E-04
  -24.0000  1.7193278E-04  1.9685069E-04  1.8363312E-04
  -23.0000  1.7853671E-04  2.0427290E-04  1.9071058E-04
  -22.0000  1.8561026E-04  2.1223471E-04  1.9830189E-04
  -21.0000  1.9320336E-04  2.2079609E-04  2.0646337E-04
  -20.0000  2.0137318E-04  2.3002617E-04  2.1525974E-04
  -19.0000  2.1018540E-04  2.4000499E-04  2.2476575E-04
  -18.0000  2.1971592E-04  2.5082577E-04  2.3506820E-04
  -17.0000  2.3005286E-04  2.6259767E-04  2.4626844E-04
  -16.0000  2.4129914E-04  2.7544937E-04  2.5848554E-04
  -15.0000  2.5357567E-04  2.8953359E-04  2.7186036E-04
  -14.0000  2.6702550E-04  3.0503288E-04  2.8656067E-04
  -13.0000  2.8181908E-04  3.2216726E-04  3.0278799E-04
  -12.0000  2.9816114E-04  3.4120425E-04  3.2078640E-04
  -11.0000  3.1629980E-04  3.6247229E-04  3.4085451E-04
  -10.0000  3.3653870E-04  3.8637898E-04  3.6336158E-04
  -9.00000  3.5925358E-04  4.1343623E-04  3.8876975E-04
  -8.00000  3.8491518E-04  4.4429560E-04  4.1766547E-04
  -7.00000  4.1412160E-04  4.7979902E-04  4.5080467E-04
  -6.00000  4.4764527E-04  5.2105329E-04  4.8917944E-04
  -5.00000  4.8650273E-04  5.6954248E-04  5.3411975E-04
  -4.00000  5.3206200E-04  6.2730318E-04  5.8745370E-04
  -3.00000  5.8621438E-04  6.9720804E-04  6.5177163E-04
  -2.00000  6.5166287E-04  7.8344642E-04  7.3088429E-04
  -1.00000  7.3243680E-04  8.9238769E-04  8.3067219E-04
   0.00000  8.3488584E-04  1.0342520E-03  9.6079920E-04
   1.00000  9.6981626E-04  1.2266885E-03  1.1385870E-03
   2.00000  1.1578342E-03  1.5036350E-03  1.3992854E-03
   3.00000  1.4461475E-03  1.9427136E-03  1.8305479E-03
   4.00000  1.9845019E-03  2.7866602E-03  2.7391770E-03
   5.00000  3.4238188E-03  5.0732788E-03  5.5513687E-03
   5.20000  3.8755378E-03  5.7928356E-03  6.4344184E-03
   5.40000  4.3345728E-03  6.5246311E-03  7.2803077E-03
   5.60000  4.7905295E-03  7.2517674E-03  8.0467450E-03
   5.80000  5.2490718E-03  7.9841332E-03  8.7364753E-03
   6.00000  5.7195869E-03  8.7400311E-03  9.3699036E-03
   6.20000  6.2096886E-03  9.5379390E-03  9.9705801E-03
   6.40000  6.7242981E-03  1.0395120E-02  1.0559849E-02
   6.60000  7.2660053E-03  1.1327998E-02  1.1154620E-02
   6.80000  7.8356229E-03  1.2352542E-02  1.1767013E-02
   7.00000  8.4327776E-03  1.3484324E-02  1.2405539E-02
   7.20000  9.0565814E-03  1.4738255E-02  1.3076980E-02
   7.40000  9.7064177E-03  1.6128080E-02  1.3788078E-02
   7.60000  1.0382802E-02  1.7665707E-02  1.4546466E-02
   7.80000  1.1088270E-02  1.9360626E-02  1.5360981E-02
   8.00000  1.1828237E-02  2.1219751E-02  1.6242298E-02
   8.20000  1.2611413E-02  2.3247786E-02  1.7203559E-02
   8.40000  1.3449200E-02  2.5447760E-02  1.8259304E-02
   8.60000  1.4354239E-02  2.7821369E-02  1.9422934E-02
   8.80000  1.5338640E-02  3.0368574E-02  2.0704007E-02
   9.00000  1.6412241E-02  3.3085606E-02  2.2105924E-02
   9.20000  1.7581078E-02  3.5960641E-02  2.3624103E-02
   9.40000  1.8846172E-02  3.8967210E-02  2.5244628E-02
   9.60000  2.0202794E-02  4.2056648E-02  2.6943384E-02
   9.80000  2.1640124E-02  4.5151814E-02  2.8685924E-02
   10.0000  2.3140749E-02  4.8143883E-02  3.0428551E-02
   10.2500  2.5067221E-02  5.1524717E-02  3.2529504E-02
   10.5000  2.6991259E-02  5.4215977E-02  3.4447331E-02
   10.7500  2.8843117E-02  5.5933695E-02  3.6088092E-02
   11.0000  3.0555962E-02  5.6502556E-02  3.7385377E-02
   11.2500  3.2075123E-02  5.5908707E-02  3.8312619E-02
   11.5000  3.3364637E-02  5.4296735E-02  3.8885219E-02
   11.7500  3.4409725E-02  5.1915711E-02  3.9149756E-02
   12.0000  3.5215166E-02  4.9047242E-02  3.9166843E-02
   12.2500  3.5801463E-02  4.5949337E-02  3.8998183E-02
   12.5000  3.6200760E-02  4.2826934E-02  3.8699975E-02
   12.7500  3.6452631E-02  3.9824330E-02  3.8320139E-02
   13.0000  3.6598761E-02  3.7031035E-02  3.7896868E-02
   13.2500  3.6677783E-02  3.4493486E-02  3.7458557E-02
   13.5000  3.6722566E-02  3.2227671E-02  3.7026403E-02
   13.7500  3.6759414E-02  3.0230191E-02  3.6617824E-02
   14.0000  3.6807898E-02  2.8486632E-02  3.6248497E-02
   14.2500  3.6881169E-02  2.6977118E-02  3.5932845E-02
   14.5000  3.6986707E-02  2.5679670E-02  3.5683580E-02
   14.7500  3.7127235E-02  2.4572187E-02  3.5510796E-02
   15.0000  3.7301609E-02  2.3633585E-02  3.5421027E-02
   15.2500  3.7505577E-02  2.2844393E-02  3.5416528E-02
   15.5000  3.7732372E-02  2.2187003E-02  3.5494852E-02
   15.7500  3.7973181E-02  2.1645717E-02  3.5648740E-02
   16.0000  3.8217573E-02  2.1206666E-02  3.5866319E-02
   16.2500  3.8453966E-02  2.0857691E-02  3.6131662E-02
   16.5000  3.8670241E-02  2.0588213E-02  3.6425725E-02
   16.7500  3.8854522E-02  2.0389105E-02  3.6727652E-02
   17.0000  3.8996099E-02  2.0252581E-02  3.7016380E-02
   17.2500  3.9086421E-02  2.0172086E-02  3.7272348E-02
   17.5000  3.9119980E-02  2.0142174E-02  3.7479102E-02
   17.7500  3.9094971E-02  2.0158378E-02  3.7624513E-02
   18.0000  3.9013560E-02  2.0217071E-02  3.7701440E-02
   18.2500  3.8881745E-02  2.0315313E-02  3.7707753E-02
   18.5000  3.8708809E-02  2.0450714E-02  3.7645775E-02
   18.7500  3.8506467E-02  2.0621310E-02  3.7521326E-02
   19.0000  3.8287837E-02  2.0825479E-02  3.7342551E-02
   19.2500  3.8066355E-02  2.1061890E-02  3.7118740E-02
   19.5000  3.7854755E-02  2.1329482E-02  3.6859278E-02
   19.7500  3.7664216E-02  2.1627414E-02  3.6572873E-02
   20.0000  3.7503837E-02  2.1954890E-02  3.6267210E-02
   21.0000  3.7274062E-02  2.3533336E-02  3.4977132E-02
   22.0000  3.7717435E-02  2.5463767E-02  3.3762731E-02
   23.0000  3.8425444E-02  2.7627437E-02  3.2688190E-02
   24.0000  3.8669213E-02  2.9858526E-02  3.1711185E-02
   25.0000  3.7809551E-02  3.1924972E-02  3.0766272E-02
   26.0000  3.5759010E-02  3.3574668E-02  2.9812537E-02
   27.0000  3.3015642E-02  3.4684922E-02  2.8846410E-02
   28.0000  3.0255661E-02  3.5255279E-02  2.7909396E-02
   29.0000  2.7933682E-02  3.5360385E-02  2.7071860E-02
   30.0000  2.6193257E-02  3.5114026E-02  2.6399056E-02
   31.0000  2.4977730E-02  3.4632051E-02  2.5921452E-02
   32.0000  2.4153012E-02  3.4006575E-02  2.5622919E-02
   33.0000  2.3579895E-02  3.3296812E-02  2.5449335E-02
   34.0000  2.3144922E-02  3.2533164E-02  2.5328597E-02
   35.0000  2.2767872E-02  3.1727941E-02  2.5190334E-02
   36.0000  2.2399057E-02  3.0887025E-02  2.4980519E-02
   37.0000  2.2016017E-02  3.0021194E-02  2.4671831E-02
   38.0000  2.1621537E-02  2.9157521E-02  2.4271874E-02
   39.0000  2.1242326E-02  2.8351768E-02  2.3830053E-02
   40.0000  2.0922455E-02  2.7690873E-02  2.3433082E-02
