    Energy   (100,001)      (010,001)      (001,110)   
  -25.0000  1.6568829E-04  1.8194653E-04  1.7041866E-04
  -24.0000  1.7189914E-04  1.8893793E-04  1.7682705E-04
  -23.0000  1.7853918E-04  1.9643904E-04  1.8368362E-04
  -22.0000  1.8565261E-04  2.0450617E-04  1.9103529E-04
  -21.0000  1.9328979E-04  2.1320408E-04  1.9893559E-04
  -20.0000  2.0150830E-04  2.2260768E-04  2.0744593E-04
  -19.0000  2.1037433E-04  2.3280402E-04  2.1663703E-04
  -18.0000  2.1996433E-04  2.4389487E-04  2.2659077E-04
  -17.0000  2.3036699E-04  2.5599990E-04  2.3740248E-04
  -16.0000  2.4168588E-04  2.6926074E-04  2.4918372E-04
  -15.0000  2.5404258E-04  2.8384629E-04  2.6206596E-04
  -14.0000  2.6758083E-04  2.9995943E-04  2.7620510E-04
  -13.0000  2.8247176E-04  3.1784598E-04  2.9178746E-04
  -12.0000  2.9892073E-04  3.3780658E-04  3.0903750E-04
  -11.0000  3.1717632E-04  3.6021261E-04  3.2822810E-04
  -10.0000  3.3754234E-04  3.8552817E-04  3.4969431E-04
  -9.00000  3.6039417E-04  4.1434053E-04  3.7385215E-04
  -8.00000  3.8620117E-04  4.4740346E-04  4.0122473E-04
  -7.00000  4.1555847E-04  4.8570011E-04  4.3247924E-04
  -6.00000  4.4923263E-04  5.3053658E-04  4.6848081E-04
  -5.00000  4.8822937E-04  5.8368527E-04  5.1037290E-04
  -4.00000  5.3389716E-04  6.4761204E-04  5.5970139E-04
  -3.00000  5.8809195E-04  7.2585085E-04  6.1861415E-04
  -2.00000  6.5345172E-04  8.2365295E-04  6.9019773E-04
  -1.00000  7.3388228E-04  9.4918245E-04  7.7908207E-04
   0.00000  8.3548640E-04  1.1158985E-03  8.9261805E-04
   1.00000  9.6853762E-04  1.3478300E-03  1.0434364E-03
   2.00000  1.1523502E-03  1.6931336E-03  1.2559512E-03
   3.00000  1.4303510E-03  2.2677399E-03  1.5872987E-03
   4.00000  1.9370002E-03  3.4563010E-03  2.2252191E-03
   5.00000  3.2487262E-03  6.9724569E-03  4.0013214E-03
   5.20000  3.6621547E-03  8.0908857E-03  4.5398014E-03
   5.40000  4.0879553E-03  9.2093677E-03  5.0531127E-03
   5.60000  4.5169025E-03  1.0297927E-02  5.5221404E-03
   5.80000  4.9536120E-03  1.1375584E-02  5.9621626E-03
   6.00000  5.4069137E-03  1.2474260E-02  6.4045427E-03
   6.20000  5.8851255E-03  1.3619521E-02  6.8825079E-03
   6.40000  6.3941608E-03  1.4825762E-02  7.4222037E-03
   6.60000  6.9358535E-03  1.6097731E-02  8.0371394E-03
   6.80000  7.5064388E-03  1.7434442E-02  8.7253382E-03
   7.00000  8.0967646E-03  1.8834037E-02  9.4703596E-03
   7.20000  8.6960099E-03  2.0299127E-02  1.0248350E-02
   7.40000  9.2983018E-03  2.1841369E-02  1.1040086E-02
   7.60000  9.9081509E-03  2.3483031E-02  1.1841260E-02
   7.80000  1.0540679E-02  2.5254586E-02  1.2664060E-02
   8.00000  1.1217053E-02  2.7189490E-02  1.3530379E-02
   8.20000  1.1959057E-02  2.9318348E-02  1.4462883E-02
   8.40000  1.2785725E-02  3.1663723E-02  1.5478831E-02
   8.60000  1.3712251E-02  3.4235246E-02  1.6587502E-02
   8.80000  1.4750037E-02  3.7024060E-02  1.7790057E-02
   9.00000  1.5906848E-02  3.9996160E-02  1.9080720E-02
   9.20000  1.7186544E-02  4.3085361E-02  2.0448741E-02
   9.40000  1.8588271E-02  4.6188103E-02  2.1880790E-02
   9.60000  2.0105102E-02  4.9163486E-02  2.3363100E-02
   9.80000  2.1722201E-02  5.1842114E-02  2.4882383E-02
   10.0000  2.3415025E-02  5.4045429E-02  2.6425651E-02
   10.2500  2.5583111E-02  5.5890655E-02  2.8369138E-02
   10.5000  2.7725856E-02  5.6541306E-02  3.0307319E-02
   10.7500  2.9744561E-02  5.5965427E-02  3.2219571E-02
   11.0000  3.1544322E-02  5.4306168E-02  3.4084207E-02
   11.2500  3.3048081E-02  5.1829299E-02  3.5874690E-02
   11.5000  3.4211301E-02  4.8846412E-02  3.7557700E-02
   11.7500  3.5032707E-02  4.5647594E-02  3.9092936E-02
   12.0000  3.5554050E-02  4.2461475E-02  4.0436183E-02
   12.2500  3.5848514E-02  3.9442743E-02  4.1546394E-02
   12.5000  3.6002956E-02  3.6678649E-02  4.2394421E-02
   12.7500  3.6100507E-02  3.4204926E-02  4.2970501E-02
   13.0000  3.6209263E-02  3.2023426E-02  4.3288337E-02
   13.2500  3.6378349E-02  3.0117023E-02  4.3383482E-02
   13.5000  3.6638417E-02  2.8460546E-02  4.3306482E-02
   13.7500  3.7003936E-02  2.7027480E-02  4.3113787E-02
   14.0000  3.7475981E-02  2.5792949E-02  4.2858922E-02
   14.2500  3.8044779E-02  2.4734527E-02  4.2585931E-02
   14.5000  3.8691756E-02  2.3832273E-02  4.2326043E-02
   14.7500  3.9391242E-02  2.3068567E-02  4.2097165E-02
   15.0000  4.0112117E-02  2.2427936E-02  4.1905256E-02
   15.2500  4.0819693E-02  2.1896887E-02  4.1746687E-02
   15.5000  4.1477997E-02  2.1463759E-02  4.1610962E-02
   15.7500  4.2052495E-02  2.1118563E-02  4.1483412E-02
   16.0000  4.2513108E-02  2.0852803E-02  4.1347666E-02
   16.2500  4.2837134E-02  2.0659282E-02  4.1187786E-02
   16.5000  4.3011610E-02  2.0531880E-02  4.0990010E-02
   16.7500  4.3034638E-02  2.0465333E-02  4.0744050E-02
   17.0000  4.2915354E-02  2.0455020E-02  4.0443898E-02
   17.2500  4.2672544E-02  2.0496790E-02  4.0088095E-02
   17.5000  4.2332150E-02  2.0586813E-02  3.9679491E-02
   17.7500  4.1924171E-02  2.0721496E-02  3.9224558E-02
   18.0000  4.1479485E-02  2.0897426E-02  3.8732421E-02
   18.2500  4.1027055E-02  2.1111353E-02  3.8213750E-02
   18.5000  4.0591848E-02  2.1360198E-02  3.7679705E-02
   18.7500  4.0193544E-02  2.1641081E-02  3.7141024E-02
   19.0000  3.9846003E-02  2.1951369E-02  3.6607337E-02
   19.2500  3.9557349E-02  2.2288740E-02  3.6086690E-02
   19.5000  3.9330456E-02  2.2651245E-02  3.5585276E-02
   19.7500  3.9163651E-02  2.3037311E-02  3.5107367E-02
   20.0000  3.9051422E-02  2.3445557E-02  3.4655536E-02
   21.0000  3.8945129E-02  2.5262520E-02  3.3129218E-02
   22.0000  3.8817177E-02  2.7272281E-02  3.2027599E-02
   23.0000  3.8056775E-02  2.9324885E-02  3.1217581E-02
   24.0000  3.6459705E-02  3.1212811E-02  3.0530695E-02
   25.0000  3.4229981E-02  3.2702588E-02  2.9823810E-02
   26.0000  3.1785906E-02  3.3623291E-02  2.9031604E-02
   27.0000  2.9537964E-02  3.3943247E-02  2.8186348E-02
   28.0000  2.7699379E-02  3.3770201E-02  2.7362471E-02
   29.0000  2.6312609E-02  3.3271392E-02  2.6631636E-02
   30.0000  2.5326204E-02  3.2598634E-02  2.6034852E-02
   31.0000  2.4644475E-02  3.1852876E-02  2.5573210E-02
   32.0000  2.4162163E-02  3.1081334E-02  2.5217343E-02
   33.0000  2.3784558E-02  3.0292728E-02  2.4922463E-02
   34.0000  2.3436084E-02  2.9477148E-02  2.4640102E-02
   35.0000  2.3063272E-02  2.8622581E-02  2.4325760E-02
   36.0000  2.2637317E-02  2.7725352E-02  2.3945643E-02
   37.0000  2.2157205E-02  2.6796137E-02  2.3485135E-02
   38.0000  2.1650361E-02  2.5866335E-02  2.2958982E-02
   39.0000  2.1167683E-02  2.4998116E-02  2.2420243E-02
   40.0000  2.0769633E-02  2.4285154E-02  2.1955018E-02
