    Energy   (100,001)      (010,001)      (001,110)   
  -25.0000  1.7531582E-04  1.7969611E-04  1.8336203E-04
  -24.0000  1.8149297E-04  1.8659361E-04  1.8980574E-04
  -23.0000  1.8808183E-04  1.9399113E-04  1.9668153E-04
  -22.0000  1.9512392E-04  2.0194342E-04  2.0403343E-04
  -21.0000  2.0266644E-04  2.1051341E-04  2.1191163E-04
  -20.0000  2.1076331E-04  2.1977377E-04  2.2037353E-04
  -19.0000  2.1947640E-04  2.2980881E-04  2.2948511E-04
  -18.0000  2.2887706E-04  2.4071691E-04  2.3932264E-04
  -17.0000  2.3904794E-04  2.5261357E-04  2.4997465E-04
  -16.0000  2.5008540E-04  2.6563520E-04  2.6154460E-04
  -15.0000  2.6210241E-04  2.7994407E-04  2.7415412E-04
  -14.0000  2.7523233E-04  2.9573465E-04  2.8794716E-04
  -13.0000  2.8963369E-04  3.1324190E-04  3.0309540E-04
  -12.0000  3.0549649E-04  3.3275227E-04  3.1980526E-04
  -11.0000  3.2305042E-04  3.5461841E-04  3.3832721E-04
  -10.0000  3.4257583E-04  3.7927931E-04  3.5896822E-04
  -9.00000  3.6441871E-04  4.0728799E-04  3.8210883E-04
  -8.00000  3.8901126E-04  4.3935076E-04  4.0822680E-04
  -7.00000  4.1690090E-04  4.7638357E-04  4.3793075E-04
  -6.00000  4.4879224E-04  5.1959530E-04  4.7200912E-04
  -5.00000  4.8560909E-04  5.7061390E-04  5.1150348E-04
  -4.00000  5.2858962E-04  6.3168403E-04  5.5782214E-04
  -3.00000  5.7943768E-04  7.0598873E-04  6.1292358E-04
  -2.00000  6.4057547E-04  7.9819817E-04  6.7962800E-04
  -1.00000  7.1559167E-04  9.1546257E-04  7.6218125E-04
   0.00000  8.1010105E-04  1.0693506E-03  8.6736424E-04
   1.00000  9.3358040E-04  1.2800441E-03  1.0069348E-03
   2.00000  1.1039404E-03  1.5868494E-03  1.2039260E-03
   3.00000  1.3619222E-03  2.0811626E-03  1.5132479E-03
   4.00000  1.8369684E-03  3.0546870E-03  2.1192620E-03
   5.00000  3.0883608E-03  5.7775330E-03  3.8446084E-03
   5.20000  3.4660241E-03  6.6420280E-03  4.3713135E-03
   5.40000  3.8342098E-03  7.5184263E-03  4.8863985E-03
   5.60000  4.1827003E-03  8.3818082E-03  5.3806757E-03
   5.80000  4.5190812E-03  9.2381804E-03  5.8629043E-03
   6.00000  4.8564592E-03  1.0102110E-02  6.3393478E-03
   6.20000  5.2079501E-03  1.0987646E-02  6.8094288E-03
   6.40000  5.5858851E-03  1.1908812E-02  7.2701517E-03
   6.60000  6.0022870E-03  1.2882555E-02  7.7215403E-03
   6.80000  6.4693045E-03  1.3930600E-02  8.1696821E-03
   7.00000  6.9993478E-03  1.5078955E-02  8.6264428E-03
   7.20000  7.6049463E-03  1.6355311E-02  9.1065161E-03
   7.40000  8.2983506E-03  1.7785786E-02  9.6236424E-03
   7.60000  9.0907849E-03  1.9392911E-02  1.0188140E-02
   7.80000  9.9909979E-03  2.1195789E-02  1.0807082E-02
   8.00000  1.1002595E-02  2.3212170E-02  1.1486853E-02
   8.20000  1.2119984E-02  2.5461119E-02  1.2236213E-02
   8.40000  1.3323632E-02  2.7964136E-02  1.3067522E-02
   8.60000  1.4576708E-02  3.0742947E-02  1.3995264E-02
   8.80000  1.5826609E-02  3.3813726E-02  1.5032895E-02
   9.00000  1.7014502E-02  3.7178588E-02  1.6189686E-02
   9.20000  1.8092021E-02  4.0815203E-02  1.7468467E-02
   9.40000  1.9037960E-02  4.4665315E-02  1.8864336E-02
   9.60000  1.9865298E-02  4.8623624E-02  2.0364155E-02
   9.80000  2.0614567E-02  5.2529990E-02  2.1946825E-02
   10.0000  2.1338458E-02  5.6168973E-02  2.3584415E-02
   10.2500  2.2281731E-02  5.9945231E-02  2.5658026E-02
   10.5000  2.3328791E-02  6.2380188E-02  2.7695034E-02
   10.7500  2.4507411E-02  6.3094580E-02  2.9624516E-02
   11.0000  2.5806006E-02  6.2004139E-02  3.1383748E-02
   11.2500  2.7176931E-02  5.9362269E-02  3.2925368E-02
   11.5000  2.8545878E-02  5.5656011E-02  3.4219659E-02
   11.7500  2.9829214E-02  5.1428873E-02  3.5253676E-02
   12.0000  3.0954510E-02  4.7135496E-02  3.6030432E-02
   12.2500  3.1876187E-02  4.3079086E-02  3.6567677E-02
   12.5000  3.2581100E-02  3.9418902E-02  3.6895244E-02
   12.7500  3.3084807E-02  3.6209669E-02  3.7050288E-02
   13.0000  3.3422476E-02  3.3443491E-02  3.7072324E-02
   13.2500  3.3638194E-02  3.1081515E-02  3.7000059E-02
   13.5000  3.3776251E-02  2.9073690E-02  3.6869967E-02
   13.7500  3.3876542E-02  2.7369532E-02  3.6715695E-02
   14.0000  3.3972991E-02  2.5923224E-02  3.6567307E-02
   14.2500  3.4092933E-02  2.4695529E-02  3.6449893E-02
   14.5000  3.4256598E-02  2.3653988E-02  3.6382396E-02
   14.7500  3.4476640E-02  2.2772215E-02  3.6377781E-02
   15.0000  3.4758084E-02  2.2028853E-02  3.6443760E-02
   15.2500  3.5099076E-02  2.1406567E-02  3.6582723E-02
   15.5000  3.5492095E-02  2.0891217E-02  3.6791110E-02
   15.7500  3.5925192E-02  2.0471241E-02  3.7059068E-02
   16.0000  3.6383120E-02  2.0137171E-02  3.7370769E-02
   16.2500  3.6848468E-02  1.9881255E-02  3.7705378E-02
   16.5000  3.7302876E-02  1.9697137E-02  3.8038633E-02
   16.7500  3.7728355E-02  1.9579578E-02  3.8344935E-02
   17.0000  3.8108633E-02  1.9524220E-02  3.8599761E-02
   17.2500  3.8430426E-02  1.9527367E-02  3.8782095E-02
   17.5000  3.8684490E-02  1.9585805E-02  3.8876480E-02
   17.7500  3.8866293E-02  1.9696646E-02  3.8874351E-02
   18.0000  3.8976220E-02  1.9857208E-02  3.8774427E-02
   18.2500  3.9019254E-02  2.0064925E-02  3.8582150E-02
   18.5000  3.9004196E-02  2.0317291E-02  3.8308363E-02
   18.7500  3.8942525E-02  2.0611834E-02  3.7967541E-02
   19.0000  3.8847084E-02  2.0946129E-02  3.7575922E-02
   19.2500  3.8730751E-02  2.1317849E-02  3.7149773E-02
   19.5000  3.8605266E-02  2.1724826E-02  3.6704007E-02
   19.7500  3.8480319E-02  2.2165061E-02  3.6251265E-02
   20.0000  3.8363044E-02  2.2636514E-02  3.5801646E-02
   21.0000  3.8029418E-02  2.4774672E-02  3.4171512E-02
   22.0000  3.7842614E-02  2.7156661E-02  3.2951698E-02
   23.0000  3.7509185E-02  2.9575339E-02  3.2088608E-02
   24.0000  3.6746512E-02  3.1794460E-02  3.1436703E-02
   25.0000  3.5437907E-02  3.3558770E-02  3.0875049E-02
   26.0000  3.3660200E-02  3.4669814E-02  3.0335632E-02
   27.0000  3.1649529E-02  3.5071733E-02  2.9805384E-02
   28.0000  2.9712797E-02  3.4864981E-02  2.9313662E-02
   29.0000  2.8098233E-02  3.4235147E-02  2.8904248E-02
   30.0000  2.6911080E-02  3.3364363E-02  2.8608449E-02
   31.0000  2.6123051E-02  3.2388630E-02  2.8429152E-02
   32.0000  2.5636779E-02  3.1392162E-02  2.8337794E-02
   33.0000  2.5354919E-02  3.0402965E-02  2.8288347E-02
   34.0000  2.5202940E-02  2.9417697E-02  2.8235730E-02
   35.0000  2.5126635E-02  2.8425875E-02  2.8145694E-02
   36.0000  2.5085857E-02  2.7422013E-02  2.7996232E-02
   37.0000  2.5048293E-02  2.6414218E-02  2.7776892E-02
   38.0000  2.4988134E-02  2.5432048E-02  2.7492176E-02
   39.0000  2.4895535E-02  2.4534374E-02  2.7171959E-02
   40.0000  2.4790531E-02  2.3806811E-02  2.6878924E-02
