    Energy   (100,001)      (010,001)      (001,110)   
  -25.0000  1.6503466E-04  1.7201316E-04  1.6815204E-04
  -24.0000  1.7118672E-04  1.7885630E-04  1.7458291E-04
  -23.0000  1.7776267E-04  1.8620807E-04  1.8146946E-04
  -22.0000  1.8480605E-04  1.9412526E-04  1.8885993E-04
  -21.0000  1.9236644E-04  2.0267330E-04  1.9680947E-04
  -20.0000  2.0050053E-04  2.1192787E-04  2.0538144E-04
  -19.0000  2.0927345E-04  2.2197704E-04  2.1464894E-04
  -18.0000  2.1876031E-04  2.3292381E-04  2.2469673E-04
  -17.0000  2.2904828E-04  2.4488944E-04  2.3562367E-04
  -16.0000  2.4023899E-04  2.5801755E-04  2.4754572E-04
  -15.0000  2.5245167E-04  2.7247953E-04  2.6059978E-04
  -14.0000  2.6582711E-04  2.8848140E-04  2.7494858E-04
  -13.0000  2.8053268E-04  3.0627298E-04  2.9078709E-04
  -12.0000  2.9676894E-04  3.2615995E-04  3.0835080E-04
  -11.0000  3.1477820E-04  3.4852016E-04  3.2792678E-04
  -10.0000  3.3485595E-04  3.7382593E-04  3.4986861E-04
  -9.00000  3.5736632E-04  4.0267507E-04  3.7461675E-04
  -8.00000  3.8276321E-04  4.3583487E-04  4.0272695E-04
  -7.00000  4.1161996E-04  4.7430577E-04  4.3491073E-04
  -6.00000  4.4467171E-04  5.1941579E-04  4.7209433E-04
  -5.00000  4.8287763E-04  5.7296459E-04  5.1550702E-04
  -4.00000  5.2751509E-04  6.3745029E-04  5.6681777E-04
  -3.00000  5.8032757E-04  7.1644059E-04  6.2835501E-04
  -2.00000  6.4376761E-04  8.1520887E-04  7.0347713E-04
  -1.00000  7.2141981E-04  9.4188819E-04  7.9723497E-04
   0.00000  8.1879494E-04  1.1097244E-03  9.1765017E-04
   1.00000  9.4498389E-04  1.3419276E-03  1.0784469E-03
   2.00000  1.1166584E-03  1.6836701E-03  1.3057968E-03
   3.00000  1.3702517E-03  2.2387610E-03  1.6590431E-03
   4.00000  1.8156287E-03  3.3280163E-03  2.3211270E-03
   5.00000  2.9135586E-03  6.3042494E-03  4.0741746E-03
   5.20000  3.2500863E-03  7.2638101E-03  4.6415241E-03
   5.40000  3.5924260E-03  8.2695209E-03  5.2384226E-03
   5.60000  3.9336086E-03  9.3091710E-03  5.8524767E-03
   5.80000  4.2783576E-03  1.0402735E-02  6.4876034E-03
   6.00000  4.6345371E-03  1.1579461E-02  7.1526150E-03
   6.20000  5.0094489E-03  1.2866511E-02  7.8556288E-03
   6.40000  5.4093539E-03  1.4285639E-02  8.6029250E-03
   6.60000  5.8397947E-03  1.5852140E-02  9.3990797E-03
   6.80000  6.3058341E-03  1.7574667E-02  1.0246802E-02
   7.00000  6.8120343E-03  1.9455756E-02  1.1146351E-02
   7.20000  7.3622462E-03  2.1492685E-02  1.2095584E-02
   7.40000  7.9593993E-03  2.3679051E-02  1.3091684E-02
   7.60000  8.6055224E-03  2.6008130E-02  1.4134279E-02
   7.80000  9.3021210E-03  2.8478110E-02  1.5227797E-02
   8.00000  1.0050853E-02  3.1096946E-02  1.6380168E-02
   8.20000  1.0854356E-02  3.3883015E-02  1.7597422E-02
   8.40000  1.1717150E-02  3.6858894E-02  1.8878109E-02
   8.60000  1.2646495E-02  4.0038464E-02  2.0213197E-02
   8.80000  1.3652830E-02  4.3409243E-02  2.1592656E-02
   9.00000  1.4749194E-02  4.6912326E-02  2.3012762E-02
   9.20000  1.5949156E-02  5.0426463E-02  2.4476389E-02
   9.40000  1.7263679E-02  5.3765940E-02  2.5985356E-02
   9.60000  1.8698073E-02  5.6696885E-02  2.7531376E-02
   9.80000  2.0249722E-02  5.8970866E-02  2.9092232E-02
   10.0000  2.1906754E-02  6.0370692E-02  3.0634550E-02
   10.2500  2.4093092E-02  6.0690386E-02  3.2479041E-02
   10.5000  2.6352946E-02  5.9415398E-02  3.4170695E-02
   10.7500  2.8621316E-02  5.6799028E-02  3.5666883E-02
   11.0000  3.0836314E-02  5.3262421E-02  3.6947646E-02
   11.2500  3.2945430E-02  4.9255877E-02  3.8007071E-02
   11.5000  3.4907130E-02  4.5159149E-02  3.8848327E-02
   11.7500  3.6689647E-02  4.1239521E-02  3.9483164E-02
   12.0000  3.8268944E-02  3.7654355E-02  3.9927604E-02
   12.2500  3.9628016E-02  3.4475385E-02  4.0196974E-02
   12.5000  4.0758610E-02  3.1717000E-02  4.0305442E-02
   12.7500  4.1663793E-02  2.9359804E-02  4.0268944E-02
   13.0000  4.2358947E-02  2.7367324E-02  4.0108702E-02
   13.2500  4.2870827E-02  2.5696661E-02  3.9853212E-02
   13.5000  4.3235303E-02  2.4304793E-02  3.9537478E-02
   13.7500  4.3493322E-02  2.3151955E-02  3.9199482E-02
   14.0000  4.3684242E-02  2.2203179E-02  3.8875235E-02
   14.2500  4.3838880E-02  2.1428743E-02  3.8594913E-02
   14.5000  4.3976230E-02  2.0803950E-02  3.8381215E-02
   14.7500  4.4103842E-02  2.0308504E-02  3.8248565E-02
   15.0000  4.4219585E-02  1.9925784E-02  3.8202455E-02
   15.2500  4.4313538E-02  1.9642174E-02  3.8239354E-02
   15.5000  4.4369909E-02  1.9446489E-02  3.8347359E-02
   15.7500  4.4369083E-02  1.9329482E-02  3.8507468E-02
   16.0000  4.4289918E-02  1.9283451E-02  3.8695353E-02
   16.2500  4.4112261E-02  1.9301910E-02  3.8883555E-02
   16.5000  4.3819546E-02  1.9379345E-02  3.9044009E-02
   16.7500  4.3401195E-02  1.9511010E-02  3.9150703E-02
   17.0000  4.2854476E-02  1.9692772E-02  3.9182214E-02
   17.2500  4.2185432E-02  1.9920971E-02  3.9123735E-02
   17.5000  4.1408684E-02  2.0192303E-02  3.8968283E-02
   17.7500  4.0546101E-02  2.0503709E-02  3.8716886E-02
   18.0000  3.9624603E-02  2.0852288E-02  3.8377747E-02
   18.2500  3.8673551E-02  2.1235231E-02  3.7964621E-02
   18.5000  3.7722159E-02  2.1649776E-02  3.7494751E-02
   18.7500  3.6797328E-02  2.2093208E-02  3.6986744E-02
   19.0000  3.5922075E-02  2.2562885E-02  3.6458702E-02
   19.2500  3.5114609E-02  2.3056314E-02  3.5926765E-02
   19.5000  3.4387942E-02  2.3571234E-02  3.5404151E-02
   19.7500  3.3749972E-02  2.4105630E-02  3.4900695E-02
   20.0000  3.3204000E-02  2.4657493E-02  3.4422964E-02
   21.0000  3.1901772E-02  2.6977642E-02  3.2825016E-02
   22.0000  3.1719662E-02  2.9299199E-02  3.1701147E-02
   23.0000  3.2062991E-02  3.1359414E-02  3.0866626E-02
   24.0000  3.2312214E-02  3.2884332E-02  3.0138384E-02
   25.0000  3.2055667E-02  3.3741670E-02  2.9413610E-02
   26.0000  3.1247777E-02  3.3958259E-02  2.8673374E-02
   27.0000  3.0132568E-02  3.3654991E-02  2.7960337E-02
   28.0000  2.8993520E-02  3.2979031E-02  2.7338926E-02
   29.0000  2.7984832E-02  3.2064311E-02  2.6851025E-02
   30.0000  2.7130419E-02  3.1016333E-02  2.6489563E-02
   31.0000  2.6390869E-02  2.9907932E-02  2.6204016E-02
   32.0000  2.5714340E-02  2.8783097E-02  2.5927332E-02
   33.0000  2.5058269E-02  2.7665219E-02  2.5600692E-02
   34.0000  2.4396397E-02  2.6565813E-02  2.5184626E-02
   35.0000  2.3721901E-02  2.5491358E-02  2.4659736E-02
   36.0000  2.3048658E-02  2.4448670E-02  2.4025359E-02
   37.0000  2.2407037E-02  2.3450491E-02  2.3301636E-02
   38.0000  2.1832806E-02  2.2522189E-02  2.2534887E-02
   39.0000  2.1355624E-02  2.1707732E-02  2.1801674E-02
   40.0000  2.0993537E-02  2.1064642E-02  2.1197497E-02
