    Energy   (100,001)      (010,001)      (001,110)   
  -25.0000  1.7043760E-04  1.7939284E-04  1.8421750E-04
  -24.0000  1.7625818E-04  1.8645689E-04  1.9058825E-04
  -23.0000  1.8245131E-04  1.9404415E-04  1.9738024E-04
  -22.0000  1.8905293E-04  2.0221304E-04  2.0463591E-04
  -21.0000  1.9610365E-04  2.1103080E-04  2.1240360E-04
  -20.0000  2.0364963E-04  2.2057528E-04  2.2073856E-04
  -19.0000  2.1174348E-04  2.3093705E-04  2.2970428E-04
  -18.0000  2.2044549E-04  2.4222211E-04  2.3937400E-04
  -17.0000  2.2982504E-04  2.5455521E-04  2.4983277E-04
  -16.0000  2.3996242E-04  2.6808421E-04  2.6117987E-04
  -15.0000  2.5095104E-04  2.8298559E-04  2.7353195E-04
  -14.0000  2.6290027E-04  2.9947164E-04  2.8702701E-04
  -13.0000  2.7593901E-04  3.1779988E-04  3.0182959E-04
  -12.0000  2.9022032E-04  3.3828567E-04  3.1813753E-04
  -11.0000  3.0592740E-04  3.6131920E-04  3.3619092E-04
  -10.0000  3.2328163E-04  3.8738873E-04  3.5628418E-04
  -9.00000  3.4255316E-04  4.1711315E-04  3.7878259E-04
  -8.00000  3.6407564E-04  4.5128820E-04  4.0414546E-04
  -7.00000  3.8826657E-04  4.9095380E-04  4.3295904E-04
  -6.00000  4.1565666E-04  5.3749446E-04  4.6598494E-04
  -5.00000  4.4693290E-04  5.9279356E-04  5.0423294E-04
  -4.00000  4.8300445E-04  6.5947874E-04  5.4907491E-04
  -3.00000  5.2510740E-04  7.4132829E-04  6.0242997E-04
  -2.00000  5.7498065E-04  8.4397907E-04  6.6708173E-04
  -1.00000  6.3518138E-04  9.7623860E-04  7.4725620E-04
   0.00000  7.0970298E-04  1.1527211E-03  8.4976304E-04
   1.00000  8.0533689E-04  1.3997475E-03  9.8650021E-04
   2.00000  9.3521598E-04  1.7707298E-03  1.1808212E-03
   3.00000  1.1305978E-03  2.3966520E-03  1.4876457E-03
   4.00000  1.4979434E-03  3.7241052E-03  2.0828329E-03
   5.00000  2.5205222E-03  7.7766830E-03  3.7452420E-03
   5.20000  2.8263833E-03  9.0502632E-03  4.3043880E-03
   5.40000  3.1147874E-03  1.0291893E-02  4.9067305E-03
   5.60000  3.3758764E-03  1.1457936E-02  5.5409787E-03
   5.80000  3.6156817E-03  1.2563521E-02  6.2062796E-03
   6.00000  3.8437928E-03  1.3639776E-02  6.9002731E-03
   6.20000  4.0678518E-03  1.4714873E-02  7.6134942E-03
   6.40000  4.2928096E-03  1.5812098E-02  8.3295895E-03
   6.60000  4.5217466E-03  1.6953257E-02  9.0289999E-03
   6.80000  4.7569570E-03  1.8162290E-02  9.6944850E-03
   7.00000  5.0008006E-03  1.9466998E-02  1.0316573E-02
   7.20000  5.2561438E-03  2.0898419E-02  1.0896906E-02
   7.40000  5.5264269E-03  2.2488657E-02  1.1448329E-02
   7.60000  5.8154932E-03  2.4268414E-02  1.1992003E-02
   7.80000  6.1273023E-03  2.6265002E-02  1.2552758E-02
   8.00000  6.4656005E-03  2.8500829E-02  1.3154001E-02
   8.20000  6.8335886E-03  3.0991782E-02  1.3813064E-02
   8.40000  7.2336359E-03  3.3744632E-02  1.4537537E-02
   8.60000  7.6671213E-03  3.6752506E-02  1.5322970E-02
   8.80000  8.1344909E-03  3.9987575E-02  1.6152308E-02
   9.00000  8.6355630E-03  4.3390900E-02  1.6997307E-02
   9.20000  9.1700090E-03  4.6861567E-02  1.7822091E-02
   9.40000  9.7378490E-03  5.0250552E-02  1.8588812E-02
   9.60000  1.0339753E-02  5.3366766E-02  1.9264950E-02
   9.80000  1.0976961E-02  5.6000043E-02  1.9830744E-02
   10.0000  1.1650850E-02  5.7957136E-02  2.0283889E-02
   10.2500  1.2546392E-02  5.9246306E-02  2.0715264E-02
   10.5000  1.3502352E-02  5.9163599E-02  2.1045368E-02
   10.7500  1.4519447E-02  5.7804848E-02  2.1331279E-02
   11.0000  1.5595901E-02  5.5419920E-02  2.1621837E-02
   11.2500  1.6725569E-02  5.2339696E-02  2.1954198E-02
   11.5000  1.7897138E-02  4.8901875E-02  2.2357311E-02
   11.7500  1.9094523E-02  4.5392821E-02  2.2855577E-02
   12.0000  2.0300674E-02  4.2017651E-02  2.3466977E-02
   12.2500  2.1503654E-02  3.8900340E-02  2.4199332E-02
   12.5000  2.2698663E-02  3.6100501E-02  2.5051301E-02
   12.7500  2.3885913E-02  3.3633559E-02  2.6015718E-02
   13.0000  2.5068524E-02  3.1488054E-02  2.7081681E-02
   13.2500  2.6250743E-02  2.9638342E-02  2.8235476E-02
   13.5000  2.7435966E-02  2.8053047E-02  2.9460978E-02
   13.7500  2.8625218E-02  2.6700473E-02  3.0740136E-02
   14.0000  2.9816352E-02  2.5551667E-02  3.2053506E-02
   14.2500  3.1003812E-02  2.4581464E-02  3.3380444E-02
   14.5000  3.2179092E-02  2.3768360E-02  3.4699258E-02
   14.7500  3.3331975E-02  2.3094079E-02  3.5987798E-02
   15.0000  3.4452244E-02  2.2543149E-02  3.7224406E-02
   15.2500  3.5531316E-02  2.2102523E-02  3.8388922E-02
   15.5000  3.6563252E-02  2.1761211E-02  3.9463345E-02
   15.7500  3.7544841E-02  2.1509908E-02  4.0432005E-02
   16.0000  3.8474770E-02  2.1340638E-02  4.1281323E-02
   16.2500  3.9352218E-02  2.1246417E-02  4.1999539E-02
   16.5000  4.0175393E-02  2.1220986E-02  4.2576781E-02
   16.7500  4.0940510E-02  2.1258596E-02  4.3005680E-02
   17.0000  4.1641511E-02  2.1353871E-02  4.3282418E-02
   17.2500  4.2270586E-02  2.1501726E-02  4.3407818E-02
   17.5000  4.2819307E-02  2.1697314E-02  4.3388040E-02
   17.7500  4.3280075E-02  2.1936011E-02  4.3234566E-02
   18.0000  4.3647548E-02  2.2213404E-02  4.2963418E-02
   18.2500  4.3919743E-02  2.2525285E-02  4.2593809E-02
   18.5000  4.4098628E-02  2.2867660E-02  4.2146512E-02
   18.7500  4.4190121E-02  2.3236762E-02  4.1642285E-02
   19.0000  4.4203530E-02  2.3629096E-02  4.1100538E-02
   19.2500  4.4150560E-02  2.4041493E-02  4.0538345E-02
   19.5000  4.4044076E-02  2.4471185E-02  3.9969829E-02
   19.7500  4.3896875E-02  2.4915802E-02  3.9405928E-02
   20.0000  4.3720773E-02  2.5373152E-02  3.8854686E-02
   21.0000  4.2912402E-02  2.7272037E-02  3.6878946E-02
   22.0000  4.2134526E-02  2.9127859E-02  3.5369032E-02
   23.0000  4.1269865E-02  3.0744623E-02  3.4263317E-02
   24.0000  4.0073204E-02  3.1941357E-02  3.3418408E-02
   25.0000  3.8470530E-02  3.2609312E-02  3.2700038E-02
   26.0000  3.6599095E-02  3.2753115E-02  3.2017359E-02
   27.0000  3.4673240E-02  3.2472841E-02  3.1335634E-02
   28.0000  3.2868334E-02  3.1908559E-02  3.0671770E-02
   29.0000  3.1291391E-02  3.1188075E-02  3.0067910E-02
   30.0000  2.9992481E-02  3.0400025E-02  2.9558184E-02
   31.0000  2.8975214E-02  2.9595240E-02  2.9154007E-02
   32.0000  2.8205571E-02  2.8797533E-02  2.8847904E-02
   33.0000  2.7629554E-02  2.8005377E-02  2.8618864E-02
   34.0000  2.7187859E-02  2.7206727E-02  2.8441755E-02
   35.0000  2.6822867E-02  2.6392325E-02  2.8291729E-02
   36.0000  2.6483214E-02  2.5561252E-02  2.8144716E-02
   37.0000  2.6130130E-02  2.4724629E-02  2.7980271E-02
   38.0000  2.5747390E-02  2.3910391E-02  2.7788100E-02
   39.0000  2.5353465E-02  2.3169096E-02  2.7577616E-02
   40.0000  2.5004574E-02  2.2570429E-02  2.7384318E-02
