    Energy   (100,001)      (010,001)      (001,110)   
  -25.0000  1.6836793E-04  1.8171434E-04  1.7651143E-04
  -24.0000  1.7457286E-04  1.8869460E-04  1.8307031E-04
  -23.0000  1.8120191E-04  1.9618315E-04  1.9008816E-04
  -22.0000  1.8829841E-04  2.0423602E-04  1.9761345E-04
  -21.0000  1.9591170E-04  2.1291763E-04  2.0570160E-04
  -20.0000  2.0409817E-04  2.2230244E-04  2.1441630E-04
  -19.0000  2.1292257E-04  2.3247694E-04  2.2383108E-04
  -18.0000  2.2245958E-04  2.4354217E-04  2.3403130E-04
  -17.0000  2.3279582E-04  2.5561684E-04  2.4511658E-04
  -16.0000  2.4403229E-04  2.6884139E-04  2.5720389E-04
  -15.0000  2.5628744E-04  2.8338303E-04  2.7043154E-04
  -14.0000  2.6970113E-04  2.9944244E-04  2.8496417E-04
  -13.0000  2.8443964E-04  3.1726243E-04  3.0099941E-04
  -12.0000  3.0070220E-04  3.3713947E-04  3.1877647E-04
  -11.0000  3.1872955E-04  3.5943912E-04  3.3858775E-04
  -10.0000  3.3881537E-04  3.8461714E-04  3.6079448E-04
  -9.00000  3.6132165E-04  4.1324873E-04  3.8584833E-04
  -8.00000  3.8669987E-04  4.4606973E-04  4.1432169E-04
  -7.00000  4.1552064E-04  4.8403613E-04  4.4695136E-04
  -6.00000  4.4851619E-04  5.2841182E-04  4.8470274E-04
  -5.00000  4.8664279E-04  5.8090160E-04  5.2886743E-04
  -4.00000  5.3117531E-04  6.4385939E-04  5.8121683E-04
  -3.00000  5.8385580E-04  7.2062653E-04  6.4425414E-04
  -2.00000  6.4713757E-04  8.1610680E-04  7.2165033E-04
  -1.00000  7.2460950E-04  9.3780088E-04  8.1904916E-04
   0.00000  8.2179008E-04  1.0978076E-03  9.4568534E-04
   1.00000  9.4777162E-04  1.3170938E-03  1.1180273E-03
   2.00000  1.1191596E-03  1.6359791E-03  1.3693849E-03
   3.00000  1.3719021E-03  2.1461103E-03  1.7819251E-03
   4.00000  1.8125316E-03  3.1296127E-03  2.6396906E-03
   5.00000  2.8830330E-03  5.7714699E-03  5.2677094E-03
   5.20000  3.2135023E-03  6.6024473E-03  6.1228384E-03
   5.40000  3.5531506E-03  7.4530789E-03  6.9803604E-03
   5.60000  3.8940906E-03  8.3079071E-03  7.7987338E-03
   5.80000  4.2388441E-03  9.1822397E-03  8.5578754E-03
   6.00000  4.5934603E-03  1.0101181E-02  9.2389049E-03
   6.20000  4.9648116E-03  1.1090535E-02  9.8239269E-03
   6.40000  5.3605616E-03  1.2175487E-02  1.0307459E-02
   6.60000  5.7894366E-03  1.3380963E-02  1.0705192E-02
   6.80000  6.2609580E-03  1.4731873E-02  1.1052924E-02
   7.00000  6.7847504E-03  1.6253625E-02  1.1397503E-02
   7.20000  7.3698202E-03  1.7973117E-02  1.1786205E-02
   7.40000  8.0240654E-03  1.9919451E-02  1.2259451E-02
   7.60000  8.7540120E-03  2.2123780E-02  1.2847797E-02
   7.80000  9.5646577E-03  2.4617762E-02  1.3571609E-02
   8.00000  1.0459388E-02  2.7429758E-02  1.4441618E-02
   8.20000  1.1440072E-02  3.0577830E-02  1.5459508E-02
   8.40000  1.2507508E-02  3.4059420E-02  1.6618836E-02
   8.60000  1.3662205E-02  3.7839796E-02  1.7907460E-02
   8.80000  1.4905158E-02  4.1843913E-02  1.9312286E-02
   9.00000  1.6238068E-02  4.5955898E-02  2.0824913E-02
   9.20000  1.7662535E-02  5.0024528E-02  2.2443893E-02
   9.40000  1.9178176E-02  5.3868045E-02  2.4169925E-02
   9.60000  2.0780288E-02  5.7277260E-02  2.5996746E-02
   9.80000  2.2457860E-02  6.0027405E-02  2.7904961E-02
   10.0000  2.4192044E-02  6.1909033E-02  2.9862072E-02
   10.2500  2.6396219E-02  6.2821874E-02  3.2313637E-02
   10.5000  2.8572075E-02  6.2087203E-02  3.4689133E-02
   10.7500  3.0633660E-02  5.9911701E-02  3.6905922E-02
   11.0000  3.2494354E-02  5.6691759E-02  3.8891455E-02
   11.2500  3.4081725E-02  5.2878264E-02  4.0581965E-02
   11.5000  3.5350596E-02  4.8866197E-02  4.1921364E-02
   11.7500  3.6289839E-02  4.4942773E-02  4.2864222E-02
   12.0000  3.6920969E-02  4.1284623E-02  4.3382971E-02
   12.2500  3.7289745E-02  3.7979461E-02  4.3476732E-02
   12.5000  3.7454712E-02  3.5053877E-02  4.3176717E-02
   12.7500  3.7477279E-02  3.2497974E-02  4.2544408E-02
   13.0000  3.7414508E-02  3.0282916E-02  4.1662800E-02
   13.2500  3.7314429E-02  2.8371986E-02  4.0624369E-02
   13.5000  3.7214168E-02  2.6727346E-02  3.9518976E-02
   13.7500  3.7140184E-02  2.5313799E-02  3.8423860E-02
   14.0000  3.7109688E-02  2.4100313E-02  3.7398023E-02
   14.2500  3.7132367E-02  2.3060247E-02  3.6481277E-02
   14.5000  3.7211887E-02  2.2171044E-02  3.5696240E-02
   14.7500  3.7347035E-02  2.1413756E-02  3.5051541E-02
   15.0000  3.7532557E-02  2.0772590E-02  3.4545114E-02
   15.2500  3.7759767E-02  2.0234502E-02  3.4167057E-02
   15.5000  3.8017059E-02  1.9788813E-02  3.3901973E-02
   15.7500  3.8290422E-02  1.9426872E-02  3.3730901E-02
   16.0000  3.8564039E-02  1.9141719E-02  3.3632996E-02
   16.2500  3.8821046E-02  1.8927783E-02  3.3587063E-02
   16.5000  3.9044523E-02  1.8780583E-02  3.3572981E-02
   16.7500  3.9218723E-02  1.8696466E-02  3.3572954E-02
   17.0000  3.9330470E-02  1.8672362E-02  3.3572489E-02
   17.2500  3.9370571E-02  1.8705585E-02  3.3560980E-02
   17.5000  3.9334984E-02  1.8793667E-02  3.3531862E-02
   17.7500  3.9225490E-02  1.8934249E-02  3.3482324E-02
   18.0000  3.9049682E-02  1.9124992E-02  3.3412706E-02
   18.2500  3.8820217E-02  1.9363532E-02  3.3325693E-02
   18.5000  3.8553457E-02  1.9647457E-02  3.3225467E-02
   18.7500  3.8267748E-02  1.9974308E-02  3.3116923E-02
   19.0000  3.7981630E-02  2.0341611E-02  3.3005017E-02
   19.2500  3.7712237E-02  2.0746942E-02  3.2894281E-02
   19.5000  3.7474055E-02  2.1188007E-02  3.2788492E-02
   19.7500  3.7278107E-02  2.1662657E-02  3.2690486E-02
   20.0000  3.7131624E-02  2.2168686E-02  3.2602103E-02
   21.0000  3.7070266E-02  2.4442287E-02  3.2353453E-02
   22.0000  3.7636764E-02  2.6948362E-02  3.2225489E-02
   23.0000  3.8201749E-02  2.9486566E-02  3.2082502E-02
   24.0000  3.8035376E-02  3.1836637E-02  3.1782794E-02
   25.0000  3.6747285E-02  3.3738873E-02  3.1251320E-02
   26.0000  3.4532436E-02  3.4955383E-02  3.0511135E-02
   27.0000  3.1976868E-02  3.5384273E-02  2.9671958E-02
   28.0000  2.9646257E-02  3.5119015E-02  2.8885145E-02
   29.0000  2.7836384E-02  3.4385686E-02  2.8276795E-02
   30.0000  2.6562325E-02  3.3409762E-02  2.7885110E-02
   31.0000  2.5705302E-02  3.2349145E-02  2.7672827E-02
   32.0000  2.5124845E-02  3.1290166E-02  2.7562442E-02
   33.0000  2.4699994E-02  3.0265410E-02  2.7464626E-02
   34.0000  2.4338838E-02  2.9275819E-02  2.7299715E-02
   35.0000  2.3978267E-02  2.8310266E-02  2.7010652E-02
   36.0000  2.3583042E-02  2.7360577E-02  2.6569376E-02
   37.0000  2.3145811E-02  2.6431274E-02  2.5981166E-02
   38.0000  2.2685754E-02  2.5545052E-02  2.5289543E-02
   39.0000  2.2244477E-02  2.4747572E-02  2.4580455E-02
   40.0000  2.1876569E-02  2.4106175E-02  2.3972770E-02
