    Energy   (100,001)      (010,001)      (001,110)   
  -25.0000  1.6482934E-04  1.9093254E-04  1.7782619E-04
  -24.0000  1.7078775E-04  1.9794164E-04  1.8417241E-04
  -23.0000  1.7714400E-04  2.0544725E-04  1.9094628E-04
  -22.0000  1.8393774E-04  2.1350309E-04  1.9819129E-04
  -21.0000  1.9121398E-04  2.2217086E-04  2.0595699E-04
  -20.0000  1.9902402E-04  2.3152176E-04  2.1429999E-04
  -19.0000  2.0742657E-04  2.4163831E-04  2.2328536E-04
  -18.0000  2.1648914E-04  2.5261676E-04  2.3298816E-04
  -17.0000  2.2628975E-04  2.6456999E-04  2.4349550E-04
  -16.0000  2.3691902E-04  2.7763121E-04  2.5490900E-04
  -15.0000  2.4848288E-04  2.9195881E-04  2.6734801E-04
  -14.0000  2.6110590E-04  3.0774243E-04  2.8095354E-04
  -13.0000  2.7493558E-04  3.2521105E-04  2.9589352E-04
  -12.0000  2.9014797E-04  3.4464366E-04  3.1236947E-04
  -11.0000  3.0695490E-04  3.6638354E-04  3.3062545E-04
  -10.0000  3.2561372E-04  3.9085775E-04  3.5095992E-04
  -9.00000  3.4644037E-04  4.1860408E-04  3.7374199E-04
  -8.00000  3.6982738E-04  4.5030913E-04  3.9943385E-04
  -7.00000  3.9626912E-04  4.8686313E-04  4.2862262E-04
  -6.00000  4.2639816E-04  5.2944096E-04  4.6206656E-04
  -5.00000  4.6103904E-04  5.7962515E-04  5.0076409E-04
  -4.00000  5.0129056E-04  6.3959883E-04  5.4606057E-04
  -3.00000  5.4865697E-04  7.1246075E-04  5.9982044E-04
  -2.00000  6.0526820E-04  8.0276445E-04  6.6471955E-04
  -1.00000  6.7427375E-04  9.1749806E-04  7.4477535E-04
   0.00000  7.6060949E-04  1.0680081E-03  8.4639483E-04
   1.00000  8.7266946E-04  1.2741918E-03  9.8070321E-04
   2.00000  1.0265844E-03  1.5750963E-03  1.1696529E-03
   3.00000  1.2601253E-03  2.0624986E-03  1.4665720E-03
   4.00000  1.6981583E-03  3.0334711E-03  2.0575776E-03
   5.00000  2.9008662E-03  5.7955687E-03  3.7816276E-03
   5.20000  3.2713304E-03  6.6736470E-03  4.2722968E-03
   5.40000  3.6332781E-03  7.5587723E-03  4.7064572E-03
   5.60000  3.9738992E-03  8.4235516E-03  5.0745937E-03
   5.80000  4.2974715E-03  9.2740088E-03  5.3996254E-03
   6.00000  4.6135006E-03  1.0126266E-02  5.7090109E-03
   6.20000  4.9306436E-03  1.0995848E-02  6.0242515E-03
   6.40000  5.2550745E-03  1.1896261E-02  6.3608172E-03
   6.60000  5.5904213E-03  1.2840600E-02  6.7302622E-03
   6.80000  5.9382764E-03  1.3843842E-02  7.1416428E-03
   7.00000  6.2990959E-03  1.4924935E-02  7.6018796E-03
   7.20000  6.6733451E-03  1.6108026E-02  8.1156520E-03
   7.40000  7.0625750E-03  1.7422453E-02  8.6857744E-03
   7.60000  7.4700608E-03  1.8901645E-02  9.3146331E-03
   7.80000  7.9008248E-03  2.0581207E-02  1.0006108E-02
   8.00000  8.3611424E-03  2.2496033E-02  1.0766446E-02
   8.20000  8.8577858E-03  2.4675892E-02  1.1602941E-02
   8.40000  9.3972658E-03  2.7138878E-02  1.2520737E-02
   8.60000  9.9851884E-03  2.9883048E-02  1.3519013E-02
   8.80000  1.0625735E-02  3.2877609E-02  1.4587854E-02
   9.00000  1.1321364E-02  3.6056167E-02  1.5707205E-02
   9.20000  1.2072911E-02  3.9316331E-02  1.6849574E-02
   9.40000  1.2880182E-02  4.2530096E-02  1.7987218E-02
   9.60000  1.3742869E-02  4.5564285E-02  1.9101864E-02
   9.80000  1.4661282E-02  4.8302051E-02  2.0191926E-02
   10.0000  1.5636276E-02  5.0653603E-02  2.1272411E-02
   10.2500  1.6935125E-02  5.2950277E-02  2.2646100E-02
   10.5000  1.8319576E-02  5.4441067E-02  2.4083581E-02
   10.7500  1.9777246E-02  5.5053919E-02  2.5601706E-02
   11.0000  2.1283455E-02  5.4766338E-02  2.7188441E-02
   11.2500  2.2803367E-02  5.3637443E-02  2.8810071E-02
   11.5000  2.4297752E-02  5.1808919E-02  3.0421119E-02
   11.7500  2.5728371E-02  4.9468031E-02  3.1973044E-02
   12.0000  2.7062270E-02  4.6808492E-02  3.3421828E-02
   12.2500  2.8275156E-02  4.4006510E-02  3.4733031E-02
   12.5000  2.9353318E-02  4.1206883E-02  3.5883534E-02
   12.7500  3.0294631E-02  3.8516777E-02  3.6861560E-02
   13.0000  3.1108549E-02  3.6006767E-02  3.7666175E-02
   13.2500  3.1814582E-02  3.3716544E-02  3.8306419E-02
   13.5000  3.2439455E-02  3.1662347E-02  3.8799896E-02
   13.7500  3.3013574E-02  2.9844145E-02  3.9170687E-02
   14.0000  3.3567466E-02  2.8251635E-02  3.9446749E-02
   14.2500  3.4128769E-02  2.6868800E-02  3.9657096E-02
   14.5000  3.4720089E-02  2.5677138E-02  3.9829111E-02
   14.7500  3.5357779E-02  2.4657808E-02  3.9986288E-02
   15.0000  3.6051479E-02  2.3792923E-02  4.0146540E-02
   15.2500  3.6804178E-02  2.3066236E-02  4.0321151E-02
   15.5000  3.7612571E-02  2.2463381E-02  4.0514369E-02
   15.7500  3.8467572E-02  2.1971834E-02  4.0723628E-02
   16.0000  3.9354952E-02  2.1580721E-02  4.0940403E-02
   16.2500  4.0256136E-02  2.1280553E-02  4.1151641E-02
   16.5000  4.1149229E-02  2.1062943E-02  4.1341659E-02
   16.7500  4.2010346E-02  2.0920356E-02  4.1494293E-02
   17.0000  4.2815220E-02  2.0845885E-02  4.1595010E-02
   17.2500  4.3541012E-02  2.0833084E-02  4.1632637E-02
   17.5000  4.4168154E-02  2.0875857E-02  4.1600471E-02
   17.7500  4.4681988E-02  2.0968385E-02  4.1496612E-02
   18.0000  4.5073982E-02  2.1105103E-02  4.1323583E-02
   18.2500  4.5342349E-02  2.1280709E-02  4.1087440E-02
   18.5000  4.5491946E-02  2.1490203E-02  4.0796629E-02
   18.7500  4.5533481E-02  2.1728939E-02  4.0460841E-02
   19.0000  4.5482115E-02  2.1992708E-02  4.0090019E-02
   19.2500  4.5355666E-02  2.2277843E-02  3.9693582E-02
   19.5000  4.5172665E-02  2.2581329E-02  3.9279872E-02
   19.7500  4.4950596E-02  2.2900855E-02  3.8855857E-02
   20.0000  4.4704683E-02  2.3234715E-02  3.8427176E-02
   21.0000  4.3694118E-02  2.4685923E-02  3.6753336E-02
   22.0000  4.2810771E-02  2.6279088E-02  3.5259736E-02
   23.0000  4.1837647E-02  2.7963248E-02  3.3946572E-02
   24.0000  4.0430557E-02  2.9623377E-02  3.2747171E-02
   25.0000  3.8430183E-02  3.1099423E-02  3.1608100E-02
   26.0000  3.5939017E-02  3.2249419E-02  3.0507855E-02
   27.0000  3.3245337E-02  3.2985518E-02  2.9451627E-02
   28.0000  3.0697282E-02  3.3288959E-02  2.8476886E-02
   29.0000  2.8565747E-02  3.3213384E-02  2.7645341E-02
   30.0000  2.6925707E-02  3.2859845E-02  2.6993280E-02
   31.0000  2.5723473E-02  3.2336255E-02  2.6523349E-02
   32.0000  2.4865596E-02  3.1727044E-02  2.6213086E-02
   33.0000  2.4256564E-02  3.1083737E-02  2.6023429E-02
   34.0000  2.3811858E-02  3.0432289E-02  2.5908293E-02
   35.0000  2.3459626E-02  2.9787249E-02  2.5822007E-02
   36.0000  2.3139664E-02  2.9164257E-02  2.5724243E-02
   37.0000  2.2805889E-02  2.8583786E-02  2.5584199E-02
   38.0000  2.2435533E-02  2.8064876E-02  2.5387119E-02
   39.0000  2.2044079E-02  2.7622828E-02  2.5146280E-02
   40.0000  2.1690262E-02  2.7277334E-02  2.4912590E-02
