    Energy   (100,001)      (010,001)      (001,110)   
  -25.0000  1.6444562E-04  1.7787237E-04  1.7447293E-04
  -24.0000  1.7059567E-04  1.8476282E-04  1.8098453E-04
  -23.0000  1.7717086E-04  1.9215624E-04  1.8795245E-04
  -22.0000  1.8421506E-04  2.0010802E-04  1.9542480E-04
  -21.0000  1.9177829E-04  2.0868188E-04  2.0345664E-04
  -20.0000  1.9991779E-04  2.1795143E-04  2.1211116E-04
  -19.0000  2.0869937E-04  2.2800216E-04  2.2146131E-04
  -18.0000  2.1819910E-04  2.3893390E-04  2.3159171E-04
  -17.0000  2.2850531E-04  2.5086394E-04  2.4260110E-04
  -16.0000  2.3972121E-04  2.6393098E-04  2.5460535E-04
  -15.0000  2.5196812E-04  2.7830015E-04  2.6774134E-04
  -14.0000  2.6538957E-04  2.9416956E-04  2.8217194E-04
  -13.0000  2.8015671E-04  3.1177888E-04  2.9809248E-04
  -12.0000  2.9647518E-04  3.3142069E-04  3.1573920E-04
  -11.0000  3.1459431E-04  3.5345572E-04  3.3540061E-04
  -10.0000  3.3481942E-04  3.7833371E-04  3.5743274E-04
  -9.00000  3.5752856E-04  4.0662226E-04  3.8228026E-04
  -8.00000  3.8319569E-04  4.3904770E-04  4.1050600E-04
  -7.00000  4.1242356E-04  4.7655408E-04  4.4283333E-04
  -6.00000  4.4599136E-04  5.2039042E-04  4.8020852E-04
  -5.00000  4.8492587E-04  5.7224340E-04  5.2389500E-04
  -4.00000  5.3061106E-04  6.3444597E-04  5.7562128E-04
  -3.00000  5.8496424E-04  7.1031807E-04  6.3782222E-04
  -2.00000  6.5073297E-04  8.0475001E-04  7.1405328E-04
  -1.00000  7.3202809E-04  9.2526188E-04  8.0974753E-04
   0.00000  8.3536128E-04  1.0840783E-03  9.3371428E-04
   1.00000  9.7189876E-04  1.3026272E-03  1.1014414E-03
   2.00000  1.1631824E-03  1.6228153E-03  1.3435476E-03
   3.00000  1.4595097E-03  2.1422881E-03  1.7328523E-03
   4.00000  2.0255341E-03  3.1720265E-03  2.5079673E-03
   5.00000  3.5840785E-03  6.0528396E-03  4.7197739E-03
   5.20000  4.0554511E-03  6.9621782E-03  5.4218371E-03
   5.40000  4.5120129E-03  7.8845977E-03  6.1353950E-03
   5.60000  4.9434795E-03  8.8024647E-03  6.8497184E-03
   5.80000  5.3625565E-03  9.7336987E-03  7.5814833E-03
   6.00000  5.7873258E-03  1.0705469E-02  8.3530424E-03
   6.20000  6.2335337E-03  1.1742349E-02  9.1825563E-03
   6.40000  6.7134594E-03  1.2864259E-02  1.0081259E-02
   6.60000  7.2365419E-03  1.4086946E-02  1.1051753E-02
   6.80000  7.8099195E-03  1.5422473E-02  1.2085690E-02
   7.00000  8.4384832E-03  1.6879460E-02  1.3162007E-02
   7.20000  9.1245246E-03  1.8463775E-02  1.4248100E-02
   7.40000  9.8672654E-03  2.0180314E-02  1.5305823E-02
   7.60000  1.0662734E-02  2.2035994E-02  1.6301181E-02
   7.80000  1.1504470E-02  2.4043097E-02  1.7212897E-02
   8.00000  1.2385080E-02  2.6221144E-02  1.8034933E-02
   8.20000  1.3297935E-02  2.8595487E-02  1.8772928E-02
   8.40000  1.4237977E-02  3.1192513E-02  1.9439206E-02
   8.60000  1.5201171E-02  3.4031977E-02  2.0050618E-02
   8.80000  1.6183210E-02  3.7116735E-02  2.0629109E-02
   9.00000  1.7179001E-02  4.0420604E-02  2.1201875E-02
   9.20000  1.8183969E-02  4.3876333E-02  2.1799145E-02
   9.40000  1.9196669E-02  4.7366927E-02  2.2450298E-02
   9.60000  2.0220891E-02  5.0724674E-02  2.3179920E-02
   9.80000  2.1265645E-02  5.3742401E-02  2.4004609E-02
   10.0000  2.2342562E-02  5.6198786E-02  2.4930970E-02
   10.2500  2.3748679E-02  5.8181344E-02  2.6225319E-02
   10.5000  2.5226412E-02  5.8733740E-02  2.7645184E-02
   10.7500  2.6760579E-02  5.7842090E-02  2.9147208E-02
   11.0000  2.8313476E-02  5.5724451E-02  3.0677132E-02
   11.2500  2.9832404E-02  5.2747204E-02  3.2176430E-02
   11.5000  3.1263718E-02  4.9310579E-02  3.3589498E-02
   11.7500  3.2564715E-02  4.5757825E-02  3.4868356E-02
   12.0000  3.3707859E-02  4.2332047E-02  3.5976958E-02
   12.2500  3.4680561E-02  3.9175825E-02  3.6896707E-02
   12.5000  3.5485609E-02  3.6353886E-02  3.7628844E-02
   12.7500  3.6140567E-02  3.3880035E-02  3.8192292E-02
   13.0000  3.6674040E-02  3.1738772E-02  3.8618290E-02
   13.2500  3.7119291E-02  2.9899936E-02  3.8943403E-02
   13.5000  3.7506913E-02  2.8328427E-02  3.9204222E-02
   13.7500  3.7859981E-02  2.6990193E-02  3.9434836E-02
   14.0000  3.8193341E-02  2.5854673E-02  3.9664693E-02
   14.2500  3.8515067E-02  2.4895136E-02  3.9916298E-02
   14.5000  3.8828101E-02  2.4088425E-02  4.0203609E-02
   14.7500  3.9131551E-02  2.3414630E-02  4.0531260E-02
   15.0000  3.9421730E-02  2.2856745E-02  4.0894379E-02
   15.2500  3.9693043E-02  2.2400322E-02  4.1278921E-02
   15.5000  3.9938768E-02  2.2033138E-02  4.1662677E-02
   15.7500  4.0151781E-02  2.1744902E-02  4.2017155E-02
   16.0000  4.0325258E-02  2.1526997E-02  4.2310423E-02
   16.2500  4.0453356E-02  2.1372255E-02  4.2510780E-02
   16.5000  4.0531835E-02  2.1274755E-02  4.2590783E-02
   16.7500  4.0558576E-02  2.1229622E-02  4.2530933E-02
   17.0000  4.0533914E-02  2.1232831E-02  4.2322247E-02
   17.2500  4.0460730E-02  2.1281019E-02  4.1967159E-02
   17.5000  4.0344281E-02  2.1371301E-02  4.1478642E-02
   17.7500  4.0191789E-02  2.1501124E-02  4.0877856E-02
   18.0000  4.0011848E-02  2.1668151E-02  4.0191001E-02
   18.2500  3.9813722E-02  2.1870178E-02  3.9446069E-02
   18.5000  3.9606650E-02  2.2105096E-02  3.8670079E-02
   18.7500  3.9399202E-02  2.2370881E-02  3.7887090E-02
   19.0000  3.9198760E-02  2.2665608E-02  3.7117033E-02
   19.2500  3.9011139E-02  2.2987501E-02  3.6375233E-02
   19.5000  3.8840350E-02  2.3334987E-02  3.5672430E-02
   19.7500  3.8688495E-02  2.3706686E-02  3.5015163E-02
   20.0000  3.8555788E-02  2.4101225E-02  3.4406515E-02
   21.0000  3.8167328E-02  2.5864709E-02  3.2456534E-02
   22.0000  3.7784395E-02  2.7798817E-02  3.1170127E-02
   23.0000  3.7050581E-02  2.9714398E-02  3.0297194E-02
   24.0000  3.5725495E-02  3.1382629E-02  2.9598458E-02
   25.0000  3.3847538E-02  3.2597006E-02  2.8918398E-02
   26.0000  3.1713119E-02  3.3258972E-02  2.8203541E-02
   27.0000  2.9670506E-02  3.3405250E-02  2.7483724E-02
   28.0000  2.7941389E-02  3.3165657E-02  2.6832731E-02
   29.0000  2.6595717E-02  3.2690046E-02  2.6318781E-02
   30.0000  2.5598397E-02  3.2080433E-02  2.5958487E-02
   31.0000  2.4870916E-02  3.1386409E-02  2.5721252E-02
   32.0000  2.4327092E-02  3.0625154E-02  2.5554806E-02
   33.0000  2.3887689E-02  2.9797888E-02  2.5405524E-02
   34.0000  2.3487103E-02  2.8901848E-02  2.5229025E-02
   35.0000  2.3076935E-02  2.7938623E-02  2.4993185E-02
   36.0000  2.2629758E-02  2.6920753E-02  2.4679844E-02
   37.0000  2.2143180E-02  2.5877208E-02  2.4289151E-02
   38.0000  2.1641332E-02  2.4857424E-02  2.3845480E-02
   39.0000  2.1170523E-02  2.3933706E-02  2.3400296E-02
   40.0000  2.0785529E-02  2.3193609E-02  2.3023346E-02
