    Energy   (100,001)      (010,001)      (001,110)   
  -25.0000  1.7059822E-04  1.8141152E-04  1.7518592E-04
  -24.0000  1.7694742E-04  1.8822993E-04  1.8185827E-04
  -23.0000  1.8373827E-04  1.9553612E-04  1.8900798E-04
  -22.0000  1.9101685E-04  2.0338305E-04  1.9668647E-04
  -21.0000  1.9883581E-04  2.1183155E-04  2.0495268E-04
  -20.0000  2.0725546E-04  2.2095177E-04  2.1387449E-04
  -19.0000  2.1634533E-04  2.3082507E-04  2.2353048E-04
  -18.0000  2.2618585E-04  2.4154629E-04  2.3401211E-04
  -17.0000  2.3687066E-04  2.5322666E-04  2.4542642E-04
  -16.0000  2.4850935E-04  2.6599749E-04  2.5789951E-04
  -15.0000  2.6123102E-04  2.8001478E-04  2.7158091E-04
  -14.0000  2.7518875E-04  2.9546536E-04  2.8664928E-04
  -13.0000  2.9056541E-04  3.1257470E-04  3.0331979E-04
  -12.0000  3.0758123E-04  3.3161746E-04  3.2185394E-04
  -11.0000  3.2650382E-04  3.5293141E-04  3.4257265E-04
  -10.0000  3.4766153E-04  3.7693655E-04  3.6587409E-04
  -9.00000  3.7146170E-04  4.0416143E-04  3.9225838E-04
  -8.00000  3.9841585E-04  4.3528028E-04  4.2236233E-04
  -7.00000  4.2917530E-04  4.7116636E-04  4.5700964E-04
  -6.00000  4.6458255E-04  5.1297061E-04  4.9728491E-04
  -5.00000  5.0574742E-04  5.6224056E-04  5.4464613E-04
  -4.00000  5.5416326E-04  6.2110623E-04  6.0110141E-04
  -3.00000  6.1189103E-04  6.9258164E-04  6.6949750E-04
  -2.00000  6.8186390E-04  7.8107731E-04  7.5401352E-04
  -1.00000  7.6841979E-04  8.9332224E-04  8.6105625E-04
   0.00000  8.7830207E-04  1.0401500E-03  1.0010053E-03
   1.00000  1.0227315E-03  1.2403197E-03  1.1919552E-03
   2.00000  1.2223416E-03  1.5299332E-03  1.4688619E-03
   3.00000  1.5217881E-03  1.9912476E-03  1.9106856E-03
   4.00000  2.0516237E-03  2.8779845E-03  2.7504777E-03
   5.00000  3.3413597E-03  5.2635425E-03  4.9438463E-03
   5.20000  3.7397209E-03  6.0270988E-03  5.6981979E-03
   5.40000  4.1527345E-03  6.8232358E-03  6.5570785E-03
   5.60000  4.5754391E-03  7.6403273E-03  7.5271162E-03
   5.80000  5.0164041E-03  8.4913995E-03  8.6258034E-03
   6.00000  5.4884199E-03  9.3948479E-03  9.8680615E-03
   6.20000  6.0040958E-03  1.0364707E-02  1.1256844E-02
   6.40000  6.5748267E-03  1.1408142E-02  1.2779562E-02
   6.60000  7.2106693E-03  1.2526456E-02  1.4412066E-02
   6.80000  7.9203303E-03  1.3718979E-02  1.6130176E-02
   7.00000  8.7111718E-03  1.4989043E-02  1.7920642E-02
   7.20000  9.5892208E-03  1.6348806E-02  1.9777890E-02
   7.40000  1.0559223E-02  1.7818953E-02  2.1680818E-02
   7.60000  1.1624948E-02  1.9422458E-02  2.3561665E-02
   7.80000  1.2790001E-02  2.1176261E-02  2.5293132E-02
   8.00000  1.4058902E-02  2.3087675E-02  2.6717076E-02
   8.20000  1.5437516E-02  2.5160054E-02  2.7711896E-02
   8.40000  1.6931890E-02  2.7404084E-02  2.8258175E-02
   8.60000  1.8545253E-02  2.9844154E-02  2.8451466E-02
   8.80000  2.0273844E-02  3.2512480E-02  2.8452405E-02
   9.00000  2.2102708E-02  3.5433105E-02  2.8416236E-02
   9.20000  2.4002812E-02  3.8602945E-02  2.8446931E-02
   9.40000  2.5930832E-02  4.1975369E-02  2.8587834E-02
   9.60000  2.7832790E-02  4.5449379E-02  2.8836080E-02
   9.80000  2.9651529E-02  4.8867221E-02  2.9164070E-02
   10.0000  3.1336015E-02  5.2023439E-02  2.9537183E-02
   10.2500  3.3198247E-02  5.5250076E-02  3.0021380E-02
   10.5000  3.4763251E-02  5.7296109E-02  3.0493358E-02
   10.7500  3.6043690E-02  5.7906798E-02  3.0949952E-02
   11.0000  3.7078464E-02  5.7067145E-02  3.1413047E-02
   11.2500  3.7907717E-02  5.4995195E-02  3.1910681E-02
   11.5000  3.8555528E-02  5.2055721E-02  3.2460089E-02
   11.7500  3.9029300E-02  4.8643536E-02  3.3061305E-02
   12.0000  3.9330638E-02  4.5093612E-02  3.3696335E-02
   12.2500  3.9466265E-02  4.1643041E-02  3.4330260E-02
   12.5000  3.9454364E-02  3.8434035E-02  3.4918290E-02
   12.7500  3.9325603E-02  3.5535856E-02  3.5418719E-02
   13.0000  3.9118908E-02  3.2969336E-02  3.5805648E-02
   13.2500  3.8874718E-02  3.0726682E-02  3.6075695E-02
   13.5000  3.8629605E-02  2.8785347E-02  3.6246952E-02
   13.7500  3.8412634E-02  2.7116811E-02  3.6352084E-02
   14.0000  3.8241441E-02  2.5691508E-02  3.6428957E-02
   14.2500  3.8119686E-02  2.4481278E-02  3.6512241E-02
   14.5000  3.8038751E-02  2.3460438E-02  3.6628183E-02
   14.7500  3.7982220E-02  2.2606151E-02  3.6792567E-02
   15.0000  3.7930242E-02  2.1898460E-02  3.7010585E-02
   15.2500  3.7862654E-02  2.1320166E-02  3.7277634E-02
   15.5000  3.7761096E-02  2.0856599E-02  3.7580619E-02
   15.7500  3.7610457E-02  2.0495355E-02  3.7899696E-02
   16.0000  3.7399863E-02  2.0225992E-02  3.8210504E-02
   16.2500  3.7123314E-02  2.0039719E-02  3.8486899E-02
   16.5000  3.6779985E-02  1.9929081E-02  3.8704007E-02
   16.7500  3.6374220E-02  1.9887666E-02  3.8841236E-02
   17.0000  3.5915159E-02  1.9909836E-02  3.8884731E-02
   17.2500  3.5416026E-02  1.9990503E-02  3.8828794E-02
   17.5000  3.4893078E-02  2.0124954E-02  3.8676000E-02
   17.7500  3.4364309E-02  2.0308727E-02  3.8436064E-02
   18.0000  3.3848052E-02  2.0537532E-02  3.8123819E-02
   18.2500  3.3361637E-02  2.0807211E-02  3.7756821E-02
   18.5000  3.2920257E-02  2.1113724E-02  3.7353075E-02
   18.7500  3.2536138E-02  2.1453161E-02  3.6929220E-02
   19.0000  3.2218072E-02  2.1821794E-02  3.6499327E-02
   19.2500  3.1971272E-02  2.2216152E-02  3.6074277E-02
   19.5000  3.1797494E-02  2.2633129E-02  3.5661618E-02
   19.7500  3.1695310E-02  2.3070024E-02  3.5265783E-02
   20.0000  3.1660399E-02  2.3524392E-02  3.4888617E-02
   21.0000  3.2029529E-02  2.5459897E-02  3.3554759E-02
   22.0000  3.2733109E-02  2.7465052E-02  3.2410468E-02
   23.0000  3.3203740E-02  2.9439878E-02  3.1333192E-02
   24.0000  3.3160137E-02  3.1285435E-02  3.0271935E-02
   25.0000  3.2635487E-02  3.2855248E-02  2.9228050E-02
   26.0000  3.1787102E-02  3.3981979E-02  2.8216724E-02
   27.0000  3.0737767E-02  3.4557383E-02  2.7265548E-02
   28.0000  2.9589232E-02  3.4588838E-02  2.6420976E-02
   29.0000  2.8453411E-02  3.4187146E-02  2.5720887E-02
   30.0000  2.7431837E-02  3.3501133E-02  2.5176782E-02
   31.0000  2.6575892E-02  3.2663356E-02  2.4766883E-02
   32.0000  2.5882242E-02  3.1765243E-02  2.4444114E-02
   33.0000  2.5314954E-02  3.0855204E-02  2.4156282E-02
   34.0000  2.4827424E-02  2.9950258E-02  2.3864620E-02
   35.0000  2.4376669E-02  2.9050992E-02  2.3553460E-02
   36.0000  2.3932643E-02  2.8154223E-02  2.3229806E-02
   37.0000  2.3483913E-02  2.7262978E-02  2.2913734E-02
   38.0000  2.3039370E-02  2.6396230E-02  2.2625568E-02
   39.0000  2.2627227E-02  2.5600354E-02  2.2380197E-02
   40.0000  2.2289059E-02  2.4951442E-02  2.2189256E-02
