    Energy   (100,001)      (010,001)      (001,110)   
  -25.0000  1.6499514E-04  1.8101223E-04  1.7736907E-04
  -24.0000  1.7128386E-04  1.8795718E-04  1.8417845E-04
  -23.0000  1.7801429E-04  1.9540685E-04  1.9147906E-04
  -22.0000  1.8523264E-04  2.0341676E-04  1.9932426E-04
  -21.0000  1.9299168E-04  2.1205073E-04  2.0777532E-04
  -20.0000  2.0135189E-04  2.2138251E-04  2.1690292E-04
  -19.0000  2.1038291E-04  2.3149773E-04  2.2678898E-04
  -18.0000  2.2016537E-04  2.4249639E-04  2.3752898E-04
  -17.0000  2.3079309E-04  2.5449598E-04  2.4923491E-04
  -16.0000  2.4237587E-04  2.6763541E-04  2.6203891E-04
  -15.0000  2.5504304E-04  2.8208004E-04  2.7609803E-04
  -14.0000  2.6894793E-04  2.9802827E-04  2.9160035E-04
  -13.0000  2.8427374E-04  3.1572005E-04  3.0877304E-04
  -12.0000  3.0124111E-04  3.3544825E-04  3.2789299E-04
  -11.0000  3.2011821E-04  3.5757389E-04  3.4930120E-04
  -10.0000  3.4123423E-04  3.8254690E-04  3.7342251E-04
  -9.00000  3.6499782E-04  4.1093488E-04  4.0079306E-04
  -8.00000  3.9192276E-04  4.4346377E-04  4.3209949E-04
  -7.00000  4.2266425E-04  4.8107634E-04  4.6823607E-04
  -6.00000  4.5807183E-04  5.2501868E-04  5.1039042E-04
  -5.00000  4.9926833E-04  5.7697123E-04  5.6017622E-04
  -4.00000  5.4777183E-04  6.3925411E-04  6.1984673E-04
  -3.00000  6.0569161E-04  7.1516102E-04  6.9265427E-04
  -2.00000  6.7605866E-04  8.0952784E-04  7.8349053E-04
  -1.00000  7.6341803E-04  9.2975829E-04  9.0010995E-04
   0.00000  8.7497838E-04  1.0878162E-03  1.0556882E-03
   1.00000  1.0230941E-03  1.3045036E-03  1.2748559E-03
   2.00000  1.2315023E-03  1.6200679E-03  1.6105064E-03
   3.00000  1.5550196E-03  2.1270377E-03  2.2035251E-03
   4.00000  2.1688245E-03  3.1161361E-03  3.5897420E-03
   5.00000  3.8468849E-03  5.8257165E-03  8.4150551E-03
   5.20000  4.3840333E-03  6.6667723E-03  9.9016930E-03
   5.40000  4.9301055E-03  7.5081262E-03  1.1172006E-02
   5.60000  5.4623801E-03  8.3328496E-03  1.2071493E-02
   5.80000  5.9779025E-03  9.1620959E-03  1.2608014E-02
   6.00000  6.4849734E-03  1.0027195E-02  1.2907194E-02
   6.20000  6.9971316E-03  1.0955424E-02  1.3126462E-02
   6.40000  7.5289209E-03  1.1968600E-02  1.3386275E-02
   6.60000  8.0931435E-03  1.3086548E-02  1.3747349E-02
   6.80000  8.6999057E-03  1.4330519E-02  1.4222133E-02
   7.00000  9.3569677E-03  1.5725089E-02  1.4797504E-02
   7.20000  1.0070553E-02  1.7298817E-02  1.5454735E-02
   7.40000  1.0845982E-02  1.9084241E-02  1.6181845E-02
   7.60000  1.1687812E-02  2.1117401E-02  1.6977971E-02
   7.80000  1.2599410E-02  2.3436282E-02  1.7851568E-02
   8.00000  1.3582276E-02  2.6077397E-02  1.8815534E-02
   8.20000  1.4635533E-02  2.9070396E-02  1.9882285E-02
   8.40000  1.5756028E-02  3.2430976E-02  2.1060577E-02
   8.60000  1.6939272E-02  3.6152063E-02  2.2354419E-02
   8.80000  1.8181009E-02  4.0192256E-02  2.3763214E-02
   9.00000  1.9478601E-02  4.4460669E-02  2.5281836E-02
   9.20000  2.0831521E-02  4.8800884E-02  2.6899814E-02
   9.40000  2.2240701E-02  5.2982644E-02  2.8599616E-02
   9.60000  2.3706659E-02  5.6713662E-02  3.0354887E-02
   9.80000  2.5227091E-02  5.9682385E-02  3.2130005E-02
   10.0000  2.6794415E-02  6.1627854E-02  3.3881652E-02
   10.2500  2.8795345E-02  6.2418424E-02  3.5965145E-02
   10.5000  3.0795699E-02  6.1449588E-02  3.7844750E-02
   10.7500  3.2726451E-02  5.9071363E-02  3.9442984E-02
   11.0000  3.4503226E-02  5.5770313E-02  4.0707159E-02
   11.2500  3.6034436E-02  5.2012046E-02  4.1612866E-02
   11.5000  3.7235574E-02  4.8155914E-02  4.2164081E-02
   11.7500  3.8051447E-02  4.4438094E-02  4.2390328E-02
   12.0000  3.8474059E-02  4.0991305E-02  4.2338938E-02
   12.2500  3.8541456E-02  3.7876767E-02  4.2065060E-02
   12.5000  3.8324832E-02  3.5111626E-02  4.1624533E-02
   12.7500  3.7913054E-02  3.2686700E-02  4.1070912E-02
   13.0000  3.7398230E-02  3.0577939E-02  4.0454459E-02
   13.2500  3.6864743E-02  2.8754358E-02  3.9821118E-02
   13.5000  3.6382053E-02  2.7183217E-02  3.9210518E-02
   13.7500  3.6001223E-02  2.5833020E-02  3.8653845E-02
   14.0000  3.5755256E-02  2.4675055E-02  3.8173052E-02
   14.2500  3.5661612E-02  2.3684031E-02  3.7781234E-02
   14.5000  3.5725038E-02  2.2838178E-02  3.7483227E-02
   14.7500  3.5939975E-02  2.2119039E-02  3.7276153E-02
   15.0000  3.6292490E-02  2.1511137E-02  3.7150006E-02
   15.2500  3.6761860E-02  2.1001587E-02  3.7088458E-02
   15.5000  3.7321970E-02  2.0579730E-02  3.7070076E-02
   15.7500  3.7942744E-02  2.0236792E-02  3.7070050E-02
   16.0000  3.8591761E-02  1.9965589E-02  3.7062457E-02
   16.2500  3.9236171E-02  1.9760260E-02  3.7022870E-02
   16.5000  3.9844881E-02  1.9616023E-02  3.6930959E-02
   16.7500  4.0390822E-02  1.9528943E-02  3.6772627E-02
   17.0000  4.0852990E-02  1.9495715E-02  3.6541247E-02
   17.2500  4.1217897E-02  1.9513469E-02  3.6237751E-02
   17.5000  4.1480139E-02  1.9579602E-02  3.5869641E-02
   17.7500  4.1641981E-02  1.9691658E-02  3.5449214E-02
   18.0000  4.1712070E-02  1.9847253E-02  3.4991465E-02
   18.2500  4.1703567E-02  2.0044044E-02  3.4512088E-02
   18.5000  4.1632089E-02  2.0279731E-02  3.4025893E-02
   18.7500  4.1513775E-02  2.0552092E-02  3.3545731E-02
   19.0000  4.1363713E-02  2.0859030E-02  3.3081942E-02
   19.2500  4.1194822E-02  2.1198648E-02  3.2642177E-02
   19.5000  4.1017168E-02  2.1569321E-02  3.2231492E-02
   19.7500  4.0837667E-02  2.1969696E-02  3.1852610E-02
   20.0000  4.0660117E-02  2.2398510E-02  3.1506347E-02
   21.0000  3.9958638E-02  2.4359820E-02  3.0428132E-02
   22.0000  3.9064585E-02  2.6610361E-02  2.9733880E-02
   23.0000  3.7600826E-02  2.8996241E-02  2.9226986E-02
   24.0000  3.5408609E-02  3.1267641E-02  2.8735742E-02
   25.0000  3.2736995E-02  3.3098058E-02  2.8173040E-02
   26.0000  3.0024905E-02  3.4277421E-02  2.7543433E-02
   27.0000  2.7641202E-02  3.4768680E-02  2.6919936E-02
   28.0000  2.5763944E-02  3.4679528E-02  2.6400525E-02
   29.0000  2.4403912E-02  3.4191326E-02  2.6057353E-02
   30.0000  2.3479398E-02  3.3478876E-02  2.5904664E-02
   31.0000  2.2875309E-02  3.2665299E-02  2.5899805E-02
   32.0000  2.2478227E-02  3.1814091E-02  2.5966683E-02
   33.0000  2.2192671E-02  3.0942200E-02  2.6021793E-02
   34.0000  2.1945756E-02  3.0040139E-02  2.5991206E-02
   35.0000  2.1687432E-02  2.9091642E-02  2.5818913E-02
   36.0000  2.1390432E-02  2.8089667E-02  2.5472931E-02
   37.0000  2.1050263E-02  2.7047639E-02  2.4953360E-02
   38.0000  2.0684136E-02  2.6007038E-02  2.4302095E-02
   39.0000  2.0328074E-02  2.5043148E-02  2.3610444E-02
   40.0000  2.0028754E-02  2.4258633E-02  2.3008369E-02
