    Energy   (100,001)      (010,001)      (001,110)   
  -25.0000  1.7510261E-04  1.8471728E-04  1.8474542E-04
  -24.0000  1.8139662E-04  1.9167409E-04  1.9144540E-04
  -23.0000  1.8811781E-04  1.9913045E-04  1.9861038E-04
  -22.0000  1.9531001E-04  2.0714081E-04  2.0628945E-04
  -21.0000  2.0302312E-04  2.1576776E-04  2.1453878E-04
  -20.0000  2.1131429E-04  2.2508353E-04  2.2342297E-04
  -19.0000  2.2024922E-04  2.3517193E-04  2.3301663E-04
  -18.0000  2.2990384E-04  2.4613073E-04  2.4340643E-04
  -17.0000  2.4036636E-04  2.5807466E-04  2.5469359E-04
  -16.0000  2.5173985E-04  2.7113926E-04  2.6699708E-04
  -15.0000  2.6414550E-04  2.8548569E-04  2.8045767E-04
  -14.0000  2.7772675E-04  3.0130706E-04  2.9524316E-04
  -13.0000  2.9265467E-04  3.1883671E-04  3.1155511E-04
  -12.0000  3.0913491E-04  3.3835906E-04  3.2963788E-04
  -11.0000  3.2741693E-04  3.6022425E-04  3.4979049E-04
  -10.0000  3.4780631E-04  3.8486815E-04  3.7238290E-04
  -9.00000  3.7068155E-04  4.1283988E-04  3.9787837E-04
  -8.00000  3.9651729E-04  4.4484082E-04  4.2686495E-04
  -7.00000  4.2591720E-04  4.8178071E-04  4.6010076E-04
  -6.00000  4.5966134E-04  5.2486047E-04  4.9858074E-04
  -5.00000  4.9877675E-04  5.7569787E-04  5.4363797E-04
  -4.00000  5.4464527E-04  6.3652445E-04  5.9710288E-04
  -3.00000  5.9917515E-04  7.1050636E-04  6.6156388E-04
  -2.00000  6.6508624E-04  8.0229210E-04  7.4081591E-04
  -1.00000  7.4641213E-04  9.1900442E-04  8.4068322E-04
   0.00000  8.4945083E-04  1.0721783E-03  9.7065610E-04
   1.00000  9.8475289E-04  1.2819558E-03  1.1475256E-03
   2.00000  1.1719121E-03  1.5875971E-03  1.4048104E-03
   3.00000  1.4539317E-03  2.0803994E-03  1.8236330E-03
   4.00000  1.9588405E-03  3.0513786E-03  2.6786465E-03
   5.00000  3.2152220E-03  5.7620054E-03  5.2192531E-03
   5.20000  3.6061989E-03  6.6189751E-03  6.0137265E-03
   5.40000  4.0094895E-03  7.4860720E-03  6.7772965E-03
   5.60000  4.4173019E-03  8.3416672E-03  7.4685478E-03
   5.80000  4.8358107E-03  9.1978110E-03  8.0899365E-03
   6.00000  5.2768448E-03  1.0077081E-02  8.6692171E-03
   6.20000  5.7538328E-03  1.1001413E-02  9.2453383E-03
   6.40000  6.2808349E-03  1.1989533E-02  9.8585794E-03
   6.60000  6.8723791E-03  1.3057117E-02  1.0544313E-02
   6.80000  7.5431507E-03  1.4217603E-02  1.1330632E-02
   7.00000  8.3071573E-03  1.5483199E-02  1.2238437E-02
   7.20000  9.1761944E-03  1.6865967E-02  1.3282052E-02
   7.40000  1.0157661E-02  1.8378833E-02  1.4469162E-02
   7.60000  1.1252099E-02  2.0036340E-02  1.5799719E-02
   7.80000  1.2451235E-02  2.1854883E-02  1.7264356E-02
   8.00000  1.3737708E-02  2.3852265E-02  1.8843665E-02
   8.20000  1.5087491E-02  2.6046324E-02  2.0510012E-02
   8.40000  1.6475154E-02  2.8452366E-02  2.2232489E-02
   8.60000  1.7880487E-02  3.1079607E-02  2.3982757E-02
   8.80000  1.9292567E-02  3.3926900E-02  2.5736117E-02
   9.00000  2.0707125E-02  3.6977758E-02  2.7463627E-02
   9.20000  2.2117672E-02  4.0194869E-02  2.9119684E-02
   9.40000  2.3506677E-02  4.3514978E-02  3.0637131E-02
   9.60000  2.4843844E-02  4.6845649E-02  3.1938924E-02
   9.80000  2.6093046E-02  5.0065472E-02  3.2962817E-02
   10.0000  2.7222988E-02  5.3028428E-02  3.3684828E-02
   10.2500  2.8440427E-02  5.6123732E-02  3.4201482E-02
   10.5000  2.9437370E-02  5.8251138E-02  3.4406645E-02
   10.7500  3.0234431E-02  5.9164004E-02  3.4453039E-02
   11.0000  3.0863836E-02  5.8756865E-02  3.4471100E-02
   11.2500  3.1356660E-02  5.7108162E-02  3.4543101E-02
   11.5000  3.1738443E-02  5.4462712E-02  3.4701557E-02
   11.7500  3.2030785E-02  5.1162478E-02  3.4939222E-02
   12.0000  3.2254344E-02  4.7559331E-02  3.5223373E-02
   12.2500  3.2429245E-02  4.3945809E-02  3.5511254E-02
   12.5000  3.2573342E-02  4.0523733E-02  3.5762920E-02
   12.7500  3.2701372E-02  3.7406999E-02  3.5948337E-02
   13.0000  3.2826466E-02  3.4641817E-02  3.6050366E-02
   13.2500  3.2963293E-02  3.2229825E-02  3.6065330E-02
   13.5000  3.3129179E-02  3.0147628E-02  3.6000448E-02
   13.7500  3.3340341E-02  2.8361200E-02  3.5870027E-02
   14.0000  3.3606718E-02  2.6834698E-02  3.5692687E-02
   14.2500  3.3930360E-02  2.5534495E-02  3.5488613E-02
   14.5000  3.4306647E-02  2.4430480E-02  3.5276647E-02
   14.7500  3.4725804E-02  2.3496309E-02  3.5072229E-02
   15.0000  3.5174028E-02  2.2709259E-02  3.4886455E-02
   15.2500  3.5634472E-02  2.2049918E-02  3.4725988E-02
   15.5000  3.6088340E-02  2.1501825E-02  3.4593472E-02
   15.7500  3.6516142E-02  2.1051106E-02  3.4488226E-02
   16.0000  3.6899135E-02  2.0686160E-02  3.4407081E-02
   16.2500  3.7220838E-02  2.0397380E-02  3.4345258E-02
   16.5000  3.7468450E-02  2.0176904E-02  3.4297212E-02
   16.7500  3.7633937E-02  2.0018379E-02  3.4257367E-02
   17.0000  3.7714597E-02  1.9916717E-02  3.4220655E-02
   17.2500  3.7712999E-02  1.9867851E-02  3.4182869E-02
   17.5000  3.7636345E-02  1.9868492E-02  3.4140795E-02
   17.7500  3.7495431E-02  1.9915916E-02  3.4092190E-02
   18.0000  3.7303407E-02  2.0007771E-02  3.4035664E-02
   18.2500  3.7074562E-02  2.0141941E-02  3.3970514E-02
   18.5000  3.6823265E-02  2.0316439E-02  3.3896573E-02
   18.7500  3.6563138E-02  2.0529362E-02  3.3814084E-02
   19.0000  3.6306438E-02  2.0778882E-02  3.3723610E-02
   19.2500  3.6063641E-02  2.1063281E-02  3.3625947E-02
   19.5000  3.5843146E-02  2.1381010E-02  3.3522046E-02
   19.7500  3.5651111E-02  2.1730702E-02  3.3412935E-02
   20.0000  3.5491441E-02  2.2111022E-02  3.3299685E-02
   21.0000  3.5191334E-02  2.3899636E-02  3.2828205E-02
   22.0000  3.5313966E-02  2.6013037E-02  3.2359437E-02
   23.0000  3.5521723E-02  2.8300094E-02  3.1874738E-02
   24.0000  3.5440004E-02  3.0536445E-02  3.1314874E-02
   25.0000  3.4819059E-02  3.2440163E-02  3.0628164E-02
   26.0000  3.3623720E-02  3.3774466E-02  2.9803294E-02
   27.0000  3.2028959E-02  3.4450505E-02  2.8886522E-02
   28.0000  3.0325495E-02  3.4545584E-02  2.7984734E-02
   29.0000  2.8783903E-02  3.4233017E-02  2.7228424E-02
   30.0000  2.7540430E-02  3.3680475E-02  2.6692405E-02
   31.0000  2.6615639E-02  3.3004052E-02  2.6381402E-02
   32.0000  2.5966455E-02  3.2268073E-02  2.6251259E-02
   33.0000  2.5521623E-02  3.1498491E-02  2.6235293E-02
   34.0000  2.5207568E-02  3.0698010E-02  2.6269222E-02
   35.0000  2.4964644E-02  2.9859494E-02  2.6305267E-02
   36.0000  2.4754400E-02  2.8977696E-02  2.6313906E-02
   37.0000  2.4559232E-02  2.8059941E-02  2.6278567E-02
   38.0000  2.4376553E-02  2.7136485E-02  2.6192167E-02
   39.0000  2.4212360E-02  2.6271184E-02  2.6063677E-02
   40.0000  2.4077615E-02  2.5560234E-02  2.5928782E-02
