    Energy   (100,001)      (010,001)      (001,110)   
  -25.0000  1.6314094E-04  1.8089334E-04  1.7500446E-04
  -24.0000  1.6917794E-04  1.8791162E-04  1.8156478E-04
  -23.0000  1.7562729E-04  1.9544479E-04  1.8858559E-04
  -22.0000  1.8253103E-04  2.0354992E-04  1.9611549E-04
  -21.0000  1.8993702E-04  2.1229266E-04  2.0421011E-04
  -20.0000  1.9789996E-04  2.2174894E-04  2.1293329E-04
  -19.0000  2.0648266E-04  2.3200703E-04  2.2235879E-04
  -18.0000  2.1575756E-04  2.4317007E-04  2.3257215E-04
  -17.0000  2.2580868E-04  2.5535937E-04  2.4367321E-04
  -16.0000  2.3673401E-04  2.6871849E-04  2.5577919E-04
  -15.0000  2.4864852E-04  2.8341854E-04  2.6902863E-04
  -14.0000  2.6168799E-04  2.9966503E-04  2.8358642E-04
  -13.0000  2.7601399E-04  3.1770683E-04  2.9965043E-04
  -12.0000  2.9182028E-04  3.3784807E-04  3.1746013E-04
  -11.0000  3.0934132E-04  3.6046419E-04  3.3730819E-04
  -10.0000  3.2886362E-04  3.8602383E-04  3.5955610E-04
  -9.00000  3.5074116E-04  4.1511919E-04  3.8465584E-04
  -8.00000  3.7541690E-04  4.4850904E-04  4.1318024E-04
  -7.00000  4.0345305E-04  4.8718093E-04  4.4586674E-04
  -6.00000  4.3557518E-04  5.3244319E-04  4.8368189E-04
  -5.00000  4.7273816E-04  5.8606508E-04  5.2791951E-04
  -4.00000  5.1622819E-04  6.5049718E-04  5.8035516E-04
  -3.00000  5.6782763E-04  7.2923177E-04  6.4350012E-04
  -2.00000  6.3009551E-04  8.2742023E-04  7.2104050E-04
  -1.00000  7.0687711E-04  9.5299515E-04  8.1864713E-04
   0.00000  8.0431295E-04  1.1188698E-03  9.4559633E-04
   1.00000  9.3307951E-04  1.3477128E-03  1.1183849E-03
   2.00000  1.1142364E-03  1.6839404E-03  1.3700966E-03
   3.00000  1.3985976E-03  2.2313498E-03  1.7806676E-03
   4.00000  1.9594477E-03  3.3223183E-03  2.6148576E-03
   5.00000  3.5870972E-03  6.4004176E-03  5.0721114E-03
   5.20000  4.0929315E-03  7.3717826E-03  5.8998596E-03
   5.40000  4.5882472E-03  8.3479840E-03  6.7807101E-03
   5.60000  5.0587469E-03  9.3019802E-03  7.6972257E-03
   5.80000  5.5087146E-03  1.0247768E-02  8.6498352E-03
   6.00000  5.9405133E-03  1.1214141E-02  9.6331466E-03
   6.20000  6.3483782E-03  1.2231132E-02  1.0622606E-02
   6.40000  6.7241245E-03  1.3326026E-02  1.1574994E-02
   6.60000  7.0658229E-03  1.4522914E-02  1.2441706E-02
   6.80000  7.3817889E-03  1.5843698E-02  1.3188046E-02
   7.00000  7.6881213E-03  1.7309697E-02  1.3806926E-02
   7.20000  8.0035022E-03  1.8943126E-02  1.4319685E-02
   7.40000  8.3452388E-03  2.0767759E-02  1.4765998E-02
   7.60000  8.7276887E-03  2.2808477E-02  1.5190227E-02
   7.80000  9.1622362E-03  2.5090014E-02  1.5630612E-02
   8.00000  9.6577618E-03  2.7635049E-02  1.6114053E-02
   8.20000  1.0221126E-02  3.0461352E-02  1.6656106E-02
   8.40000  1.0857756E-02  3.3577903E-02  1.7264311E-02
   8.60000  1.1572418E-02  3.6979967E-02  1.7942404E-02
   8.80000  1.2369902E-02  4.0642633E-02  1.8693271E-02
   9.00000  1.3255117E-02  4.4512139E-02  1.9519650E-02
   9.20000  1.4232304E-02  4.8494866E-02  2.0423025E-02
   9.40000  1.5303498E-02  5.2446129E-02  2.1402086E-02
   9.60000  1.6466761E-02  5.6164639E-02  2.2452188E-02
   9.80000  1.7714780E-02  5.9401315E-02  2.3566495E-02
   10.0000  1.9034005E-02  6.1888971E-02  2.4737917E-02
   10.2500  2.0751730E-02  6.3591965E-02  2.6272635E-02
   10.5000  2.2496629E-02  6.3501325E-02  2.7873998E-02
   10.7500  2.4211145E-02  6.1681161E-02  2.9528675E-02
   11.0000  2.5844495E-02  5.8498550E-02  3.1219172E-02
   11.2500  2.7362473E-02  5.4478286E-02  3.2917190E-02
   11.5000  2.8750405E-02  5.0131391E-02  3.4579283E-02
   11.7500  3.0010743E-02  4.5846054E-02  3.6150083E-02
   12.0000  3.1157314E-02  4.1862705E-02  3.7572291E-02
   12.2500  3.2208316E-02  3.8300431E-02  3.8798158E-02
   12.5000  3.3181755E-02  3.5195575E-02  3.9797192E-02
   12.7500  3.4093436E-02  3.2534943E-02  4.0559303E-02
   13.0000  3.4955993E-02  3.0280074E-02  4.1094428E-02
   13.2500  3.5778323E-02  2.8382987E-02  4.1429116E-02
   13.5000  3.6565094E-02  2.6795157E-02  4.1600807E-02
   13.7500  3.7316587E-02  2.5471934E-02  4.1651332E-02
   14.0000  3.8029421E-02  2.4374189E-02  4.1621124E-02
   14.2500  3.8697783E-02  2.3468492E-02  4.1545024E-02
   14.5000  3.9314546E-02  2.2726672E-02  4.1449852E-02
   14.7500  3.9872093E-02  2.2125179E-02  4.1353484E-02
   15.0000  4.0362903E-02  2.1644423E-02  4.1265018E-02
   15.2500  4.0779985E-02  2.1268171E-02  4.1185702E-02
   15.5000  4.1117226E-02  2.0983002E-02  4.1110343E-02
   15.7500  4.1369693E-02  2.0777814E-02  4.1029052E-02
   16.0000  4.1533965E-02  2.0643376E-02  4.0929160E-02
   16.2500  4.1608499E-02  2.0571927E-02  4.0797187E-02
   16.5000  4.1594042E-02  2.0556832E-02  4.0620719E-02
   16.7500  4.1494012E-02  2.0592295E-02  4.0390024E-02
   17.0000  4.1314768E-02  2.0673137E-02  4.0099222E-02
   17.2500  4.1065667E-02  2.0794642E-02  3.9746889E-02
   17.5000  4.0758822E-02  2.0952456E-02  3.9336059E-02
   17.7500  4.0408551E-02  2.1142541E-02  3.8873677E-02
   18.0000  4.0030541E-02  2.1361164E-02  3.8369651E-02
   18.2500  3.9640861E-02  2.1604910E-02  3.7835709E-02
   18.5000  3.9254953E-02  2.1870708E-02  3.7284244E-02
   18.7500  3.8886747E-02  2.2155859E-02  3.6727302E-02
   19.0000  3.8547996E-02  2.2458073E-02  3.6175779E-02
   19.2500  3.8247868E-02  2.2775512E-02  3.5638864E-02
   19.5000  3.7992793E-02  2.3106817E-02  3.5123699E-02
   19.7500  3.7786504E-02  2.3451090E-02  3.4635271E-02
   20.0000  3.7630250E-02  2.3807712E-02  3.4176631E-02
   21.0000  3.7466294E-02  2.5339392E-02  3.2663019E-02
   22.0000  3.7804078E-02  2.6987323E-02  3.1630466E-02
   23.0000  3.8132473E-02  2.8667010E-02  3.0923964E-02
   24.0000  3.7858904E-02  3.0237828E-02  3.0363268E-02
   25.0000  3.6649628E-02  3.1517517E-02  2.9824294E-02
   26.0000  3.4667292E-02  3.2358553E-02  2.9269138E-02
   27.0000  3.2379223E-02  3.2730428E-02  2.8717058E-02
   28.0000  3.0226003E-02  3.2699080E-02  2.8207094E-02
   29.0000  2.8441416E-02  3.2367093E-02  2.7772189E-02
   30.0000  2.7064342E-02  3.1829557E-02  2.7425218E-02
   31.0000  2.6027620E-02  3.1155240E-02  2.7156002E-02
   32.0000  2.5231094E-02  3.0386344E-02  2.6935703E-02
   33.0000  2.4580348E-02  2.9546748E-02  2.6724156E-02
   34.0000  2.4001943E-02  2.8652756E-02  2.6477182E-02
   35.0000  2.3446875E-02  2.7722314E-02  2.6152997E-02
   36.0000  2.2889740E-02  2.6779249E-02  2.5719394E-02
   37.0000  2.2327167E-02  2.5852394E-02  2.5163631E-02
   38.0000  2.1776049E-02  2.4975323E-02  2.4505509E-02
   39.0000  2.1271559E-02  2.4193569E-02  2.3812877E-02
   40.0000  2.0860593E-02  2.3569199E-02  2.3203960E-02
