    Energy   (100,001)      (010,001)      (001,110)   
  -25.0000  1.6664344E-04  1.8649172E-04  1.7266005E-04
  -24.0000  1.7288315E-04  1.9345013E-04  1.7915160E-04
  -23.0000  1.7955558E-04  2.0090532E-04  1.8609858E-04
  -22.0000  1.8670559E-04  2.0891127E-04  1.9354893E-04
  -21.0000  1.9438433E-04  2.1752996E-04  2.0155742E-04
  -20.0000  2.0265040E-04  2.2683292E-04  2.1018696E-04
  -19.0000  2.1157121E-04  2.3690309E-04  2.1951009E-04
  -18.0000  2.2122471E-04  2.4783721E-04  2.2961092E-04
  -17.0000  2.3170155E-04  2.5974877E-04  2.4058751E-04
  -16.0000  2.4310769E-04  2.7277172E-04  2.5255483E-04
  -15.0000  2.5556781E-04  2.8706534E-04  2.6564863E-04
  -14.0000  2.6922961E-04  3.0282036E-04  2.8003027E-04
  -13.0000  2.8426933E-04  3.2026712E-04  2.9589305E-04
  -12.0000  3.0089906E-04  3.3968624E-04  3.1347050E-04
  -11.0000  3.1937628E-04  3.6142301E-04  3.3304749E-04
  -10.0000  3.4001674E-04  3.8590693E-04  3.5497506E-04
  -9.00000  3.6321205E-04  4.1367878E-04  3.7969101E-04
  -8.00000  3.8945407E-04  4.4542872E-04  4.0774859E-04
  -7.00000  4.1936960E-04  4.8205117E-04  4.3985769E-04
  -6.00000  4.5377081E-04  5.2472571E-04  4.7694530E-04
  -5.00000  4.9373079E-04  5.7503960E-04  5.2024710E-04
  -4.00000  5.4070049E-04  6.3517952E-04  5.7145109E-04
  -3.00000  5.9669756E-04  7.0824344E-04  6.3293298E-04
  -2.00000  6.6462690E-04  7.9877203E-04  7.0816266E-04
  -1.00000  7.4886092E-04  9.1370904E-04  8.0245560E-04
   0.00000  8.5638213E-04  1.0642740E-03  9.2448898E-04
   1.00000  9.9930336E-04  1.2700090E-03  1.0897466E-03
   2.00000  1.2014002E-03  1.5689113E-03  1.3297722E-03
   3.00000  1.5196790E-03  2.0492165E-03  1.7240418E-03
   4.00000  2.1480787E-03  2.9927431E-03  2.5605863E-03
   5.00000  3.9639156E-03  5.6192337E-03  5.1739559E-03
   5.20000  4.5102362E-03  6.4388696E-03  5.9221877E-03
   5.40000  5.0220518E-03  7.2580436E-03  6.5634110E-03
   5.60000  5.4788532E-03  8.0568608E-03  7.0724489E-03
   5.80000  5.8906396E-03  8.8500035E-03  7.4852954E-03
   6.00000  6.2773811E-03  9.6620614E-03  7.8529219E-03
   6.20000  6.6593232E-03  1.0516136E-02  8.2169437E-03
   6.40000  7.0544896E-03  1.1431854E-02  8.6038134E-03
   6.60000  7.4780603E-03  1.2426108E-02  9.0272470E-03
   6.80000  7.9420551E-03  1.3514005E-02  9.4933333E-03
   7.00000  8.4553409E-03  1.4709598E-02  1.0005507E-02
   7.20000  9.0241082E-03  1.6026586E-02  1.0568175E-02
   7.40000  9.6526937E-03  1.7479233E-02  1.1188989E-02
   7.60000  1.0344482E-02  1.9083529E-02  1.1880113E-02
   7.80000  1.1102674E-02  2.0858383E-02  1.2658505E-02
   8.00000  1.1930785E-02  2.2826287E-02  1.3544807E-02
   8.20000  1.2832791E-02  2.5012738E-02  1.4560634E-02
   8.40000  1.3812942E-02  2.7444158E-02  1.5724609E-02
   8.60000  1.4875438E-02  3.0144508E-02  1.7047979E-02
   8.80000  1.6024001E-02  3.3130079E-02  1.8530770E-02
   9.00000  1.7261327E-02  3.6401597E-02  2.0159398E-02
   9.20000  1.8588450E-02  3.9933287E-02  2.1906472E-02
   9.40000  2.0004093E-02  4.3659571E-02  2.3733152E-02
   9.60000  2.1504147E-02  4.7462214E-02  2.5593768E-02
   9.80000  2.3081445E-02  5.1164540E-02  2.7441747E-02
   10.0000  2.4725511E-02  5.4540135E-02  2.9235388E-02
   10.2500  2.6851113E-02  5.7920461E-02  3.1351676E-02
   10.5000  2.9012714E-02  5.9970242E-02  3.3287510E-02
   10.7500  3.1142802E-02  6.0454340E-02  3.5014470E-02
   11.0000  3.3149395E-02  5.9409870E-02  3.6514735E-02
   11.2500  3.4927963E-02  5.7108967E-02  3.7777100E-02
   11.5000  3.6384857E-02  5.3947696E-02  3.8793849E-02
   11.7500  3.7460012E-02  5.0330268E-02  3.9560856E-02
   12.0000  3.8139679E-02  4.6592699E-02  4.0081074E-02
   12.2500  3.8455259E-02  4.2973547E-02  4.0368556E-02
   12.5000  3.8470362E-02  3.9617891E-02  4.0450318E-02
   12.7500  3.8263398E-02  3.6596870E-02  4.0365078E-02
   13.0000  3.7912755E-02  3.3930526E-02  4.0159271E-02
   13.2500  3.7487589E-02  3.1607969E-02  3.9881189E-02
   13.5000  3.7043984E-02  2.9602456E-02  3.9575368E-02
   13.7500  3.6624764E-02  2.7881008E-02  3.9279287E-02
   14.0000  3.6260956E-02  2.6409827E-02  3.9022149E-02
   14.2500  3.5973586E-02  2.5157124E-02  3.8824573E-02
   14.5000  3.5775336E-02  2.4094392E-02  3.8698696E-02
   14.7500  3.5671938E-02  2.3196777E-02  3.8648539E-02
   15.0000  3.5663322E-02  2.2442937E-02  3.8670579E-02
   15.2500  3.5744541E-02  2.1814688E-02  3.8754484E-02
   15.5000  3.5906575E-02  2.1296574E-02  3.8884082E-02
   15.7500  3.6137089E-02  2.0875467E-02  3.9038635E-02
   16.0000  3.6421258E-02  2.0540214E-02  3.9194524E-02
   16.2500  3.6742670E-02  2.0281349E-02  3.9327336E-02
   16.5000  3.7084339E-02  2.0090857E-02  3.9414227E-02
   16.7500  3.7429775E-02  1.9961950E-02  3.9436262E-02
   17.0000  3.7764032E-02  1.9888880E-02  3.9380342E-02
   17.2500  3.8074629E-02  1.9866758E-02  3.9240355E-02
   17.5000  3.8352216E-02  1.9891383E-02  3.9017343E-02
   17.7500  3.8590923E-02  1.9959106E-02  3.8718699E-02
   18.0000  3.8788323E-02  2.0066710E-02  3.8356642E-02
   18.2500  3.8945068E-02  2.0211322E-02  3.7946332E-02
   18.5000  3.9064260E-02  2.0390365E-02  3.7504001E-02
   18.7500  3.9150683E-02  2.0601526E-02  3.7045375E-02
   19.0000  3.9210010E-02  2.0842766E-02  3.6584513E-02
   19.2500  3.9248083E-02  2.1112351E-02  3.6133086E-02
   19.5000  3.9270314E-02  2.1408890E-02  3.5700022E-02
   19.7500  3.9281244E-02  2.1731328E-02  3.5291478E-02
   20.0000  3.9284245E-02  2.2078801E-02  3.4911138E-02
   21.0000  3.9239921E-02  2.3694986E-02  3.3692831E-02
   22.0000  3.9025519E-02  2.5612743E-02  3.2901146E-02
   23.0000  3.8374624E-02  2.7740326E-02  3.2338721E-02
   24.0000  3.7046357E-02  2.9893727E-02  3.1778771E-02
   25.0000  3.5059743E-02  3.1805721E-02  3.1051760E-02
   26.0000  3.2684154E-02  3.3284764E-02  3.0103589E-02
   27.0000  3.0284197E-02  3.4241436E-02  2.9012303E-02
   28.0000  2.8156389E-02  3.4675350E-02  2.7932563E-02
   29.0000  2.6452236E-02  3.4661479E-02  2.7005356E-02
   30.0000  2.5191945E-02  3.4315316E-02  2.6300760E-02
   31.0000  2.4316267E-02  3.3752322E-02  2.5815156E-02
   32.0000  2.3732841E-02  3.3060778E-02  2.5498241E-02
   33.0000  2.3343746E-02  3.2293980E-02  2.5280514E-02
   34.0000  2.3059204E-02  3.1476080E-02  2.5090237E-02
   35.0000  2.2804616E-02  3.0614051E-02  2.4862617E-02
   36.0000  2.2525806E-02  2.9711177E-02  2.4547090E-02
   37.0000  2.2194225E-02  2.8779673E-02  2.4116708E-02
   38.0000  2.1812024E-02  2.7851779E-02  2.3580953E-02
   39.0000  2.1415310E-02  2.6989772E-02  2.2999549E-02
   40.0000  2.1067586E-02  2.6285375E-02  2.2480699E-02
