    Energy   (100,001)      (010,001)      (001,110)   
  -25.0000  1.8242742E-04  1.7758989E-04  1.8181741E-04
  -24.0000  1.8911462E-04  1.8466532E-04  1.8864740E-04
  -23.0000  1.9626880E-04  1.9227032E-04  1.9596404E-04
  -22.0000  2.0393941E-04  2.0046458E-04  2.0381975E-04
  -21.0000  2.1218303E-04  2.0931690E-04  2.1227465E-04
  -20.0000  2.2106474E-04  2.1890704E-04  2.2139801E-04
  -19.0000  2.3065973E-04  2.2932792E-04  2.3127002E-04
  -18.0000  2.4105530E-04  2.4068839E-04  2.4198404E-04
  -17.0000  2.5235345E-04  2.5311681E-04  2.5364937E-04
  -16.0000  2.6467405E-04  2.6676551E-04  2.6639478E-04
  -15.0000  2.7815892E-04  2.8181660E-04  2.8037306E-04
  -14.0000  2.9297708E-04  2.9848947E-04  2.9576677E-04
  -13.0000  3.0933154E-04  3.1705078E-04  3.1279586E-04
  -12.0000  3.2746830E-04  3.3782760E-04  3.3172771E-04
  -11.0000  3.4768832E-04  3.6122537E-04  3.5289053E-04
  -10.0000  3.7036373E-04  3.8775238E-04  3.7669164E-04
  -9.00000  3.9596021E-04  4.1805409E-04  4.0364275E-04
  -8.00000  4.2506838E-04  4.5296198E-04  4.3439560E-04
  -7.00000  4.5844876E-04  4.9356451E-04  4.6979340E-04
  -6.00000  4.9709800E-04  5.4131313E-04  5.1094671E-04
  -5.00000  5.4234880E-04  5.9818472E-04  5.5934904E-04
  -4.00000  5.9602611E-04  6.6693926E-04  6.1705863E-04
  -3.00000  6.6070092E-04  7.5154472E-04  6.8699629E-04
  -2.00000  7.4012238E-04  8.5791147E-04  7.7345773E-04
  -1.00000  8.3999823E-04  9.9523858E-04  8.8305002E-04
   0.00000  9.6951252E-04  1.1786737E-03  1.0265410E-03
   1.00000  1.1445804E-03  1.4351215E-03  1.2229065E-03
   2.00000  1.3958400E-03  1.8178530E-03  1.5095494E-03
   3.00000  1.7926381E-03  2.4520560E-03  1.9742200E-03
   4.00000  2.5423393E-03  3.7358858E-03  2.8948760E-03
   5.00000  4.5021939E-03  7.3903291E-03  5.4862804E-03
   5.20000  5.1649515E-03  8.5754753E-03  6.3577574E-03
   5.40000  5.9108532E-03  9.8030878E-03  7.2947693E-03
   5.60000  6.7499059E-03  1.1046745E-02  8.2810657E-03
   5.80000  7.7046696E-03  1.2322697E-02  9.3253947E-03
   6.00000  8.7950015E-03  1.3662976E-02  1.0445931E-02
   6.20000  1.0027063E-02  1.5101709E-02  1.1658504E-02
   6.40000  1.1385093E-02  1.6670841E-02  1.2967362E-02
   6.60000  1.2826153E-02  1.8398169E-02  1.4355661E-02
   6.80000  1.4280819E-02  2.0305308E-02  1.5776979E-02
   7.00000  1.5660417E-02  2.2406066E-02  1.7154160E-02
   7.20000  1.6870276E-02  2.4707070E-02  1.8395311E-02
   7.40000  1.7833116E-02  2.7211553E-02  1.9430460E-02
   7.60000  1.8522153E-02  2.9923808E-02  2.0251393E-02
   7.80000  1.8983030E-02  3.2849068E-02  2.0922286E-02
   8.00000  1.9320617E-02  3.5985974E-02  2.1549587E-02
   8.20000  1.9658353E-02  3.9314972E-02  2.2237293E-02
   8.40000  2.0100906E-02  4.2788822E-02  2.3059244E-02
   8.60000  2.0718107E-02  4.6328383E-02  2.4055062E-02
   8.80000  2.1546377E-02  4.9822634E-02  2.5237977E-02
   9.00000  2.2596744E-02  5.3130728E-02  2.6603106E-02
   9.20000  2.3862239E-02  5.6086158E-02  2.8131721E-02
   9.40000  2.5322349E-02  5.8506713E-02  2.9791999E-02
   9.60000  2.6944811E-02  6.0215072E-02  3.1538505E-02
   9.80000  2.8685968E-02  6.1070520E-02  3.3312812E-02
   10.0000  3.0490645E-02  6.1003461E-02  3.5047301E-02
   10.2500  3.2733249E-02  5.9666994E-02  3.7055007E-02
   10.5000  3.4821480E-02  5.7168390E-02  3.8779174E-02
   10.7500  3.6606606E-02  5.3871669E-02  4.0146026E-02
   11.0000  3.7970188E-02  5.0156739E-02  4.1126892E-02
   11.2500  3.8852051E-02  4.6338408E-02  4.1731976E-02
   11.5000  3.9263145E-02  4.2636266E-02  4.1999085E-02
   11.7500  3.9275035E-02  3.9181750E-02  4.1980255E-02
   12.0000  3.8994439E-02  3.6040536E-02  4.1730018E-02
   12.2500  3.8537928E-02  3.3235995E-02  4.1299634E-02
   12.5000  3.8010945E-02  3.0766780E-02  4.0736816E-02
   12.7500  3.7494310E-02  2.8617486E-02  4.0087733E-02
   13.0000  3.7042363E-02  2.6764868E-02  3.9398147E-02
   13.2500  3.6687398E-02  2.5181876E-02  3.8711846E-02
   13.5000  3.6444026E-02  2.3840456E-02  3.8066924E-02
   13.7500  3.6312646E-02  2.2713413E-02  3.7492505E-02
   14.0000  3.6282711E-02  2.1775511E-02  3.7007516E-02
   14.2500  3.6336047E-02  2.1004037E-02  3.6621250E-02
   14.5000  3.6449781E-02  2.0378984E-02  3.6334534E-02
   14.7500  3.6598590E-02  1.9882998E-02  3.6140847E-02
   15.0000  3.6756461E-02  1.9501192E-02  3.6027410E-02
   15.2500  3.6898267E-02  1.9220889E-02  3.5976467E-02
   15.5000  3.7001242E-02  1.9031352E-02  3.5966846E-02
   15.7500  3.7046342E-02  1.8923510E-02  3.5975783E-02
   16.0000  3.7019402E-02  1.8889697E-02  3.5980913E-02
   16.2500  3.6911971E-02  1.8923401E-02  3.5962212E-02
   16.5000  3.6721716E-02  1.9019038E-02  3.5903647E-02
   16.7500  3.6452290E-02  1.9171747E-02  3.5794288E-02
   17.0000  3.6112665E-02  1.9377224E-02  3.5628736E-02
   17.2500  3.5715974E-02  1.9631580E-02  3.5406843E-02
   17.5000  3.5278055E-02  1.9931237E-02  3.5132865E-02
   17.7500  3.4815883E-02  2.0272851E-02  3.4814274E-02
   18.0000  3.4346139E-02  2.0653256E-02  3.4460458E-02
   18.2500  3.3884058E-02  2.1069430E-02  3.4081545E-02
   18.5000  3.3442650E-02  2.1518468E-02  3.3687453E-02
   18.7500  3.3032292E-02  2.1997585E-02  3.3287223E-02
   19.0000  3.2660627E-02  2.2504134E-02  3.2888607E-02
   19.2500  3.2332684E-02  2.3035657E-02  3.2497852E-02
   19.5000  3.2051117E-02  2.3589943E-02  3.2119616E-02
   19.7500  3.1816511E-02  2.4164997E-02  3.1757018E-02
   20.0000  3.1627713E-02  2.4758743E-02  3.1411859E-02
   21.0000  3.1269224E-02  2.7251361E-02  3.0217621E-02
   22.0000  3.1338861E-02  2.9720551E-02  2.9296158E-02
   23.0000  3.1508341E-02  3.1864816E-02  2.8552435E-02
   24.0000  3.1459326E-02  3.3390916E-02  2.7903012E-02
   25.0000  3.0996175E-02  3.4120729E-02  2.7320854E-02
   26.0000  3.0146318E-02  3.4066008E-02  2.6828457E-02
   27.0000  2.9123495E-02  3.3399925E-02  2.6464094E-02
   28.0000  2.8155101E-02  3.2365653E-02  2.6247585E-02
   29.0000  2.7351750E-02  3.1187645E-02  2.6166187E-02
   30.0000  2.6713612E-02  3.0013563E-02  2.6179035E-02
   31.0000  2.6199051E-02  2.8916098E-02  2.6234809E-02
   32.0000  2.5769401E-02  2.7915477E-02  2.6285476E-02
   33.0000  2.5403806E-02  2.7000220E-02  2.6291993E-02
   34.0000  2.5100930E-02  2.6145248E-02  2.6225721E-02
   35.0000  2.4873039E-02  2.5325810E-02  2.6068919E-02
   36.0000  2.4732907E-02  2.4526683E-02  2.5816341E-02
   37.0000  2.4678298E-02  2.3747771E-02  2.5478168E-02
   38.0000  2.4684614E-02  2.3007658E-02  2.5083508E-02
   39.0000  2.4714450E-02  2.2345844E-02  2.4683189E-02
   40.0000  2.4739084E-02  2.1816677E-02  2.4343745E-02
