    Energy   (100,001)      (010,001)      (001,110)   
  -25.0000  1.6938362E-04  1.7791467E-04  1.7288362E-04
  -24.0000  1.7537217E-04  1.8479599E-04  1.7898106E-04
  -23.0000  1.8175652E-04  1.9217867E-04  1.8548223E-04
  -22.0000  1.8857606E-04  2.0011778E-04  1.9242743E-04
  -21.0000  1.9587549E-04  2.0867667E-04  1.9986241E-04
  -20.0000  2.0370577E-04  2.1792847E-04  2.0783937E-04
  -19.0000  2.1212529E-04  2.2795807E-04  2.1641812E-04
  -18.0000  2.2120122E-04  2.3886459E-04  2.2566749E-04
  -17.0000  2.3101127E-04  2.5076440E-04  2.3566714E-04
  -16.0000  2.4164581E-04  2.6379501E-04  2.4650975E-04
  -15.0000  2.5321060E-04  2.7812005E-04  2.5830381E-04
  -14.0000  2.6583023E-04  2.9393571E-04  2.7117713E-04
  -13.0000  2.7965251E-04  3.1147914E-04  2.8528141E-04
  -12.0000  2.9485424E-04  3.3103958E-04  3.0079813E-04
  -11.0000  3.1164878E-04  3.5297337E-04  3.1794631E-04
  -10.0000  3.3029616E-04  3.7772429E-04  3.3699290E-04
  -9.00000  3.5111693E-04  4.0585186E-04  3.5826691E-04
  -8.00000  3.7451123E-04  4.3807124E-04  3.8217899E-04
  -7.00000  4.0098605E-04  4.7531080E-04  4.0924921E-04
  -6.00000  4.3119480E-04  5.1879722E-04  4.4014744E-04
  -5.00000  4.6599692E-04  5.7018484E-04  4.7575405E-04
  -4.00000  5.0655075E-04  6.3175884E-04  5.1725427E-04
  -3.00000  5.5446514E-04  7.0676725E-04  5.6629202E-04
  -2.00000  6.1206080E-04  7.9999008E-04  6.2523465E-04
  -1.00000  6.8285386E-04  9.1877546E-04  6.9766213E-04
   0.00000  7.7253524E-04  1.0750784E-03  7.8935732E-04
   1.00000  8.9121012E-04  1.2899168E-03  9.1057038E-04
   2.00000  1.0594557E-03  1.6046790E-03  1.0821477E-03
   3.00000  1.3292711E-03  2.1171163E-03  1.3567261E-03
   4.00000  1.8892147E-03  3.1457039E-03  1.9247384E-03
   5.00000  3.6294903E-03  6.1013819E-03  3.7070414E-03
   5.20000  4.1545500E-03  7.0442129E-03  4.2708269E-03
   5.40000  4.6333914E-03  7.9932294E-03  4.7981400E-03
   5.60000  5.0410298E-03  8.9147741E-03  5.2414514E-03
   5.80000  5.3834072E-03  9.8102707E-03  5.5836359E-03
   6.00000  5.6754728E-03  1.0694753E-02  5.8304890E-03
   6.20000  5.9312025E-03  1.1587592E-02  6.0038635E-03
   6.40000  6.1617939E-03  1.2509507E-02  6.1331732E-03
   6.60000  6.3762827E-03  1.3480316E-02  6.2467077E-03
   6.80000  6.5824837E-03  1.4517588E-02  6.3664752E-03
   7.00000  6.7877081E-03  1.5636972E-02  6.5072924E-03
   7.20000  6.9991633E-03  1.6853817E-02  6.6783851E-03
   7.40000  7.2241117E-03  1.8185145E-02  6.8856611E-03
   7.60000  7.4699100E-03  1.9651235E-02  7.1336551E-03
   7.80000  7.7440263E-03  2.1276508E-02  7.4268364E-03
   8.00000  8.0540894E-03  2.3089646E-02  7.7702944E-03
   8.20000  8.4079700E-03  2.5122920E-02  8.1699087E-03
   8.40000  8.8138636E-03  2.7410473E-02  8.6321257E-03
   8.60000  9.2803157E-03  2.9985069E-02  9.1634548E-03
   8.80000  9.8161295E-03  3.2872550E-02  9.7698034E-03
   9.00000  1.0430090E-02  3.6083266E-02  1.0455781E-02
   9.20000  1.1130455E-02  3.9600338E-02  1.1224116E-02
   9.40000  1.1924187E-02  4.3366127E-02  1.2075313E-02
   9.60000  1.2816014E-02  4.7270714E-02  1.3007612E-02
   9.80000  1.3807423E-02  5.1147904E-02  1.4017245E-02
   10.0000  1.4895463E-02  5.4782108E-02  1.5098665E-02
   10.2500  1.6376865E-02  5.8605305E-02  1.6539815E-02
   10.5000  1.7960118E-02  6.1189209E-02  1.8062711E-02
   10.7500  1.9593315E-02  6.2200638E-02  1.9647379E-02
   11.0000  2.1213015E-02  6.1562019E-02  2.1276726E-02
   11.2500  2.2754905E-02  5.9471771E-02  2.2937900E-02
   11.5000  2.4167409E-02  5.6320729E-02  2.4618990E-02
   11.7500  2.5422216E-02  5.2560542E-02  2.6303700E-02
   12.0000  2.6516688E-02  4.8591660E-02  2.7968040E-02
   12.2500  2.7468863E-02  4.4705714E-02  2.9581146E-02
   12.5000  2.8309132E-02  4.1081413E-02  3.1109724E-02
   12.7500  2.9072098E-02  3.7809687E-02  3.2524021E-02
   13.0000  2.9790083E-02  3.4921998E-02  3.3803250E-02
   13.2500  3.0489229E-02  3.2412614E-02  3.4938751E-02
   13.5000  3.1188374E-02  3.0254933E-02  3.5934057E-02
   13.7500  3.1899598E-02  2.8412729E-02  3.6802466E-02
   14.0000  3.2629292E-02  2.6847336E-02  3.7563443E-02
   14.2500  3.3379202E-02  2.5521808E-02  3.8239010E-02
   14.5000  3.4147330E-02  2.4403015E-02  3.8850753E-02
   14.7500  3.4928657E-02  2.3462421E-02  3.9417607E-02
   15.0000  3.5715734E-02  2.2676097E-02  3.9954340E-02
   15.2500  3.6499140E-02  2.2024321E-02  4.0470579E-02
   15.5000  3.7267853E-02  2.1490994E-02  4.0970300E-02
   15.7500  3.8009592E-02  2.1063014E-02  4.1451777E-02
   16.0000  3.8711207E-02  2.0729671E-02  4.1908015E-02
   16.2500  3.9359224E-02  2.0482107E-02  4.2327715E-02
   16.5000  3.9940596E-02  2.0312866E-02  4.2696725E-02
   16.7500  4.0443696E-02  2.0215519E-02  4.2999868E-02
   17.0000  4.0859418E-02  2.0184376E-02  4.3222944E-02
   17.2500  4.1182252E-02  2.0214276E-02  4.3354627E-02
   17.5000  4.1411085E-02  2.0300440E-02  4.3387957E-02
   17.7500  4.1549577E-02  2.0438378E-02  4.3321220E-02
   18.0000  4.1605980E-02  2.0623850E-02  4.3158079E-02
   18.2500  4.1592416E-02  2.0852842E-02  4.2907039E-02
   18.5000  4.1523749E-02  2.1121573E-02  4.2580367E-02
   18.7500  4.1416219E-02  2.1426509E-02  4.2192733E-02
   19.0000  4.1286065E-02  2.1764394E-02  4.1759770E-02
   19.2500  4.1148294E-02  2.2132293E-02  4.1296743E-02
   19.5000  4.1015701E-02  2.2527638E-02  4.0817456E-02
   19.7500  4.0898213E-02  2.2948200E-02  4.0333520E-02
   20.0000  4.0802583E-02  2.3391857E-02  3.9854169E-02
   21.0000  4.0675234E-02  2.5339324E-02  3.8108767E-02
   22.0000  4.0797372E-02  2.7407689E-02  3.6759725E-02
   23.0000  4.0706489E-02  2.9398091E-02  3.5711334E-02
   24.0000  3.9982176E-02  3.1115782E-02  3.4751936E-02
   25.0000  3.8510514E-02  3.2400445E-02  3.3712016E-02
   26.0000  3.6458501E-02  3.3163760E-02  3.2544219E-02
   27.0000  3.4121382E-02  3.3410156E-02  3.1322714E-02
   28.0000  3.1828651E-02  3.3228229E-02  3.0185082E-02
   29.0000  2.9864529E-02  3.2749338E-02  2.9251876E-02
   30.0000  2.8347376E-02  3.2087362E-02  2.8557801E-02
   31.0000  2.7261297E-02  3.1321650E-02  2.8070898E-02
   32.0000  2.6527870E-02  3.0500087E-02  2.7730750E-02
   33.0000  2.6047514E-02  2.9643846E-02  2.7470978E-02
   34.0000  2.5722445E-02  2.8755661E-02  2.7231778E-02
   35.0000  2.5466779E-02  2.7830507E-02  2.6964207E-02
   36.0000  2.5210323E-02  2.6866797E-02  2.6631229E-02
   37.0000  2.4902380E-02  2.5876649E-02  2.6211445E-02
   38.0000  2.4520998E-02  2.4895108E-02  2.5708872E-02
   39.0000  2.4089685E-02  2.3988452E-02  2.5168729E-02
   40.0000  2.3687309E-02  2.3250346E-02  2.4684697E-02
