    Energy   (100,001)      (010,001)      (001,110)   
  -25.0000  1.7009671E-04  1.8635441E-04  1.8183058E-04
  -24.0000  1.7612306E-04  1.9326408E-04  1.8816147E-04
  -23.0000  1.8255043E-04  2.0066304E-04  1.9491266E-04
  -22.0000  1.8941917E-04  2.0860398E-04  2.0212655E-04
  -21.0000  1.9677516E-04  2.1714730E-04  2.0985140E-04
  -20.0000  2.0467080E-04  2.2636265E-04  2.1814234E-04
  -19.0000  2.1316627E-04  2.3633065E-04  2.2706269E-04
  -18.0000  2.2233094E-04  2.4714521E-04  2.3668548E-04
  -17.0000  2.3224528E-04  2.5891633E-04  2.4709542E-04
  -16.0000  2.4300315E-04  2.7177363E-04  2.5839131E-04
  -15.0000  2.5471468E-04  2.8587096E-04  2.7068914E-04
  -14.0000  2.6751009E-04  3.0139222E-04  2.8412596E-04
  -13.0000  2.8154439E-04  3.1855904E-04  2.9886492E-04
  -12.0000  2.9700378E-04  3.3764089E-04  3.1510186E-04
  -11.0000  3.1411390E-04  3.5896858E-04  3.3307395E-04
  -10.0000  3.3315110E-04  3.8295268E-04  3.5307135E-04
  -9.00000  3.5445776E-04  4.1010880E-04  3.7545304E-04
  -8.00000  3.7846373E-04  4.4109335E-04  4.0066891E-04
  -7.00000  4.0571684E-04  4.7675476E-04  4.2929097E-04
  -6.00000  4.3692766E-04  5.1820889E-04  4.6205902E-04
  -5.00000  4.7303684E-04  5.6695332E-04  4.9994888E-04
  -4.00000  5.1532040E-04  6.2504601E-04  5.4427844E-04
  -3.00000  5.6556116E-04  6.9539617E-04  5.9687940E-04
  -2.00000  6.2634286E-04  7.8226140E-04  6.6038997E-04
  -1.00000  7.0158889E-04  8.9215077E-04  7.3878798E-04
   0.00000  7.9763525E-04  1.0356015E-03  8.3844727E-04
   1.00000  9.2562424E-04  1.2310736E-03  9.7048436E-04
   2.00000  1.1077640E-03  1.5149151E-03  1.1568743E-03
   3.00000  1.3980829E-03  1.9736032E-03  1.4506538E-03
   4.00000  1.9819556E-03  2.8948923E-03  2.0322097E-03
   5.00000  3.7101423E-03  5.5621322E-03  3.7254074E-03
   5.20000  4.2457307E-03  6.3821710E-03  4.2556742E-03
   5.40000  4.7562397E-03  7.1734385E-03  4.7755276E-03
   5.60000  5.2145886E-03  7.9082212E-03  5.2649523E-03
   5.80000  5.6222163E-03  8.5982793E-03  5.7249268E-03
   6.00000  5.9941215E-03  9.2667045E-03  6.1618514E-03
   6.20000  6.3499047E-03  9.9354880E-03  6.5817522E-03
   6.40000  6.7095859E-03  1.0624006E-02  6.9897814E-03
   6.60000  7.0916371E-03  1.1350657E-02  7.3904950E-03
   6.80000  7.5124116E-03  1.2134534E-02  7.7881993E-03
   7.00000  7.9864116E-03  1.2996248E-02  8.1875534E-03
   7.20000  8.5268434E-03  1.3957796E-02  8.5942706E-03
   7.40000  9.1460431E-03  1.5041831E-02  9.0156767E-03
   7.60000  9.8555016E-03  1.6270836E-02  9.4610026E-03
   7.80000  1.0665290E-02  1.7666425E-02  9.9413488E-03
   8.00000  1.1582708E-02  1.9248681E-02  1.0469275E-02
   8.20000  1.2610012E-02  2.1035464E-02  1.1058040E-02
   8.40000  1.3741226E-02  2.3041681E-02  1.1720511E-02
   8.60000  1.4958427E-02  2.5278435E-02  1.2467758E-02
   8.80000  1.6228546E-02  2.7751888E-02  1.3307432E-02
   9.00000  1.7502475E-02  3.0461457E-02  1.4242171E-02
   9.20000  1.8718561E-02  3.3396953E-02  1.5268486E-02
   9.40000  1.9811600E-02  3.6534618E-02  1.6376618E-02
   9.60000  2.0725820E-02  3.9832034E-02  1.7551612E-02
   9.80000  2.1427426E-02  4.3220967E-02  1.8775229E-02
   10.0000  2.1911704E-02  4.6598343E-02  2.0027813E-02
   10.2500  2.2248413E-02  5.0582962E-02  2.1604462E-02
   10.5000  2.2365207E-02  5.3982343E-02  2.3161222E-02
   10.7500  2.2354404E-02  5.6455627E-02  2.4671865E-02
   11.0000  2.2296283E-02  5.7758060E-02  2.6119669E-02
   11.2500  2.2253515E-02  5.7815366E-02  2.7495272E-02
   11.5000  2.2270555E-02  5.6740398E-02  2.8793565E-02
   11.7500  2.2373447E-02  5.4780286E-02  3.0010559E-02
   12.0000  2.2572749E-02  5.2228496E-02  3.1141380E-02
   12.2500  2.2870346E-02  4.9353474E-02  3.2180102E-02
   12.5000  2.3265232E-02  4.6364679E-02  3.3121202E-02
   12.7500  2.3752813E-02  4.3408440E-02  3.3961662E-02
   13.0000  2.4321769E-02  4.0578908E-02  3.4701829E-02
   13.2500  2.4955715E-02  3.7932547E-02  3.5345255E-02
   13.5000  2.5637578E-02  3.5500355E-02  3.5899243E-02
   13.7500  2.6352433E-02  3.3296250E-02  3.6375446E-02
   14.0000  2.7088470E-02  3.1322379E-02  3.6789235E-02
   14.2500  2.7836963E-02  2.9572680E-02  3.7157921E-02
   14.5000  2.8591808E-02  2.8035595E-02  3.7498524E-02
   14.7500  2.9348889E-02  2.6696287E-02  3.7825714E-02
   15.0000  3.0105389E-02  2.5538407E-02  3.8150322E-02
   15.2500  3.0859153E-02  2.4545404E-02  3.8478511E-02
   15.5000  3.1608171E-02  2.3701379E-02  3.8811595E-02
   15.7500  3.2350213E-02  2.2991583E-02  3.9146353E-02
   16.0000  3.3082646E-02  2.2402629E-02  3.9475708E-02
   16.2500  3.3802385E-02  2.1922537E-02  3.9789674E-02
   16.5000  3.4505945E-02  2.1540660E-02  4.0076467E-02
   16.7500  3.5189522E-02  2.1247570E-02  4.0323709E-02
   17.0000  3.5849076E-02  2.1034905E-02  4.0519611E-02
   17.2500  3.6480388E-02  2.0895236E-02  4.0654042E-02
   17.5000  3.7079119E-02  2.0821933E-02  4.0719361E-02
   17.7500  3.7640898E-02  2.0809057E-02  4.0710968E-02
   18.0000  3.8161476E-02  2.0851265E-02  4.0627515E-02
   18.2500  3.8636973E-02  2.0943731E-02  4.0470821E-02
   18.5000  3.9064198E-02  2.1082082E-02  4.0245523E-02
   18.7500  3.9441013E-02  2.1262351E-02  3.9958542E-02
   19.0000  3.9766661E-02  2.1480954E-02  3.9618421E-02
   19.2500  4.0042015E-02  2.1734691E-02  3.9234593E-02
   19.5000  4.0269661E-02  2.2020756E-02  3.8816656E-02
   19.7500  4.0453823E-02  2.2336706E-02  3.8373780E-02
   20.0000  4.0600146E-02  2.2680268E-02  3.7914485E-02
   21.0000  4.0947416E-02  2.4275929E-02  3.6071093E-02
   22.0000  4.1185559E-02  2.6095538E-02  3.4483567E-02
   23.0000  4.1380115E-02  2.7994560E-02  3.3264958E-02
   24.0000  4.1266222E-02  2.9843387E-02  3.2349713E-02
   25.0000  4.0523481E-02  3.1513587E-02  3.1600142E-02
   26.0000  3.9028514E-02  3.2871598E-02  3.0885090E-02
   27.0000  3.6915734E-02  3.3805238E-02  3.0141229E-02
   28.0000  3.4495090E-02  3.4267903E-02  2.9391187E-02
   29.0000  3.2111499E-02  3.4295662E-02  2.8706672E-02
   30.0000  3.0026826E-02  3.3993726E-02  2.8154376E-02
   31.0000  2.8365212E-02  3.3494335E-02  2.7762986E-02
   32.0000  2.7113641E-02  3.2889369E-02  2.7515431E-02
   33.0000  2.6194700E-02  3.2222126E-02  2.7373157E-02
   34.0000  2.5522186E-02  3.1503999E-02  2.7294650E-02
   35.0000  2.5019923E-02  3.0729144E-02  2.7241033E-02
   36.0000  2.4627140E-02  2.9889540E-02  2.7179442E-02
   37.0000  2.4299851E-02  2.8989637E-02  2.7087065E-02
   38.0000  2.4011551E-02  2.8060085E-02  2.6955860E-02
   39.0000  2.3754505E-02  2.7170918E-02  2.6798011E-02
   40.0000  2.3539939E-02  2.6431451E-02  2.6647857E-02
