    Energy   (100,001)      (010,001)      (001,110)   
  -25.0000  1.7162389E-04  1.8543434E-04  1.7511593E-04
  -24.0000  1.7789565E-04  1.9222644E-04  1.8159655E-04
  -23.0000  1.8459672E-04  1.9949504E-04  1.8852784E-04
  -22.0000  1.9177128E-04  2.0729104E-04  1.9595703E-04
  -21.0000  1.9946972E-04  2.1567280E-04  2.0393805E-04
  -20.0000  2.0774969E-04  2.2470750E-04  2.1253283E-04
  -19.0000  2.1667753E-04  2.3447290E-04  2.2181277E-04
  -18.0000  2.2632988E-04  2.4505943E-04  2.3186065E-04
  -17.0000  2.3679582E-04  2.5657292E-04  2.4277294E-04
  -16.0000  2.4817944E-04  2.6913797E-04  2.5466279E-04
  -15.0000  2.6060314E-04  2.8290226E-04  2.6766373E-04
  -14.0000  2.7421183E-04  2.9804209E-04  2.8193451E-04
  -13.0000  2.8917835E-04  3.1476966E-04  2.9766531E-04
  -12.0000  3.0571050E-04  3.3334254E-04  3.1508597E-04
  -11.0000  3.2406041E-04  3.5407643E-04  3.3447684E-04
  -10.0000  3.4453699E-04  3.7736236E-04  3.5618359E-04
  -9.00000  3.6752297E-04  4.0369036E-04  3.8063752E-04
  -8.00000  3.9349847E-04  4.3368275E-04  4.0838400E-04
  -7.00000  4.2307439E-04  4.6814156E-04  4.4012340E-04
  -6.00000  4.5704077E-04  5.0811812E-04  4.7677121E-04
  -5.00000  4.9643870E-04  5.5501772E-04  5.1954929E-04
  -4.00000  5.4267096E-04  6.1076203E-04  5.7012921E-04
  -3.00000  5.9767861E-04  6.7805120E-04  6.3086752E-04
  -2.00000  6.6423671E-04  7.6080644E-04  7.0521247E-04
  -1.00000  7.4647926E-04  8.6496259E-04  7.9845602E-04
   0.00000  8.5090534E-04  9.9999909E-04  9.1924981E-04
   1.00000  9.8851740E-04  1.1822195E-03  1.0830397E-03
   2.00000  1.1800855E-03  1.4429052E-03  1.3212400E-03
   3.00000  1.4723647E-03  1.8538220E-03  1.7125660E-03
   4.00000  2.0097197E-03  2.6427454E-03  2.5393012E-03
   5.00000  3.4076750E-03  4.7866908E-03  5.1171601E-03
   5.20000  3.8466440E-03  5.4385874E-03  5.8660150E-03
   5.40000  4.2956614E-03  6.0778978E-03  6.5000528E-03
   5.60000  4.7440764E-03  6.6925346E-03  6.9819076E-03
   5.80000  5.1975566E-03  7.3014194E-03  7.3562531E-03
   6.00000  5.6673017E-03  7.9296272E-03  7.6978657E-03
   6.20000  6.1647061E-03  8.5975265E-03  8.0716761E-03
   6.40000  6.7004244E-03  9.3202312E-03  8.5206507E-03
   6.60000  7.2846789E-03  1.0109809E-02  9.0693110E-03
   6.80000  7.9274180E-03  1.0977199E-02  9.7302617E-03
   7.00000  8.6380322E-03  1.1933414E-02  1.0508310E-02
   7.20000  9.4245676E-03  1.2990279E-02  1.1401406E-02
   7.40000  1.0292270E-02  1.4160969E-02  1.2399376E-02
   7.60000  1.1241445E-02  1.5460361E-02  1.3482173E-02
   7.80000  1.2265170E-02  1.6905103E-02  1.4619917E-02
   8.00000  1.3348164E-02  1.8513225E-02  1.5776926E-02
   8.20000  1.4468663E-02  2.0303463E-02  1.6920179E-02
   8.40000  1.5603612E-02  2.2294615E-02  1.8029047E-02
   8.60000  1.6734984E-02  2.4505010E-02  1.9100752E-02
   8.80000  1.7854384E-02  2.6951572E-02  2.0148201E-02
   9.00000  1.8964554E-02  2.9647376E-02  2.1191955E-02
   9.20000  2.0078099E-02  3.2596581E-02  2.2251189E-02
   9.40000  2.1214221E-02  3.5786441E-02  2.3337445E-02
   9.60000  2.2393973E-02  3.9177381E-02  2.4452255E-02
   9.80000  2.3634838E-02  4.2693305E-02  2.5587837E-02
   10.0000  2.4945069E-02  4.6215015E-02  2.6729421E-02
   10.2500  2.6668015E-02  5.0374641E-02  2.8135527E-02
   10.5000  2.8435003E-02  5.3907562E-02  2.9481355E-02
   10.7500  3.0164682E-02  5.6440164E-02  3.0733789E-02
   11.0000  3.1765609E-02  5.7706314E-02  3.1874761E-02
   11.2500  3.3149584E-02  5.7622845E-02  3.2904178E-02
   11.5000  3.4242410E-02  5.6303873E-02  3.3832172E-02
   11.7500  3.4996227E-02  5.4014769E-02  3.4665768E-02
   12.0000  3.5402191E-02  5.1090200E-02  3.5403059E-02
   12.2500  3.5495096E-02  4.7852694E-02  3.6035701E-02
   12.5000  3.5345418E-02  4.4560905E-02  3.6554264E-02
   12.7500  3.5042421E-02  4.1393204E-02  3.6953459E-02
   13.0000  3.4675448E-02  3.8455193E-02  3.7235767E-02
   13.2500  3.4320054E-02  3.5797159E-02  3.7412654E-02
   13.5000  3.4032114E-02  3.3432241E-02  3.7503623E-02
   13.7500  3.3848251E-02  3.1351193E-02  3.7534264E-02
   14.0000  3.3789045E-02  2.9532936E-02  3.7533820E-02
   14.2500  3.3862320E-02  2.7951633E-02  3.7532175E-02
   14.5000  3.4065791E-02  2.6581073E-02  3.7556683E-02
   14.7500  3.4389421E-02  2.5396857E-02  3.7629465E-02
   15.0000  3.4817414E-02  2.4377192E-02  3.7765507E-02
   15.2500  3.5329633E-02  2.3503043E-02  3.7971573E-02
   15.5000  3.5902568E-02  2.2758008E-02  3.8245844E-02
   15.7500  3.6510148E-02  2.2128067E-02  3.8578179E-02
   16.0000  3.7124647E-02  2.1601271E-02  3.8950961E-02
   16.2500  3.7717828E-02  2.1167426E-02  3.9340533E-02
   16.5000  3.8262378E-02  2.0817803E-02  3.9719230E-02
   16.7500  3.8733587E-02  2.0544896E-02  4.0057923E-02
   17.0000  3.9111109E-02  2.0342214E-02  4.0328881E-02
   17.2500  3.9380546E-02  2.0204119E-02  4.0508611E-02
   17.5000  3.9534585E-02  2.0125687E-02  4.0580243E-02
   17.7500  3.9573456E-02  2.0102590E-02  4.0535054E-02
   18.0000  3.9504582E-02  2.0131006E-02  4.0372878E-02
   18.2500  3.9341486E-02  2.0207536E-02  4.0101397E-02
   18.5000  3.9102127E-02  2.0329148E-02  3.9734515E-02
   18.7500  3.8806945E-02  2.0493134E-02  3.9290224E-02
   19.0000  3.8476914E-02  2.0697095E-02  3.8788343E-02
   19.2500  3.8131819E-02  2.0938945E-02  3.8248476E-02
   19.5000  3.7788903E-02  2.1216928E-02  3.7688393E-02
   19.7500  3.7462004E-02  2.1529582E-02  3.7123010E-02
   20.0000  3.7161269E-02  2.1875557E-02  3.6564132E-02
   21.0000  3.6319146E-02  2.3555465E-02  3.4553346E-02
   22.0000  3.6030437E-02  2.5611037E-02  3.3067014E-02
   23.0000  3.5954875E-02  2.7900762E-02  3.2033353E-02
   24.0000  3.5645914E-02  3.0227682E-02  3.1242005E-02
   25.0000  3.4792816E-02  3.2320246E-02  3.0495845E-02
   26.0000  3.3368853E-02  3.3903839E-02  2.9690718E-02
   27.0000  3.1601534E-02  3.4866642E-02  2.8825938E-02
   28.0000  2.9807406E-02  3.5241954E-02  2.7972026E-02
   29.0000  2.8219936E-02  3.5139538E-02  2.7214748E-02
   30.0000  2.6936803E-02  3.4697254E-02  2.6609128E-02
   31.0000  2.5959274E-02  3.4043999E-02  2.6164064E-02
   32.0000  2.5240169E-02  3.3278156E-02  2.5851567E-02
   33.0000  2.4715103E-02  3.2461466E-02  2.5624840E-02
   34.0000  2.4321013E-02  3.1624198E-02  2.5432653E-02
   35.0000  2.4005314E-02  3.0775409E-02  2.5227213E-02
   36.0000  2.3729442E-02  2.9914642E-02  2.4969650E-02
   37.0000  2.3469845E-02  2.9043936E-02  2.4637056E-02
   38.0000  2.3218015E-02  2.8181073E-02  2.4232387E-02
   39.0000  2.2980894E-02  2.7374935E-02  2.3795756E-02
   40.0000  2.2780006E-02  2.6710572E-02  2.3405412E-02
