    Energy   (100,001)      (010,001)      (001,110)   
  -25.0000  1.7045498E-04  1.8577440E-04  1.6894724E-04
  -24.0000  1.7687524E-04  1.9276817E-04  1.7552172E-04
  -23.0000  1.8374596E-04  2.0026596E-04  1.8257044E-04
  -22.0000  1.9111445E-04  2.0832303E-04  1.9014449E-04
  -21.0000  1.9903475E-04  2.1700290E-04  1.9830241E-04
  -20.0000  2.0756885E-04  2.2637895E-04  2.0711156E-04
  -19.0000  2.1678821E-04  2.3653641E-04  2.1664986E-04
  -18.0000  2.2677561E-04  2.4757477E-04  2.2700791E-04
  -17.0000  2.3762743E-04  2.5961092E-04  2.3829160E-04
  -16.0000  2.4945661E-04  2.7278306E-04  2.5062550E-04
  -15.0000  2.6239625E-04  2.8725570E-04  2.6415709E-04
  -14.0000  2.7660435E-04  3.0322622E-04  2.7906223E-04
  -13.0000  2.9226982E-04  3.2093335E-04  2.9555227E-04
  -12.0000  3.0962044E-04  3.4066849E-04  3.1388335E-04
  -11.0000  3.2893328E-04  3.6279087E-04  3.3436887E-04
  -10.0000  3.5054882E-04  3.8774825E-04  3.5739632E-04
  -9.00000  3.7489010E-04  4.1610560E-04  3.8345033E-04
  -8.00000  4.0248940E-04  4.4858562E-04  4.1314505E-04
  -7.00000  4.3402607E-04  4.8612711E-04  4.4727039E-04
  -6.00000  4.7038138E-04  5.2997127E-04  4.8685965E-04
  -5.00000  5.1272046E-04  5.8179243E-04  5.3329131E-04
  -4.00000  5.6261846E-04  6.4390301E-04  5.8844726E-04
  -3.00000  6.2226278E-04  7.1958662E-04  6.5496848E-04
  -2.00000  6.9479271E-04  8.1366495E-04  7.3668822E-04
  -1.00000  7.8490595E-04  9.3351836E-04  8.3941125E-04
   0.00000  9.0002971E-04  1.0910612E-03  9.7242791E-04
   1.00000  1.0528393E-03  1.3069552E-03  1.1517809E-03
   2.00000  1.2675753E-03  1.6209297E-03  1.4084483E-03
   3.00000  1.6000880E-03  2.1230569E-03  1.8140826E-03
   4.00000  2.2302192E-03  3.0882262E-03  2.5975080E-03
   5.00000  3.9427817E-03  5.6612761E-03  4.7562793E-03
   5.20000  4.4631630E-03  6.4759510E-03  5.4337707E-03
   5.40000  4.9687625E-03  7.3195516E-03  6.1131120E-03
   5.60000  5.4439073E-03  8.1807259E-03  6.7729953E-03
   5.80000  5.8978204E-03  9.0783133E-03  7.4189118E-03
   6.00000  6.3478053E-03  1.0041754E-02  8.0658822E-03
   6.20000  6.8115186E-03  1.1101967E-02  8.7304468E-03
   6.40000  7.3055351E-03  1.2289529E-02  9.4289662E-03
   6.60000  7.8456229E-03  1.3634662E-02  1.0177794E-02
   6.80000  8.4470032E-03  1.5166663E-02  1.0993976E-02
   7.00000  9.1241952E-03  1.6911678E-02  1.1896004E-02
   7.20000  9.8903614E-03  1.8888098E-02  1.2903935E-02
   7.40000  1.0756153E-02  2.1099451E-02  1.4038217E-02
   7.60000  1.1728233E-02  2.3526292E-02  1.5317493E-02
   7.80000  1.2808047E-02  2.6121247E-02  1.6756661E-02
   8.00000  1.3991853E-02  2.8813401E-02  1.8366617E-02
   8.20000  1.5273058E-02  3.1525918E-02  2.0155578E-02
   8.40000  1.6646816E-02  3.4202005E-02  2.2129602E-02
   8.60000  1.8114680E-02  3.6824736E-02  2.4289349E-02
   8.80000  1.9686146E-02  3.9417553E-02  2.6622574E-02
   9.00000  2.1375577E-02  4.2025823E-02  2.9095472E-02
   9.20000  2.3194983E-02  4.4688191E-02  3.1647670E-02
   9.40000  2.5143328E-02  4.7402715E-02  3.4193921E-02
   9.60000  2.7196479E-02  5.0100063E-02  3.6632204E-02
   9.80000  2.9303912E-02  5.2641935E-02  3.8856718E-02
   10.0000  3.1392183E-02  5.4843545E-02  4.0773432E-02
   10.2500  3.3839861E-02  5.6820677E-02  4.2636060E-02
   10.5000  3.5942196E-02  5.7655511E-02  4.3859314E-02
   10.7500  3.7561628E-02  5.7220841E-02  4.4476652E-02
   11.0000  3.8638437E-02  5.5606437E-02  4.4584446E-02
   11.2500  3.9204051E-02  5.3071188E-02  4.4302973E-02
   11.5000  3.9362012E-02  4.9947120E-02  4.3743965E-02
   11.7500  3.9248284E-02  4.6549961E-02  4.2995296E-02
   12.0000  3.8994817E-02  4.3129186E-02  4.2122618E-02
   12.2500  3.8708056E-02  3.9856388E-02  4.1176553E-02
   12.5000  3.8460584E-02  3.6834439E-02  4.0198505E-02
   12.7500  3.8292393E-02  3.4113730E-02  3.9224193E-02
   13.0000  3.8218398E-02  3.1708639E-02  3.8285520E-02
   13.2500  3.8237488E-02  2.9611162E-02  3.7411124E-02
   13.5000  3.8339837E-02  2.7800810E-02  3.6625656E-02
   13.7500  3.8511657E-02  2.6251130E-02  3.5948441E-02
   14.0000  3.8737843E-02  2.4933772E-02  3.5392477E-02
   14.2500  3.9003198E-02  2.3820941E-02  3.4964181E-02
   14.5000  3.9292848E-02  2.2886821E-02  3.4663779E-02
   14.7500  3.9592225E-02  2.2108303E-02  3.4486017E-02
   15.0000  3.9886895E-02  2.1465262E-02  3.4420933E-02
   15.2500  4.0162390E-02  2.0940513E-02  3.4454572E-02
   15.5000  4.0404186E-02  2.0519589E-02  3.4569649E-02
   15.7500  4.0597897E-02  2.0190401E-02  3.4746261E-02
   16.0000  4.0729771E-02  1.9942871E-02  3.4962740E-02
   16.2500  4.0787448E-02  1.9768552E-02  3.5196717E-02
   16.5000  4.0760911E-02  1.9660291E-02  3.5426398E-02
   16.7500  4.0643470E-02  1.9611931E-02  3.5631940E-02
   17.0000  4.0432589E-02  1.9618067E-02  3.5796759E-02
   17.2500  4.0130372E-02  1.9673855E-02  3.5908560E-02
   17.5000  3.9743589E-02  1.9774886E-02  3.5959897E-02
   17.7500  3.9283200E-02  1.9917101E-02  3.5948199E-02
   18.0000  3.8763454E-02  2.0096756E-02  3.5875260E-02
   18.2500  3.8200698E-02  2.0310417E-02  3.5746339E-02
   18.5000  3.7612094E-02  2.0554967E-02  3.5569052E-02
   18.7500  3.7014400E-02  2.0827636E-02  3.5352253E-02
   19.0000  3.6422953E-02  2.1126032E-02  3.5105032E-02
   19.2500  3.5850906E-02  2.1448184E-02  3.4835920E-02
   19.5000  3.5308732E-02  2.1792582E-02  3.4552335E-02
   19.7500  3.4804022E-02  2.2158157E-02  3.4260276E-02
   20.0000  3.4341686E-02  2.2544096E-02  3.3964350E-02
   21.0000  3.2954679E-02  2.4268095E-02  3.2803153E-02
   22.0000  3.2258069E-02  2.6217080E-02  3.1739957E-02
   23.0000  3.1982429E-02  2.8289800E-02  3.0750854E-02
   24.0000  3.1735037E-02  3.0296125E-02  2.9780041E-02
   25.0000  3.1161382E-02  3.1974925E-02  2.8802199E-02
   26.0000  3.0128215E-02  3.3146190E-02  2.7832883E-02
   27.0000  2.8793331E-02  3.3754640E-02  2.6923951E-02
   28.0000  2.7440903E-02  3.3855858E-02  2.6137782E-02
   29.0000  2.6274040E-02  3.3572246E-02  2.5514976E-02
   30.0000  2.5355471E-02  3.3032758E-02  2.5055122E-02
   31.0000  2.4657674E-02  3.2335338E-02  2.4717857E-02
   32.0000  2.4121336E-02  3.1542009E-02  2.4439771E-02
   33.0000  2.3686657E-02  3.0692174E-02  2.4154400E-02
   34.0000  2.3305561E-02  2.9816859E-02  2.3806252E-02
   35.0000  2.2946586E-02  2.8945859E-02  2.3359652E-02
   36.0000  2.2597275E-02  2.8107758E-02  2.2807447E-02
   37.0000  2.2262789E-02  2.7326726E-02  2.2179349E-02
   38.0000  2.1958917E-02  2.6621890E-02  2.1541250E-02
   39.0000  2.1702484E-02  2.6014602E-02  2.0975380E-02
   40.0000  2.1505000E-02  2.5537536E-02  2.0543110E-02
