    Energy   (100,001)      (010,001)      (001,110)   
  -25.0000  1.7040916E-04  1.9276058E-04  1.8390942E-04
  -24.0000  1.7642174E-04  1.9968756E-04  1.9036324E-04
  -23.0000  1.8283167E-04  2.0709482E-04  1.9724879E-04
  -22.0000  1.8967855E-04  2.1503329E-04  2.0460996E-04
  -21.0000  1.9700735E-04  2.2356129E-04  2.1249673E-04
  -20.0000  2.0486934E-04  2.3274595E-04  2.2096628E-04
  -19.0000  2.1332331E-04  2.4266484E-04  2.3008432E-04
  -18.0000  2.2243689E-04  2.5340819E-04  2.3992677E-04
  -17.0000  2.3228837E-04  2.6508143E-04  2.5058174E-04
  -16.0000  2.4296886E-04  2.7780865E-04  2.6215219E-04
  -15.0000  2.5458501E-04  2.9173674E-04  2.7475913E-04
  -14.0000  2.6726254E-04  3.0704098E-04  2.8854578E-04
  -13.0000  2.8115068E-04  3.2393208E-04  3.0368294E-04
  -12.0000  2.9642806E-04  3.4266563E-04  3.2037599E-04
  -11.0000  3.1331032E-04  3.6355459E-04  3.3887418E-04
  -10.0000  3.3206045E-04  3.8698624E-04  3.5948317E-04
  -9.00000  3.5300271E-04  4.1344554E-04  3.8258206E-04
  -8.00000  3.7654205E-04  4.4354781E-04  4.0864728E-04
  -7.00000  4.0319147E-04  4.7808551E-04  4.3828661E-04
  -6.00000  4.3361186E-04  5.1809688E-04  4.7228884E-04
  -5.00000  4.6867149E-04  5.6496928E-04  5.1169868E-04
  -4.00000  5.0953811E-04  6.2060018E-04  5.5793363E-04
  -3.00000  5.5782761E-04  6.8765782E-04  6.1297407E-04
  -2.00000  6.1585675E-04  7.7002431E-04  6.7968921E-04
  -1.00000  6.8710186E-04  8.7359610E-04  7.6243348E-04
   0.00000  7.7710512E-04  1.0078500E-03  8.6823294E-04
   1.00000  8.9548265E-04  1.1892580E-03  1.0094249E-03
   2.00000  1.0611528E-03  1.4499846E-03  1.2105188E-03
   3.00000  1.3196604E-03  1.8659311E-03  1.5306201E-03
   4.00000  1.8266208E-03  2.6879771E-03  2.1679453E-03
   5.00000  3.2835099E-03  5.0311938E-03  4.0341415E-03
   5.20000  3.7179838E-03  5.7492225E-03  4.6510284E-03
   5.40000  4.1248073E-03  6.4424670E-03  5.2870211E-03
   5.60000  4.4933270E-03  7.0869284E-03  5.9150382E-03
   5.80000  4.8376691E-03  7.6931186E-03  6.5234140E-03
   6.00000  5.1765652E-03  8.2817636E-03  7.1042333E-03
   6.20000  5.5241444E-03  8.8729449E-03  7.6499098E-03
   6.40000  5.8883958E-03  9.4843210E-03  8.1552684E-03
   6.60000  6.2722083E-03  1.0131795E-02  8.6204421E-03
   6.80000  6.6755632E-03  1.0830401E-02  9.0524121E-03
   7.00000  7.0984993E-03  1.1594959E-02  9.4643234E-03
   7.20000  7.5436988E-03  1.2440360E-02  9.8726522E-03
   7.40000  8.0173273E-03  1.3381403E-02  1.0293505E-02
   7.60000  8.5278783E-03  1.4432334E-02  1.0739815E-02
   7.80000  9.0839573E-03  1.5606462E-02  1.1220435E-02
   8.00000  9.6922242E-03  1.6916282E-02  1.1741016E-02
   8.20000  1.0356184E-02  1.8374326E-02  1.2305870E-02
   8.40000  1.1075844E-02  1.9994556E-02  1.2919777E-02
   8.60000  1.1847885E-02  2.1793461E-02  1.3588925E-02
   8.80000  1.2665992E-02  2.3789796E-02  1.4320744E-02
   9.00000  1.3521305E-02  2.6002454E-02  1.5122890E-02
   9.20000  1.4403197E-02  2.8446713E-02  1.6001938E-02
   9.40000  1.5300493E-02  3.1129472E-02  1.6962258E-02
   9.60000  1.6202911E-02  3.4043929E-02  1.8005307E-02
   9.80000  1.7102257E-02  3.7164031E-02  1.9129285E-02
   10.0000  1.7992838E-02  4.0438888E-02  2.0328916E-02
   10.2500  1.9088187E-02  4.4624552E-02  2.1920417E-02
   10.5000  2.0158616E-02  4.8700846E-02  2.3587378E-02
   10.7500  2.1197793E-02  5.2388849E-02  2.5290287E-02
   11.0000  2.2196656E-02  5.5393864E-02  2.6981449E-02
   11.2500  2.3144215E-02  5.7461036E-02  2.8611929E-02
   11.5000  2.4030584E-02  5.8427254E-02  3.0138927E-02
   11.7500  2.4849997E-02  5.8250923E-02  3.1528601E-02
   12.0000  2.5602352E-02  5.7013494E-02  3.2754850E-02
   12.2500  2.6293334E-02  5.4894310E-02  3.3800359E-02
   12.5000  2.6933641E-02  5.2129354E-02  3.4659874E-02
   12.7500  2.7537769E-02  4.8969060E-02  3.5341612E-02
   13.0000  2.8121883E-02  4.5644379E-02  3.5865759E-02
   13.2500  2.8700661E-02  4.2344441E-02  3.6260678E-02
   13.5000  2.9284753E-02  3.9206512E-02  3.6558357E-02
   13.7500  2.9880536E-02  3.6317010E-02  3.6790617E-02
   14.0000  3.0491249E-02  3.3719792E-02  3.6986507E-02
   14.2500  3.1118014E-02  3.1427255E-02  3.7170703E-02
   14.5000  3.1760447E-02  2.9431065E-02  3.7362680E-02
   14.7500  3.2417000E-02  2.7710910E-02  3.7576456E-02
   15.0000  3.3085164E-02  2.6240834E-02  3.7820690E-02
   15.2500  3.3761568E-02  2.4993367E-02  3.8098999E-02
   15.5000  3.4441999E-02  2.3941962E-02  3.8410368E-02
   15.7500  3.5121367E-02  2.3062244E-02  3.8749608E-02
   16.0000  3.5793655E-02  2.2332529E-02  3.9107872E-02
   16.2500  3.6451874E-02  2.1733894E-02  3.9473256E-02
   16.5000  3.7088086E-02  2.1250034E-02  3.9831547E-02
   16.7500  3.7693536E-02  2.0866999E-02  4.0167132E-02
   17.0000  3.8258943E-02  2.0572905E-02  4.0464078E-02
   17.2500  3.8774964E-02  2.0357647E-02  4.0707315E-02
   17.5000  3.9232827E-02  2.0212648E-02  4.0883838E-02
   17.7500  3.9625067E-02  2.0130633E-02  4.0983765E-02
   18.0000  3.9946258E-02  2.0105436E-02  4.1001128E-02
   18.2500  4.0193645E-02  2.0131839E-02  4.0934270E-02
   18.5000  4.0367526E-02  2.0205436E-02  4.0785787E-02
   18.7500  4.0471329E-02  2.0322517E-02  4.0562034E-02
   19.0000  4.0511348E-02  2.0479983E-02  4.0272277E-02
   19.2500  4.0496148E-02  2.0675289E-02  3.9927616E-02
   19.5000  4.0435757E-02  2.0906399E-02  3.9539826E-02
   19.7500  4.0340801E-02  2.1171708E-02  3.9120367E-02
   20.0000  4.0221836E-02  2.1469844E-02  3.8679831E-02
   21.0000  3.9698953E-02  2.2957299E-02  3.6891320E-02
   22.0000  3.9399009E-02  2.4834271E-02  3.5339749E-02
   23.0000  3.9381792E-02  2.6982681E-02  3.4106038E-02
   24.0000  3.9441879E-02  2.9232031E-02  3.3098670E-02
   25.0000  3.9271430E-02  3.1359680E-02  3.2196453E-02
   26.0000  3.8588803E-02  3.3139388E-02  3.1309498E-02
   27.0000  3.7259202E-02  3.4410428E-02  3.0400880E-02
   28.0000  3.5371227E-02  3.5124022E-02  2.9488790E-02
   29.0000  3.3200537E-02  3.5338057E-02  2.8631916E-02
   30.0000  3.1072106E-02  3.5171549E-02  2.7901327E-02
   31.0000  2.9225639E-02  3.4755036E-02  2.7350245E-02
   32.0000  2.7761670E-02  3.4208751E-02  2.6996210E-02
   33.0000  2.6664404E-02  3.3627037E-02  2.6819209E-02
   34.0000  2.5861464E-02  3.3039484E-02  2.6771665E-02
   35.0000  2.5270776E-02  3.2429819E-02  2.6796703E-02
   36.0000  2.4820789E-02  3.1770144E-02  2.6840177E-02
   37.0000  2.4456793E-02  3.1043072E-02  2.6856935E-02
   38.0000  2.4143625E-02  3.0260776E-02  2.6818151E-02
   39.0000  2.3868370E-02  2.9482906E-02  2.6722743E-02
   40.0000  2.3640370E-02  2.8819755E-02  2.6606561E-02
