    Energy   (100,001)      (010,001)      (001,110)   
  -25.0000  1.6970192E-04  1.7476429E-04  1.7527007E-04
  -24.0000  1.7594554E-04  1.8179000E-04  1.8162295E-04
  -23.0000  1.8261924E-04  1.8934301E-04  1.8840917E-04
  -22.0000  1.8976766E-04  1.9748272E-04  1.9567328E-04
  -21.0000  1.9744174E-04  2.0627760E-04  2.0346603E-04
  -20.0000  2.0569991E-04  2.1580700E-04  2.1184553E-04
  -19.0000  2.1460946E-04  2.2616331E-04  2.2087858E-04
  -18.0000  2.2424831E-04  2.3745478E-04  2.3064242E-04
  -17.0000  2.3470719E-04  2.4980895E-04  2.4122673E-04
  -16.0000  2.4609239E-04  2.6337713E-04  2.5273634E-04
  -15.0000  2.5852921E-04  2.7834012E-04  2.6529448E-04
  -14.0000  2.7216643E-04  2.9491561E-04  2.7904704E-04
  -13.0000  2.8718212E-04  3.1336801E-04  2.9416800E-04
  -12.0000  3.0379116E-04  3.3402139E-04  3.1086653E-04
  -11.0000  3.2225540E-04  3.5727712E-04  3.2939636E-04
  -10.0000  3.4289725E-04  3.8363793E-04  3.5006843E-04
  -9.00000  3.6611843E-04  4.1374152E-04  3.7326800E-04
  -8.00000  3.9242621E-04  4.4840830E-04  3.9947850E-04
  -7.00000  4.2247091E-04  4.8871077E-04  4.2931532E-04
  -6.00000  4.5710104E-04  5.3607664E-04  4.6357490E-04
  -5.00000  4.9744638E-04  5.9244679E-04  5.0330805E-04
  -4.00000  5.4504801E-04  6.6052484E-04  5.4993321E-04
  -3.00000  6.0206963E-04  7.4418749E-04  6.0541848E-04
  -2.00000  6.7165912E-04  8.4919129E-04  6.7258895E-04
  -1.00000  7.5860577E-04  9.8446296E-04  7.5567840E-04
   0.00000  8.7063469E-04  1.1646379E-03  8.6140133E-04
   1.00000  1.0212415E-03  1.4155787E-03  1.0012707E-03
   2.00000  1.2369043E-03  1.7881978E-03  1.1974174E-03
   3.00000  1.5800780E-03  2.4014284E-03  1.5008728E-03
   4.00000  2.2541393E-03  3.6317937E-03  2.0733650E-03
   5.00000  4.1516607E-03  7.1018993E-03  3.6275261E-03
   5.20000  4.7479135E-03  8.2221954E-03  4.1360360E-03
   5.40000  5.3472916E-03  9.3812343E-03  4.6687855E-03
   5.60000  5.9375434E-03  1.0554441E-02  5.2081162E-03
   5.80000  6.5307527E-03  1.1755098E-02  5.7484618E-03
   6.00000  7.1445390E-03  1.3007932E-02  6.2887854E-03
   6.20000  7.7936570E-03  1.4337318E-02  6.8308170E-03
   6.40000  8.4891029E-03  1.5764920E-02  7.3798666E-03
   6.60000  9.2396138E-03  1.7309216E-02  7.9442699E-03
   6.80000  1.0053109E-02  1.8985727E-02  8.5329415E-03
   7.00000  1.0937031E-02  2.0809466E-02  9.1526961E-03
   7.20000  1.1897259E-02  2.2800058E-02  9.8070937E-03
   7.40000  1.2935662E-02  2.4987463E-02  1.0497228E-02
   7.60000  1.4046652E-02  2.7414844E-02  1.1223500E-02
   7.80000  1.5213595E-02  3.0136258E-02  1.1987026E-02
   8.00000  1.6406808E-02  3.3209109E-02  1.2789981E-02
   8.20000  1.7585510E-02  3.6682385E-02  1.3635043E-02
   8.40000  1.8705656E-02  4.0580920E-02  1.4524499E-02
   8.60000  1.9732709E-02  4.4884594E-02  1.5459476E-02
   8.80000  2.0653975E-02  4.9501738E-02  1.6439276E-02
   9.00000  2.1482970E-02  5.4240332E-02  1.7460565E-02
   9.20000  2.2252178E-02  5.8789821E-02  1.8516324E-02
   9.40000  2.2998107E-02  6.2736391E-02  1.9595102E-02
   9.60000  2.3747014E-02  6.5633195E-02  2.0681622E-02
   9.80000  2.4507665E-02  6.7120068E-02  2.1759419E-02
   10.0000  2.5272041E-02  6.7042763E-02  2.2814670E-02
   10.2500  2.6202590E-02  6.4919595E-02  2.4089836E-02
   10.5000  2.7061600E-02  6.1127535E-02  2.5313768E-02
   10.7500  2.7809294E-02  5.6412085E-02  2.6494794E-02
   11.0000  2.8425162E-02  5.1399139E-02  2.7647856E-02
   11.2500  2.8911088E-02  4.6512332E-02  2.8788382E-02
   11.5000  2.9285192E-02  4.1999763E-02  2.9927145E-02
   11.7500  2.9572476E-02  3.7985625E-02  3.1067376E-02
   12.0000  2.9798841E-02  3.4511446E-02  3.2203185E-02
   12.2500  2.9987854E-02  3.1564542E-02  3.3320191E-02
   12.5000  3.0159336E-02  2.9099501E-02  3.4399258E-02
   12.7500  3.0329582E-02  2.7055761E-02  3.5421690E-02
   13.0000  3.0512115E-02  2.5370428E-02  3.6373737E-02
   13.2500  3.0717829E-02  2.3985659E-02  3.7249458E-02
   13.5000  3.0954587E-02  2.2851787E-02  3.8051272E-02
   13.7500  3.1227248E-02  2.1927704E-02  3.8788064E-02
   14.0000  3.1537892E-02  2.1179967E-02  3.9471944E-02
   14.2500  3.1885685E-02  2.0581620E-02  4.0114930E-02
   14.5000  3.2266644E-02  2.0111085E-02  4.0726245E-02
   14.7500  3.2673631E-02  1.9751203E-02  4.1310403E-02
   15.0000  3.3096730E-02  1.9488414E-02  4.1866133E-02
   15.2500  3.3523959E-02  1.9312045E-02  4.2386108E-02
   15.5000  3.3942224E-02  1.9213677E-02  4.2857521E-02
   15.7500  3.4338407E-02  1.9186597E-02  4.3263514E-02
   16.0000  3.4700467E-02  1.9225324E-02  4.3585368E-02
   16.2500  3.5018467E-02  1.9325213E-02  4.3805199E-02
   16.5000  3.5285405E-02  1.9482137E-02  4.3908699E-02
   16.7500  3.5497821E-02  1.9692262E-02  4.3887423E-02
   17.0000  3.5656102E-02  1.9951889E-02  4.3740140E-02
   17.2500  3.5764474E-02  2.0257367E-02  4.3473023E-02
   17.5000  3.5830639E-02  2.0605060E-02  4.3098725E-02
   17.7500  3.5865071E-02  2.0991337E-02  4.2634631E-02
   18.0000  3.5880030E-02  2.1412581E-02  4.2100731E-02
   18.2500  3.5888434E-02  2.1865203E-02  4.1517534E-02
   18.5000  3.5902729E-02  2.2345657E-02  4.0904347E-02
   18.7500  3.5933928E-02  2.2850475E-02  4.0278070E-02
   19.0000  3.5990922E-02  2.3376308E-02  3.9652523E-02
   19.2500  3.6080100E-02  2.3920004E-02  3.9038196E-02
   19.5000  3.6205243E-02  2.4478690E-02  3.8442321E-02
   19.7500  3.6367587E-02  2.5049777E-02  3.7869188E-02
   20.0000  3.6565890E-02  2.5630697E-02  3.7320746E-02
   21.0000  3.7616334E-02  2.7978110E-02  3.5375744E-02
   22.0000  3.8706453E-02  3.0159590E-02  3.3769936E-02
   23.0000  3.9293836E-02  3.1932687E-02  3.2366654E-02
   24.0000  3.8961054E-02  3.3109623E-02  3.1056982E-02
   25.0000  3.7598222E-02  3.3615738E-02  2.9807944E-02
   26.0000  3.5454116E-02  3.3516162E-02  2.8666754E-02
   27.0000  3.2999202E-02  3.2966169E-02  2.7726337E-02
   28.0000  3.0686047E-02  3.2132452E-02  2.7058490E-02
   29.0000  2.8780942E-02  3.1147713E-02  2.6662518E-02
   30.0000  2.7350401E-02  3.0106971E-02  2.6467634E-02
   31.0000  2.6335225E-02  2.9073074E-02  2.6373235E-02
   32.0000  2.5626102E-02  2.8070876E-02  2.6291034E-02
   33.0000  2.5113310E-02  2.7099580E-02  2.6161905E-02
   34.0000  2.4705635E-02  2.6148281E-02  2.5956138E-02
   35.0000  2.4334768E-02  2.5205712E-02  2.5669876E-02
   36.0000  2.3957945E-02  2.4267580E-02  2.5320385E-02
   37.0000  2.3559554E-02  2.3343135E-02  2.4938836E-02
   38.0000  2.3149220E-02  2.2461348E-02  2.4561180E-02
   39.0000  2.2757585E-02  2.1674334E-02  2.4221619E-02
   40.0000  2.2429714E-02  2.1048049E-02  2.3951120E-02
