    Energy   (100,001)      (010,001)      (001,110)   
  -25.0000  1.6931615E-04  1.9263656E-04  1.7587671E-04
  -24.0000  1.7565970E-04  1.9960426E-04  1.8242344E-04
  -23.0000  1.8244523E-04  2.0706115E-04  1.8942701E-04
  -22.0000  1.8971891E-04  2.1505994E-04  1.9693537E-04
  -21.0000  1.9753346E-04  2.2366112E-04  2.0500327E-04
  -20.0000  2.0594935E-04  2.3293444E-04  2.1369356E-04
  -19.0000  2.1503624E-04  2.4296078E-04  2.2307872E-04
  -18.0000  2.2487486E-04  2.5383442E-04  2.3324272E-04
  -17.0000  2.3555917E-04  2.6566588E-04  2.4428342E-04
  -16.0000  2.4719928E-04  2.7858564E-04  2.5631557E-04
  -15.0000  2.5992501E-04  2.9274872E-04  2.6947452E-04
  -14.0000  2.7389047E-04  3.0834077E-04  2.8392108E-04
  -13.0000  2.8928005E-04  3.2558589E-04  2.9984780E-04
  -12.0000  3.0631622E-04  3.4475714E-04  3.1748716E-04
  -11.0000  3.2526989E-04  3.6619046E-04  3.3712245E-04
  -10.0000  3.4647437E-04  3.9030380E-04  3.5910250E-04
  -9.00000  3.7034451E-04  4.1762355E-04  3.8386183E-04
  -8.00000  3.9740342E-04  4.4882183E-04  4.1194880E-04
  -7.00000  4.2832054E-04  4.8477030E-04  4.4406583E-04
  -6.00000  4.6396725E-04  5.2661967E-04  4.8112813E-04
  -5.00000  5.0550046E-04  5.7592046E-04  5.2435226E-04
  -4.00000  5.5449245E-04  6.3481267E-04  5.7539395E-04
  -3.00000  6.1314082E-04  7.0633544E-04  6.3657167E-04
  -2.00000  6.8462501E-04  7.9495724E-04  7.1124794E-04
  -1.00000  7.7374999E-04  9.0753972E-04  8.0452192E-04
   0.00000  8.8820538E-04  1.0552294E-03  9.2459400E-04
   1.00000  1.0413078E-03  1.2575766E-03  1.0857660E-03
   2.00000  1.2589629E-03  1.5529327E-03  1.3161378E-03
   3.00000  1.6019468E-03  2.0313178E-03  1.6824659E-03
   4.00000  2.2688427E-03  2.9835241E-03  2.4052928E-03
   5.00000  4.1343870E-03  5.6796940E-03  4.4814965E-03
   5.20000  4.7104967E-03  6.5265854E-03  5.1519193E-03
   5.40000  5.2773739E-03  7.3730631E-03  5.8311436E-03
   5.60000  5.8197656E-03  8.1962989E-03  6.4913296E-03
   5.80000  6.3479780E-03  9.0097752E-03  7.1282791E-03
   6.00000  6.8787601E-03  9.8389994E-03  7.7480653E-03
   6.20000  7.4267357E-03  1.0709419E-02  8.3581394E-03
   6.40000  8.0033573E-03  1.1642847E-02  8.9595211E-03
   6.60000  8.6182856E-03  1.2657054E-02  9.5429350E-03
   6.80000  9.2810241E-03  1.3767266E-02  1.0097229E-02
   7.00000  1.0001897E-02  1.4988640E-02  1.0627110E-02
   7.20000  1.0791902E-02  1.6337892E-02  1.1162280E-02
   7.40000  1.1661627E-02  1.7833027E-02  1.1747539E-02
   7.60000  1.2620003E-02  1.9491746E-02  1.2425257E-02
   7.80000  1.3673378E-02  2.1329391E-02  1.3225358E-02
   8.00000  1.4824845E-02  2.3356409E-02  1.4164822E-02
   8.20000  1.6073656E-02  2.5575112E-02  1.5250774E-02
   8.40000  1.7414875E-02  2.7976125E-02  1.6482795E-02
   8.60000  1.8839679E-02  3.0535763E-02  1.7853623E-02
   8.80000  2.0336378E-02  3.3215473E-02  1.9349121E-02
   9.00000  2.1891440E-02  3.5963139E-02  2.0948438E-02
   9.20000  2.3489997E-02  3.8715454E-02  2.2625075E-02
   9.40000  2.5115812E-02  4.1400713E-02  2.4349142E-02
   9.60000  2.6750228E-02  4.3941104E-02  2.6090300E-02
   9.80000  2.8370209E-02  4.6254349E-02  2.7820485E-02
   10.0000  2.9946771E-02  4.8256044E-02  2.9515593E-02
   10.2500  3.1801153E-02  5.0196795E-02  3.1554228E-02
   10.5000  3.3444658E-02  5.1393190E-02  3.3468134E-02
   10.7500  3.4779042E-02  5.1773457E-02  3.5212321E-02
   11.0000  3.5718213E-02  5.1344629E-02  3.6732513E-02
   11.2500  3.6216589E-02  5.0190888E-02  3.7975924E-02
   11.5000  3.6285087E-02  4.8453236E-02  3.8908445E-02
   11.7500  3.5988490E-02  4.6300941E-02  3.9525545E-02
   12.0000  3.5427971E-02  4.3904433E-02  3.9850694E-02
   12.2500  3.4718354E-02  4.1413935E-02  3.9926635E-02
   12.5000  3.3967754E-02  3.8947076E-02  3.9806069E-02
   12.7500  3.3263195E-02  3.6586930E-02  3.9544017E-02
   13.0000  3.2663553E-02  3.4386604E-02  3.9192928E-02
   13.2500  3.2200167E-02  3.2375483E-02  3.8799741E-02
   13.5000  3.1883178E-02  3.0565304E-02  3.8404053E-02
   13.7500  3.1709191E-02  2.8955775E-02  3.8037459E-02
   14.0000  3.1667305E-02  2.7539263E-02  3.7723895E-02
   14.2500  3.1742996E-02  2.6304229E-02  3.7480425E-02
   14.5000  3.1920289E-02  2.5237432E-02  3.7317962E-02
   14.7500  3.2182740E-02  2.4325198E-02  3.7241740E-02
   15.0000  3.2513705E-02  2.3554069E-02  3.7251541E-02
   15.2500  3.2896343E-02  2.2911097E-02  3.7341800E-02
   15.5000  3.3313656E-02  2.2383951E-02  3.7501777E-02
   15.7500  3.3748754E-02  2.1960956E-02  3.7715952E-02
   16.0000  3.4185386E-02  2.1631114E-02  3.7964815E-02
   16.2500  3.4608681E-02  2.1384135E-02  3.8226103E-02
   16.5000  3.5005985E-02  2.1210477E-02  3.8476496E-02
   16.7500  3.5367643E-02  2.1101395E-02  3.8693624E-02
   17.0000  3.5687587E-02  2.1048980E-02  3.8858121E-02
   17.2500  3.5963615E-02  2.1046176E-02  3.8955396E-02
   17.5000  3.6197303E-02  2.1086780E-02  3.8976806E-02
   17.7500  3.6393528E-02  2.1165401E-02  3.8920012E-02
   18.0000  3.6559685E-02  2.1277406E-02  3.8788525E-02
   18.2500  3.6704696E-02  2.1418840E-02  3.8590577E-02
   18.5000  3.6837975E-02  2.1586356E-02  3.8337616E-02
   18.7500  3.6968479E-02  2.1777149E-02  3.8042716E-02
   19.0000  3.7103968E-02  2.1988913E-02  3.7719129E-02
   19.2500  3.7250510E-02  2.2219822E-02  3.7379144E-02
   19.5000  3.7412245E-02  2.2468521E-02  3.7033275E-02
   19.7500  3.7591312E-02  2.2734085E-02  3.6689830E-02
   20.0000  3.7787828E-02  2.3015859E-02  3.6354904E-02
   21.0000  3.8684979E-02  2.4288716E-02  3.5168658E-02
   22.0000  3.9494040E-02  2.5753153E-02  3.4255884E-02
   23.0000  3.9803331E-02  2.7346372E-02  3.3488566E-02
   24.0000  3.9266886E-02  2.8964530E-02  3.2678062E-02
   25.0000  3.7762873E-02  3.0464203E-02  3.1682076E-02
   26.0000  3.5478346E-02  3.1702570E-02  3.0471787E-02
   27.0000  3.2824200E-02  3.2587990E-02  2.9146151E-02
   28.0000  3.0228550E-02  3.3101606E-02  2.7874213E-02
   29.0000  2.7991661E-02  3.3290005E-02  2.6809179E-02
   30.0000  2.6251092E-02  3.3238296E-02  2.6026628E-02
   31.0000  2.4980387E-02  3.3024119E-02  2.5502181E-02
   32.0000  2.4085551E-02  3.2696832E-02  2.5162794E-02
   33.0000  2.3469830E-02  3.2279353E-02  2.4931476E-02
   34.0000  2.3045748E-02  3.1779870E-02  2.4742483E-02
   35.0000  2.2736418E-02  3.1207021E-02  2.4545862E-02
   36.0000  2.2476822E-02  3.0581904E-02  2.4309425E-02
   37.0000  2.2218698E-02  2.9942218E-02  2.4020467E-02
   38.0000  2.1939671E-02  2.9336847E-02  2.3687985E-02
   39.0000  2.1651171E-02  2.8814734E-02  2.3345526E-02
   40.0000  2.1394243E-02  2.8414963E-02  2.3047784E-02
