    Energy   (100,001)      (010,001)      (001,110)   
  -25.0000  1.7242154E-04  1.8846084E-04  1.8128871E-04
  -24.0000  1.7859823E-04  1.9541943E-04  1.8791007E-04
  -23.0000  1.8519002E-04  2.0287082E-04  1.9499067E-04
  -22.0000  1.9223891E-04  2.1086820E-04  2.0257879E-04
  -21.0000  1.9979267E-04  2.1947258E-04  2.1072967E-04
  -20.0000  2.0790588E-04  2.2875431E-04  2.1950672E-04
  -19.0000  2.1664115E-04  2.3879490E-04  2.2898319E-04
  -18.0000  2.2607069E-04  2.4968932E-04  2.3924405E-04
  -17.0000  2.3627817E-04  2.6154886E-04  2.5038849E-04
  -16.0000  2.4736109E-04  2.7450476E-04  2.6253295E-04
  -15.0000  2.5943378E-04  2.8871284E-04  2.7581509E-04
  -14.0000  2.7263116E-04  3.0435949E-04  2.9039881E-04
  -13.0000  2.8711357E-04  3.2166944E-04  3.0648077E-04
  -12.0000  3.0307310E-04  3.4091611E-04  3.2429908E-04
  -11.0000  3.2074183E-04  3.6243532E-04  3.4414471E-04
  -10.0000  3.4040288E-04  3.8664405E-04  3.6637716E-04
  -9.00000  3.6240528E-04  4.1406624E-04  3.9144585E-04
  -8.00000  3.8718457E-04  4.4536907E-04  4.1992028E-04
  -7.00000  4.1529157E-04  4.8141504E-04  4.5253323E-04
  -6.00000  4.4743386E-04  5.2333849E-04  4.9024432E-04
  -5.00000  4.8453687E-04  5.7266109E-04  5.3433616E-04
  -4.00000  5.2783682E-04  6.3147192E-04  5.8656491E-04
  -3.00000  5.7902741E-04  7.0271915E-04  6.4940555E-04
  -2.00000  6.4050215E-04  7.9070495E-04  7.2647166E-04
  -1.00000  7.1577798E-04  9.0197603E-04  8.2327924E-04
   0.00000  8.1029298E-04  1.0470527E-03  9.4874984E-04
   1.00000  9.3306674E-04  1.2441512E-03  1.1184972E-03
   2.00000  1.1006916E-03  1.5284808E-03  1.3631587E-03
   3.00000  1.3493022E-03  1.9814060E-03  1.7547712E-03
   4.00000  1.7860361E-03  2.8624968E-03  2.5256540E-03
   5.00000  2.8497300E-03  5.2901787E-03  4.7017482E-03
   5.20000  3.1758447E-03  6.0357101E-03  5.4071550E-03
   5.40000  3.5116482E-03  6.7710620E-03  6.1320293E-03
   5.60000  3.8545807E-03  7.4802125E-03  6.8532164E-03
   5.80000  4.2148799E-03  8.1827539E-03  7.5736825E-03
   6.00000  4.6067886E-03  8.9093883E-03  8.3088686E-03
   6.20000  5.0435257E-03  9.6894152E-03  9.0782424E-03
   6.40000  5.5347444E-03  1.0546309E-02  9.8993630E-03
   6.60000  6.0846423E-03  1.1495584E-02  1.0781919E-02
   6.80000  6.6906237E-03  1.2543655E-02  1.1723840E-02
   7.00000  7.3433531E-03  1.3688548E-02  1.2712843E-02
   7.20000  8.0290666E-03  1.4923428E-02  1.3734295E-02
   7.40000  8.7340095E-03  1.6242440E-02  1.4782045E-02
   7.60000  9.4495882E-03  1.7646579E-02  1.5866068E-02
   7.80000  1.0176379E-02  1.9147705E-02  1.7012124E-02
   8.00000  1.0925280E-02  2.0769867E-02  1.8253012E-02
   8.20000  1.1714733E-02  2.2547760E-02  1.9614620E-02
   8.40000  1.2564669E-02  2.4522676E-02  2.1100764E-02
   8.60000  1.3489713E-02  2.6737328E-02  2.2680794E-02
   8.80000  1.4494641E-02  2.9231024E-02  2.4285333E-02
   9.00000  1.5574452E-02  3.2035413E-02  2.5816755E-02
   9.20000  1.6719549E-02  3.5169511E-02  2.7177206E-02
   9.40000  1.7923504E-02  3.8632116E-02  2.8304701E-02
   9.60000  1.9188310E-02  4.2390534E-02  2.9195995E-02
   9.80000  2.0522971E-02  4.6366481E-02  2.9900367E-02
   10.0000  2.1936081E-02  5.0422131E-02  3.0490454E-02
   10.2500  2.3810319E-02  5.5284608E-02  3.1164282E-02
   10.5000  2.5769766E-02  5.9422953E-02  3.1832773E-02
   10.7500  2.7740375E-02  6.2286450E-02  3.2512814E-02
   11.0000  2.9619800E-02  6.3471180E-02  3.3190143E-02
   11.2500  3.1297099E-02  6.2867747E-02  3.3840946E-02
   11.5000  3.2674198E-02  6.0684918E-02  3.4439578E-02
   11.7500  3.3685524E-02  5.7342891E-02  3.4958644E-02
   12.0000  3.4314350E-02  5.3323739E-02  3.5370564E-02
   12.2500  3.4596853E-02  4.9057830E-02  3.5653688E-02
   12.5000  3.4609416E-02  4.4868530E-02  3.5798791E-02
   12.7500  3.4445394E-02  4.0962870E-02  3.5811055E-02
   13.0000  3.4193145E-02  3.7448986E-02  3.5706869E-02
   13.2500  3.3924131E-02  3.4363696E-02  3.5508926E-02
   13.5000  3.3690616E-02  3.1698537E-02  3.5242786E-02
   13.7500  3.3528028E-02  2.9420079E-02  3.4935127E-02
   14.0000  3.3457975E-02  2.7484367E-02  3.4613471E-02
   14.2500  3.3490941E-02  2.5845989E-02  3.4305917E-02
   14.5000  3.3629064E-02  2.4462756E-02  3.4039229E-02
   14.7500  3.3868548E-02  2.3297528E-02  3.3836178E-02
   15.0000  3.4201187E-02  2.2318547E-02  3.3713643E-02
   15.2500  3.4615190E-02  2.1499088E-02  3.3681839E-02
   15.5000  3.5095691E-02  2.0816855E-02  3.3744322E-02
   15.7500  3.5625174E-02  2.0253320E-02  3.3898393E-02
   16.0000  3.6183984E-02  1.9793118E-02  3.4135651E-02
   16.2500  3.6750998E-02  1.9423535E-02  3.4442624E-02
   16.5000  3.7304506E-02  1.9134080E-02  3.4801492E-02
   16.7500  3.7823328E-02  1.8916137E-02  3.5190990E-02
   17.0000  3.8288087E-02  1.8762686E-02  3.5587588E-02
   17.2500  3.8682535E-02  1.8668058E-02  3.5966994E-02
   17.5000  3.8994738E-02  1.8627725E-02  3.6305909E-02
   17.7500  3.9217918E-02  1.8638106E-02  3.6583869E-02
   18.0000  3.9350797E-02  1.8696383E-02  3.6784907E-02
   18.2500  3.9397367E-02  1.8800327E-02  3.6898753E-02
   18.5000  3.9366148E-02  1.8948148E-02  3.6921369E-02
   18.7500  3.9269080E-02  1.9138366E-02  3.6854745E-02
   19.0000  3.9120234E-02  1.9369723E-02  3.6706006E-02
   19.2500  3.8934515E-02  1.9641149E-02  3.6486047E-02
   19.5000  3.8726483E-02  1.9951744E-02  3.6207921E-02
   19.7500  3.8509429E-02  2.0300732E-02  3.5885352E-02
   20.0000  3.8294858E-02  2.0687276E-02  3.5531719E-02
   21.0000  3.7631417E-02  2.2575883E-02  3.4046797E-02
   22.0000  3.7445851E-02  2.4910543E-02  3.2819544E-02
   23.0000  3.7533521E-02  2.7525963E-02  3.1964637E-02
   24.0000  3.7381562E-02  3.0184998E-02  3.1363445E-02
   25.0000  3.6507277E-02  3.2588896E-02  3.0862662E-02
   26.0000  3.4807656E-02  3.4447369E-02  3.0357919E-02
   27.0000  3.2647200E-02  3.5581262E-02  2.9806262E-02
   28.0000  3.0550078E-02  3.5978977E-02  2.9212697E-02
   29.0000  2.8849206E-02  3.5766346E-02  2.8618065E-02
   30.0000  2.7616454E-02  3.5142540E-02  2.8088972E-02
   31.0000  2.6774251E-02  3.4314307E-02  2.7684847E-02
   32.0000  2.6207275E-02  3.3422678E-02  2.7412061E-02
   33.0000  2.5811197E-02  3.2536917E-02  2.7230807E-02
   34.0000  2.5503337E-02  3.1677402E-02  2.7082462E-02
   35.0000  2.5223654E-02  3.0836824E-02  2.6909804E-02
   36.0000  2.4934798E-02  2.9999876E-02  2.6670648E-02
   37.0000  2.4621800E-02  2.9159245E-02  2.6347020E-02
   38.0000  2.4291220E-02  2.8328519E-02  2.5951650E-02
   39.0000  2.3969621E-02  2.7554094E-02  2.5532106E-02
   40.0000  2.3697821E-02  2.6916915E-02  2.5164363E-02
