    Energy   (100,001)      (010,001)      (001,110)   
  -25.0000  1.6188483E-04  1.8308623E-04  1.6806817E-04
  -24.0000  1.6796312E-04  1.8993863E-04  1.7432396E-04
  -23.0000  1.7446176E-04  1.9728004E-04  1.8101264E-04
  -22.0000  1.8142409E-04  2.0516348E-04  1.8817904E-04
  -21.0000  1.8889951E-04  2.1364977E-04  1.9587429E-04
  -20.0000  1.9694455E-04  2.2280907E-04  2.0415693E-04
  -19.0000  2.0562420E-04  2.3272272E-04  2.1309433E-04
  -18.0000  2.1501355E-04  2.4348551E-04  2.2276437E-04
  -17.0000  2.2519980E-04  2.5520857E-04  2.3325758E-04
  -16.0000  2.3628483E-04  2.6802302E-04  2.4467980E-04
  -15.0000  2.4838834E-04  2.8208462E-04  2.5715553E-04
  -14.0000  2.6165198E-04  2.9757980E-04  2.7083223E-04
  -13.0000  2.7624459E-04  3.1473346E-04  2.8588586E-04
  -12.0000  2.9236903E-04  3.3381942E-04  3.0252809E-04
  -11.0000  3.1027124E-04  3.5517430E-04  3.2101589E-04
  -10.0000  3.3025235E-04  3.7921641E-04  3.4166435E-04
  -9.00000  3.5268521E-04  4.0647192E-04  3.6486427E-04
  -8.00000  3.7803724E-04  4.3761165E-04  3.9110656E-04
  -7.00000  4.0690293E-04  4.7350405E-04  4.2101705E-04
  -6.00000  4.4005082E-04  5.1529315E-04  4.5540721E-04
  -5.00000  4.7849386E-04  5.6451665E-04  4.9535053E-04
  -4.00000  5.2359780E-04  6.2329058E-04  5.4230160E-04
  -3.00000  5.7725552E-04  6.9460947E-04  5.9829010E-04
  -2.00000  6.4218143E-04  7.8285780E-04  6.6625453E-04
  -1.00000  7.2244073E-04  8.9473433E-04  7.5065817E-04
   0.00000  8.2448216E-04  1.0410550E-03  8.5873427E-04
   1.00000  9.5938772E-04  1.2406520E-03  1.0033382E-03
   2.00000  1.1486052E-03  1.5301494E-03  1.2107378E-03
   3.00000  1.4424384E-03  1.9946887E-03  1.5482422E-03
   4.00000  2.0064058E-03  2.9069327E-03  2.2695481E-03
   5.00000  3.5769910E-03  5.4439955E-03  4.5320554E-03
   5.20000  4.0602262E-03  6.2292629E-03  5.0984821E-03
   5.40000  4.5308570E-03  7.0111100E-03  5.5042256E-03
   5.60000  4.9725870E-03  7.7744226E-03  5.7577367E-03
   5.80000  5.3922510E-03  8.5366424E-03  5.9316628E-03
   6.00000  5.8042582E-03  9.3221596E-03  6.0958367E-03
   6.20000  6.2228340E-03  1.0152045E-02  6.2941887E-03
   6.40000  6.6602129E-03  1.1043408E-02  6.5490377E-03
   6.60000  7.1268077E-03  1.2011076E-02  6.8703548E-03
   6.80000  7.6316316E-03  1.3069229E-02  7.2622568E-03
   7.00000  8.1824325E-03  1.4232653E-02  7.7263135E-03
   7.20000  8.7855105E-03  1.5517552E-02  8.2628239E-03
   7.40000  9.4454106E-03  1.6941797E-02  8.8710849E-03
   7.60000  1.0164756E-02  1.8524461E-02  9.5493660E-03
   7.80000  1.0944423E-02  2.0284551E-02  1.0295017E-02
   8.00000  1.1784020E-02  2.2238860E-02  1.1104870E-02
   8.20000  1.2682433E-02  2.4398854E-02  1.1975877E-02
   8.40000  1.3638203E-02  2.6766974E-02  1.2905725E-02
   8.60000  1.4649783E-02  2.9333374E-02  1.3893190E-02
   8.80000  1.5715799E-02  3.2074085E-02  1.4938154E-02
   9.00000  1.6835321E-02  3.4951327E-02  1.6041530E-02
   9.20000  1.8007916E-02  3.7916063E-02  1.7205336E-02
   9.40000  1.9233059E-02  4.0912013E-02  1.8432853E-02
   9.60000  2.0508698E-02  4.3879427E-02  1.9728319E-02
   9.80000  2.1829029E-02  4.6754350E-02  2.1095548E-02
   10.0000  2.3181805E-02  4.9458111E-02  2.2535323E-02
   10.2500  2.4885280E-02  5.2430824E-02  2.4427925E-02
   10.5000  2.6544388E-02  5.4699576E-02  2.6395661E-02
   10.7500  2.8083702E-02  5.5995160E-02  2.8391571E-02
   11.0000  2.9430080E-02  5.6138629E-02  3.0358202E-02
   11.2500  3.0533582E-02  5.5114546E-02  3.2235456E-02
   11.5000  3.1384806E-02  5.3083140E-02  3.3968796E-02
   11.7500  3.2017632E-02  5.0326334E-02  3.5517029E-02
   12.0000  3.2493282E-02  4.7163921E-02  3.6855339E-02
   12.2500  3.2876924E-02  4.3881480E-02  3.7974540E-02
   12.5000  3.3222536E-02  4.0692280E-02  3.8879836E-02
   12.7500  3.3568407E-02  3.7731634E-02  3.9589104E-02
   13.0000  3.3937955E-02  3.5069631E-02  4.0129985E-02
   13.2500  3.4342686E-02  3.2729694E-02  4.0536107E-02
   13.5000  3.4785821E-02  3.0705857E-02  4.0843010E-02
   13.7500  3.5265437E-02  2.8975961E-02  4.1084391E-02
   14.0000  3.5776535E-02  2.7510560E-02  4.1289099E-02
   14.2500  3.6312009E-02  2.6278365E-02  4.1479170E-02
   14.5000  3.6862817E-02  2.5249296E-02  4.1668900E-02
   14.7500  3.7417798E-02  2.4395981E-02  4.1864863E-02
   15.0000  3.7963562E-02  2.3694333E-02  4.2066611E-02
   15.2500  3.8484739E-02  2.3123607E-02  4.2267858E-02
   15.5000  3.8964754E-02  2.2666177E-02  4.2457944E-02
   15.7500  3.9387080E-02  2.2307169E-02  4.2623465E-02
   16.0000  3.9736791E-02  2.2034052E-02  4.2749959E-02
   16.2500  4.0002144E-02  2.1836239E-02  4.2823552E-02
   16.5000  4.0175884E-02  2.1704721E-02  4.2832444E-02
   16.7500  4.0256062E-02  2.1631776E-02  4.2768086E-02
   17.0000  4.0246219E-02  2.1610731E-02  4.2625953E-02
   17.2500  4.0154976E-02  2.1635792E-02  4.2405802E-02
   17.5000  3.9995114E-02  2.1701918E-02  4.2111461E-02
   17.7500  3.9782327E-02  2.1804742E-02  4.1750183E-02
   18.0000  3.9533834E-02  2.1940508E-02  4.1331740E-02
   18.2500  3.9267027E-02  2.2106021E-02  4.0867399E-02
   18.5000  3.8998295E-02  2.2298604E-02  4.0368928E-02
   18.7500  3.8742112E-02  2.2516048E-02  3.9847753E-02
   19.0000  3.8510418E-02  2.2756574E-02  3.9314291E-02
   19.2500  3.8312276E-02  2.3018796E-02  3.8777472E-02
   19.5000  3.8153756E-02  2.3301688E-02  3.8244426E-02
   19.7500  3.8037982E-02  2.3604507E-02  3.7720386E-02
   20.0000  3.7965267E-02  2.3926590E-02  3.7208900E-02
   21.0000  3.8032257E-02  2.5382843E-02  3.5329718E-02
   22.0000  3.8345827E-02  2.7031164E-02  3.3737486E-02
   23.0000  3.8365693E-02  2.8756649E-02  3.2355227E-02
   24.0000  3.7658382E-02  3.0413087E-02  3.1090078E-02
   25.0000  3.6116334E-02  3.1822672E-02  2.9896186E-02
   26.0000  3.3980123E-02  3.2820105E-02  2.8779869E-02
   27.0000  3.1635023E-02  3.3343268E-02  2.7764298E-02
   28.0000  2.9421220E-02  3.3425530E-02  2.6880979E-02
   29.0000  2.7539421E-02  3.3157215E-02  2.6158722E-02
   30.0000  2.6048190E-02  3.2649034E-02  2.5605576E-02
   31.0000  2.4912856E-02  3.1999151E-02  2.5202473E-02
   32.0000  2.4057451E-02  3.1275656E-02  2.4909803E-02
   33.0000  2.3397898E-02  3.0515882E-02  2.4678285E-02
   34.0000  2.2857708E-02  2.9735852E-02  2.4457287E-02
   35.0000  2.2374293E-02  2.8942261E-02  2.4199892E-02
   36.0000  2.1903039E-02  2.8141780E-02  2.3868150E-02
   37.0000  2.1422399E-02  2.7346124E-02  2.3441982E-02
   38.0000  2.0938728E-02  2.6576431E-02  2.2932225E-02
   39.0000  2.0486031E-02  2.5872455E-02  2.2393478E-02
   40.0000  2.0113370E-02  2.5298897E-02  2.1920077E-02
