    Energy   (100,001)      (010,001)      (001,110)   
  -25.0000  1.7190644E-04  1.8192440E-04  1.7162983E-04
  -24.0000  1.7839270E-04  1.8883043E-04  1.7826396E-04
  -23.0000  1.8533562E-04  1.9623437E-04  1.8537575E-04
  -22.0000  1.9278339E-04  2.0419063E-04  1.9301679E-04
  -21.0000  2.0079113E-04  2.1276175E-04  2.0124620E-04
  -20.0000  2.0942208E-04  2.2201994E-04  2.1013212E-04
  -19.0000  2.1874922E-04  2.3204898E-04  2.1975339E-04
  -18.0000  2.2885717E-04  2.4294665E-04  2.3020182E-04
  -17.0000  2.3984456E-04  2.5482773E-04  2.4158489E-04
  -16.0000  2.5182709E-04  2.6782781E-04  2.5402922E-04
  -15.0000  2.6494128E-04  2.8210819E-04  2.6768503E-04
  -14.0000  2.7934940E-04  2.9786223E-04  2.8273186E-04
  -13.0000  2.9524576E-04  3.1532358E-04  2.9938609E-04
  -12.0000  3.1286500E-04  3.3477715E-04  3.1791082E-04
  -11.0000  3.3249301E-04  3.5657382E-04  3.3862924E-04
  -10.0000  3.5448175E-04  3.8115046E-04  3.6194277E-04
  -9.00000  3.7926940E-04  4.0905761E-04  3.8835641E-04
  -8.00000  4.0740843E-04  4.4099865E-04  4.1851448E-04
  -7.00000  4.3960553E-04  4.7788606E-04  4.5325266E-04
  -6.00000  4.7677960E-04  5.2092444E-04  4.9367541E-04
  -5.00000  5.2014846E-04  5.7173645E-04  5.4127499E-04
  -4.00000  5.7136248E-04  6.3255963E-04  5.9812113E-04
  -3.00000  6.3271876E-04  7.0656649E-04  6.6717675E-04
  -2.00000  7.0752036E-04  7.9840914E-04  7.5285213E-04
  -1.00000  8.0071547E-04  9.1520087E-04  8.6204405E-04
   0.00000  9.2012381E-04  1.0684215E-03  1.0062552E-03
   1.00000  1.0790448E-03  1.2780051E-03  1.2064258E-03
   2.00000  1.3026844E-03  1.5824592E-03  1.5057771E-03
   3.00000  1.6480085E-03  2.0700882E-03  2.0125906E-03
   4.00000  2.2920157E-03  3.0168385E-03  3.1022317E-03
   5.00000  3.9880285E-03  5.5962409E-03  6.5100210E-03
   5.20000  4.5140209E-03  6.4071975E-03  7.6437479E-03
   5.40000  5.0456684E-03  7.2338804E-03  8.8321872E-03
   5.60000  5.5722050E-03  8.0611023E-03  1.0051822E-02
   5.80000  6.1030283E-03  8.9019183E-03  1.1280731E-02
   6.00000  6.6523756E-03  9.7749951E-03  1.2464602E-02
   6.20000  7.2323518E-03  1.0696694E-02  1.3528348E-02
   6.40000  7.8524839E-03  1.1683195E-02  1.4414101E-02
   6.60000  8.5217261E-03  1.2754371E-02  1.5113421E-02
   6.80000  9.2503912E-03  1.3935090E-02  1.5671409E-02
   7.00000  1.0050738E-02  1.5253515E-02  1.6163678E-02
   7.20000  1.0936251E-02  1.6738252E-02  1.6664265E-02
   7.40000  1.1920305E-02  1.8415972E-02  1.7221099E-02
   7.60000  1.3014775E-02  2.0309890E-02  1.7845235E-02
   7.80000  1.4228881E-02  2.2439227E-02  1.8513624E-02
   8.00000  1.5568345E-02  2.4819721E-02  1.9183829E-02
   8.20000  1.7035065E-02  2.7464810E-02  1.9816764E-02
   8.40000  1.8627399E-02  3.0385528E-02  2.0398014E-02
   8.60000  2.0340784E-02  3.3585548E-02  2.0945244E-02
   8.80000  2.2168521E-02  3.7050462E-02  2.1498684E-02
   9.00000  2.4102514E-02  4.0734935E-02  2.2105573E-02
   9.20000  2.6132894E-02  4.4551819E-02  2.2809172E-02
   9.40000  2.8245589E-02  4.8365857E-02  2.3644308E-02
   9.60000  3.0417847E-02  5.1994526E-02  2.4636040E-02
   9.80000  3.2612512E-02  5.5219116E-02  2.5797848E-02
   10.0000  3.4772572E-02  5.7808169E-02  2.7128866E-02
   10.2500  3.7301427E-02  5.9836845E-02  2.9003604E-02
   10.5000  3.9462639E-02  6.0288888E-02  3.1049580E-02
   10.7500  4.1076009E-02  5.9156168E-02  3.3167879E-02
   11.0000  4.2031053E-02  5.6694712E-02  3.5233549E-02
   11.2500  4.2326366E-02  5.3331436E-02  3.7113103E-02
   11.5000  4.2064179E-02  4.9522377E-02  3.8690427E-02
   11.7500  4.1406732E-02  4.5642246E-02  3.9887645E-02
   12.0000  4.0523422E-02  4.1943386E-02  4.0677658E-02
   12.2500  3.9555204E-02  3.8566495E-02  4.1085571E-02
   12.5000  3.8602489E-02  3.5569901E-02  4.1175745E-02
   12.7500  3.7728347E-02  3.2959224E-02  4.1032409E-02
   13.0000  3.6966776E-02  3.0711388E-02  4.0742123E-02
   13.2500  3.6330904E-02  2.8791072E-02  4.0381966E-02
   13.5000  3.5820493E-02  2.7159960E-02  4.0014543E-02
   13.7500  3.5427930E-02  2.5781135E-02  3.9687345E-02
   14.0000  3.5142001E-02  2.4620921E-02  3.9433685E-02
   14.2500  3.4949890E-02  2.3649507E-02  3.9273997E-02
   14.5000  3.4838090E-02  2.2840943E-02  3.9217150E-02
   14.7500  3.4792788E-02  2.2172892E-02  3.9261585E-02
   15.0000  3.4800047E-02  2.1626259E-02  3.9396262E-02
   15.2500  3.4845968E-02  2.1184817E-02  3.9601556E-02
   15.5000  3.4916957E-02  2.0834846E-02  3.9850363E-02
   15.7500  3.5000126E-02  2.0564790E-02  4.0109742E-02
   16.0000  3.5083841E-02  2.0364976E-02  4.0343354E-02
   16.2500  3.5158331E-02  2.0227356E-02  4.0514754E-02
   16.5000  3.5216256E-02  2.0145296E-02  4.0591274E-02
   16.7500  3.5253103E-02  2.0113376E-02  4.0547896E-02
   17.0000  3.5267312E-02  2.0127207E-02  4.0370318E-02
   17.2500  3.5260084E-02  2.0183238E-02  4.0056472E-02
   17.5000  3.5234896E-02  2.0278573E-02  3.9616097E-02
   17.7500  3.5196806E-02  2.0410796E-02  3.9068549E-02
   18.0000  3.5151677E-02  2.0577815E-02  3.8439444E-02
   18.2500  3.5105434E-02  2.0777748E-02  3.7756971E-02
   18.5000  3.5063456E-02  2.1008858E-02  3.7048631E-02
   18.7500  3.5030161E-02  2.1269525E-02  3.6338832E-02
   19.0000  3.5008785E-02  2.1558272E-02  3.5647485E-02
   19.2500  3.5001336E-02  2.1873825E-02  3.4989465E-02
   19.5000  3.5008670E-02  2.2215195E-02  3.4374693E-02
   19.7500  3.5030633E-02  2.2581694E-02  3.3808647E-02
   20.0000  3.5066176E-02  2.2972800E-02  3.3293196E-02
   21.0000  3.5297652E-02  2.4762311E-02  3.1706812E-02
   22.0000  3.5519627E-02  2.6822992E-02  3.0709183E-02
   23.0000  3.5486408E-02  2.8983685E-02  3.0014989E-02
   24.0000  3.4935143E-02  3.1054806E-02  2.9397146E-02
   25.0000  3.3725652E-02  3.2823847E-02  2.8720723E-02
   26.0000  3.1963739E-02  3.4103692E-02  2.7940577E-02
   27.0000  2.9961362E-02  3.4804481E-02  2.7097211E-02
   28.0000  2.8060240E-02  3.4955919E-02  2.6290095E-02
   29.0000  2.6481678E-02  3.4671374E-02  2.5620940E-02
   30.0000  2.5293392E-02  3.4087378E-02  2.5140211E-02
   31.0000  2.4455251E-02  3.3318898E-02  2.4832764E-02
   32.0000  2.3879334E-02  3.2444009E-02  2.4637896E-02
   33.0000  2.3471870E-02  3.1507226E-02  2.4478617E-02
   34.0000  2.3154623E-02  3.0529888E-02  2.4283450E-02
   35.0000  2.2873190E-02  2.9521587E-02  2.3998263E-02
   36.0000  2.2598834E-02  2.8490661E-02  2.3593819E-02
   37.0000  2.2326259E-02  2.7453343E-02  2.3073260E-02
   38.0000  2.2066967E-02  2.6442745E-02  2.2478124E-02
   39.0000  2.1839517E-02  2.5519211E-02  2.1886578E-02
   40.0000  2.1660024E-02  2.4770819E-02  2.1392781E-02
