    Energy   (100,001)      (010,001)      (001,110)   
  -25.0000  1.7192187E-04  1.7999468E-04  1.7933133E-04
  -24.0000  1.7835666E-04  1.8688488E-04  1.8600670E-04
  -23.0000  1.8524350E-04  1.9427495E-04  1.9315323E-04
  -22.0000  1.9263019E-04  2.0221975E-04  2.0082124E-04
  -21.0000  2.0057140E-04  2.1078235E-04  2.0906836E-04
  -20.0000  2.0912997E-04  2.2003559E-04  2.1796093E-04
  -19.0000  2.1837842E-04  2.3006403E-04  2.2757568E-04
  -18.0000  2.2840096E-04  2.4096637E-04  2.3800184E-04
  -17.0000  2.3929585E-04  2.5285851E-04  2.4934375E-04
  -16.0000  2.5117849E-04  2.6587744E-04  2.6172421E-04
  -15.0000  2.6418529E-04  2.8018613E-04  2.7528874E-04
  -14.0000  2.7847865E-04  2.9597998E-04  2.9021103E-04
  -13.0000  2.9425347E-04  3.1349521E-04  3.0670009E-04
  -12.0000  3.1174565E-04  3.3301986E-04  3.2500969E-04
  -11.0000  3.3124350E-04  3.5490875E-04  3.4545098E-04
  -10.0000  3.5310310E-04  3.7960364E-04  3.6840972E-04
  -9.00000  3.7776956E-04  4.0766129E-04  3.9437003E-04
  -8.00000  4.0580674E-04  4.3979285E-04  4.2394801E-04
  -7.00000  4.3793992E-04  4.7692065E-04  4.5794030E-04
  -6.00000  4.7511860E-04  5.2026175E-04  4.9739588E-04
  -5.00000  5.1861127E-04  5.7145436E-04  5.4372596E-04
  -4.00000  5.7015390E-04  6.3275500E-04  5.9887760E-04
  -3.00000  6.3219155E-04  7.0735810E-04  6.6562055E-04
  -2.00000  7.0829149E-04  7.9993715E-04  7.4804628E-04
  -1.00000  8.0389371E-04  9.1761450E-04  8.5249488E-04
   0.00000  9.2778524E-04  1.0718286E-03  9.8942919E-04
   1.00000  1.0953143E-03  1.2822968E-03  1.1776783E-03
   2.00000  1.3365070E-03  1.5866826E-03  1.4557029E-03
   3.00000  1.7216460E-03  2.0698566E-03  1.9194811E-03
   4.00000  2.4761189E-03  2.9901876E-03  2.9062908E-03
   5.00000  4.5852537E-03  5.4253203E-03  5.9924111E-03
   5.20000  5.2601218E-03  6.1920199E-03  6.9610169E-03
   5.40000  5.9476059E-03  6.9807717E-03  7.8763317E-03
   5.60000  6.6273637E-03  7.7770564E-03  8.6812941E-03
   5.80000  7.3071174E-03  8.5937308E-03  9.3768226E-03
   6.00000  8.0082880E-03  9.4529499E-03  9.9942776E-03
   6.20000  8.7568250E-03  1.0378362E-02  1.0573117E-02
   6.40000  9.5783858E-03  1.1394247E-02  1.1147851E-02
   6.60000  1.0495794E-02  1.2526269E-02  1.1744246E-02
   6.80000  1.1527862E-02  1.3801802E-02  1.2382661E-02
   7.00000  1.2688429E-02  1.5249381E-02  1.3083872E-02
   7.20000  1.3984118E-02  1.6897199E-02  1.3873293E-02
   7.40000  1.5409410E-02  1.8770684E-02  1.4781720E-02
   7.60000  1.6938537E-02  2.0889338E-02  1.5842232E-02
   7.80000  1.8516066E-02  2.3263654E-02  1.7083413E-02
   8.00000  2.0052268E-02  2.5893872E-02  1.8519460E-02
   8.20000  2.1433506E-02  2.8772913E-02  2.0139463E-02
   8.40000  2.2555003E-02  3.1893839E-02  2.1901051E-02
   8.60000  2.3367061E-02  3.5256487E-02  2.3734235E-02
   8.80000  2.3905364E-02  3.8863152E-02  2.5556319E-02
   9.00000  2.4279279E-02  4.2697357E-02  2.7290940E-02
   9.20000  2.4626604E-02  4.6692483E-02  2.8880661E-02
   9.40000  2.5067676E-02  5.0706741E-02  3.0289043E-02
   9.60000  2.5679919E-02  5.4519870E-02  3.1497985E-02
   9.80000  2.6492468E-02  5.7857742E-02  3.2505588E-02
   10.0000  2.7491730E-02  6.0440087E-02  3.3324019E-02
   10.2500  2.8929559E-02  6.2265066E-02  3.4115340E-02
   10.5000  3.0447227E-02  6.2338926E-02  3.4698255E-02
   10.7500  3.1893453E-02  6.0750028E-02  3.5124223E-02
   11.0000  3.3141328E-02  5.7846264E-02  3.5440469E-02
   11.2500  3.4114543E-02  5.4104484E-02  3.5690834E-02
   11.5000  3.4790352E-02  4.9989481E-02  3.5913285E-02
   11.7500  3.5184237E-02  4.5862275E-02  3.6134732E-02
   12.0000  3.5333119E-02  4.1957107E-02  3.6368115E-02
   12.2500  3.5284188E-02  3.8401569E-02  3.6612779E-02
   12.5000  3.5087658E-02  3.5247547E-02  3.6859187E-02
   12.7500  3.4792803E-02  3.2498907E-02  3.7095121E-02
   13.0000  3.4447047E-02  3.0132609E-02  3.7309640E-02
   13.2500  3.4095623E-02  2.8113047E-02  3.7494932E-02
   13.5000  3.3779241E-02  2.6400871E-02  3.7647882E-02
   13.7500  3.3530734E-02  2.4957833E-02  3.7770648E-02
   14.0000  3.3372940E-02  2.3748966E-02  3.7868648E-02
   14.2500  3.3318255E-02  2.2743295E-02  3.7947349E-02
   14.5000  3.3369613E-02  2.1913923E-02  3.8010000E-02
   14.7500  3.3522116E-02  2.1237832E-02  3.8056710E-02
   15.0000  3.3764653E-02  2.0695509E-02  3.8084399E-02
   15.2500  3.4081380E-02  2.0270519E-02  3.8087299E-02
   15.5000  3.4453189E-02  1.9949061E-02  3.8057853E-02
   15.7500  3.4859265E-02  1.9719554E-02  3.7987865E-02
   16.0000  3.5278725E-02  1.9572260E-02  3.7869775E-02
   16.2500  3.5692274E-02  1.9498923E-02  3.7697867E-02
   16.5000  3.6083728E-02  1.9492459E-02  3.7469269E-02
   16.7500  3.6441180E-02  1.9546684E-02  3.7184549E-02
   17.0000  3.6757634E-02  1.9656096E-02  3.6847825E-02
   17.2500  3.7030966E-02  1.9815699E-02  3.6466374E-02
   17.5000  3.7263235E-02  2.0020886E-02  3.6049824E-02
   17.7500  3.7459491E-02  2.0267357E-02  3.5609127E-02
   18.0000  3.7626337E-02  2.0551063E-02  3.5155501E-02
   18.2500  3.7770505E-02  2.0868177E-02  3.4699519E-02
   18.5000  3.7897688E-02  2.1215087E-02  3.4250450E-02
   18.7500  3.8011777E-02  2.1588396E-02  3.3815867E-02
   19.0000  3.8114524E-02  2.1984962E-02  3.3401496E-02
   19.2500  3.8205613E-02  2.2401959E-02  3.3011228E-02
   19.5000  3.8283032E-02  2.2836957E-02  3.2647240E-02
   19.7500  3.8343599E-02  2.3287944E-02  3.2310190E-02
   20.0000  3.8383478E-02  2.3753153E-02  3.1999507E-02
   21.0000  3.8252515E-02  2.5711366E-02  3.0988157E-02
   22.0000  3.7496961E-02  2.7719593E-02  3.0239933E-02
   23.0000  3.6017073E-02  2.9663276E-02  2.9602858E-02
   24.0000  3.3856866E-02  3.1410492E-02  2.8987566E-02
   25.0000  3.1305688E-02  3.2802163E-02  2.8388937E-02
   26.0000  2.8842530E-02  3.3691558E-02  2.7838841E-02
   27.0000  2.6854853E-02  3.4009103E-02  2.7350588E-02
   28.0000  2.5462850E-02  3.3804169E-02  2.6919849E-02
   29.0000  2.4578923E-02  3.3216801E-02  2.6555013E-02
   30.0000  2.4058940E-02  3.2405581E-02  2.6281073E-02
   31.0000  2.3775691E-02  3.1493187E-02  2.6106165E-02
   32.0000  2.3629180E-02  3.0550716E-02  2.6005648E-02
   33.0000  2.3544198E-02  2.9608223E-02  2.5935358E-02
   34.0000  2.3467114E-02  2.8674020E-02  2.5849897E-02
   35.0000  2.3362117E-02  2.7751340E-02  2.5713300E-02
   36.0000  2.3207643E-02  2.6847354E-02  2.5503828E-02
   37.0000  2.2996918E-02  2.5976010E-02  2.5217264E-02
   38.0000  2.2743487E-02  2.5160361E-02  2.4870942E-02
   39.0000  2.2482970E-02  2.4438302E-02  2.4508012E-02
   40.0000  2.2261061E-02  2.3863662E-02  2.4192955E-02
