    Energy   (100,001)      (010,001)      (001,110)   
  -25.0000  1.6985087E-04  1.8094880E-04  1.7492806E-04
  -24.0000  1.7602756E-04  1.8793928E-04  1.8137535E-04
  -23.0000  1.8262355E-04  1.9544041E-04  1.8826879E-04
  -22.0000  1.8968157E-04  2.0350858E-04  1.9565487E-04
  -21.0000  1.9725028E-04  2.1220866E-04  2.0358667E-04
  -20.0000  2.0538529E-04  2.2161561E-04  2.1212504E-04
  -19.0000  2.1415047E-04  2.3181655E-04  2.2134010E-04
  -18.0000  2.2361953E-04  2.4291323E-04  2.3131306E-04
  -17.0000  2.3387794E-04  2.5502529E-04  2.4213846E-04
  -16.0000  2.4502541E-04  2.6829421E-04  2.5392701E-04
  -15.0000  2.5717896E-04  2.8288857E-04  2.6680922E-04
  -14.0000  2.7047677E-04  2.9901069E-04  2.8094000E-04
  -13.0000  2.8508328E-04  3.1690547E-04  2.9650456E-04
  -12.0000  3.0119566E-04  3.3687199E-04  3.1372630E-04
  -11.0000  3.1905238E-04  3.5927921E-04  3.3287708E-04
  -10.0000  3.3894464E-04  3.8458733E-04  3.5429114E-04
  -9.00000  3.6123188E-04  4.1337740E-04  3.7838414E-04
  -8.00000  3.8636310E-04  4.4639328E-04  4.0567968E-04
  -7.00000  4.1490685E-04  4.8460207E-04  4.3684691E-04
  -6.00000  4.4759434E-04  5.2928352E-04  4.7275543E-04
  -5.00000  4.8538309E-04  5.8216590E-04  5.1455741E-04
  -4.00000  5.2955383E-04  6.4563921E-04  5.6381440E-04
  -3.00000  5.8186354E-04  7.2310282E-04  6.2270118E-04
  -2.00000  6.4479872E-04  8.1955925E-04  6.9434863E-04
  -1.00000  7.2201889E-04  9.4268895E-04  7.8345509E-04
   0.00000  8.1919434E-04  1.1049461E-03  8.9746064E-04
   1.00000  9.4575964E-04  1.3280787E-03  1.0490375E-03
   2.00000  1.1191692E-03  1.6543799E-03  1.2621618E-03
   3.00000  1.3778788E-03  2.1815870E-03  1.5903942E-03
   4.00000  1.8386732E-03  3.2175124E-03  2.1943522E-03
   5.00000  2.9889461E-03  6.0804983E-03  3.7368450E-03
   5.20000  3.3368454E-03  6.9857085E-03  4.2316359E-03
   5.40000  3.6858628E-03  7.9073767E-03  4.7605548E-03
   5.60000  4.0306288E-03  8.8263315E-03  5.3232450E-03
   5.80000  4.3797832E-03  9.7584556E-03  5.9340822E-03
   6.00000  4.7451618E-03  1.0730568E-02  6.6106183E-03
   6.20000  5.1370070E-03  1.1769149E-02  7.3677730E-03
   6.40000  5.5634963E-03  1.2897948E-02  8.2155824E-03
   6.60000  6.0316461E-03  1.4137853E-02  9.1573907E-03
   6.80000  6.5483105E-03  1.5506587E-02  1.0187551E-02
   7.00000  7.1208884E-03  1.7018018E-02  1.1289154E-02
   7.20000  7.7576486E-03  1.8681952E-02  1.2433277E-02
   7.40000  8.4676456E-03  2.0505392E-02  1.3581604E-02
   7.60000  9.2601462E-03  2.2495857E-02  1.4693454E-02
   7.80000  1.0143393E-02  2.4665854E-02  1.5735755E-02
   8.00000  1.1122593E-02  2.7035751E-02  1.6691778E-02
   8.20000  1.2197361E-02  2.9632625E-02  1.7564292E-02
   8.40000  1.3359368E-02  3.2484225E-02  1.8372066E-02
   8.60000  1.4591425E-02  3.5608671E-02  1.9142581E-02
   8.80000  1.5869568E-02  3.9001722E-02  1.9904913E-02
   9.00000  1.7168933E-02  4.2624110E-02  2.0685162E-02
   9.20000  1.8471973E-02  4.6391806E-02  2.1504582E-02
   9.40000  1.9774748E-02  5.0171909E-02  2.2379489E-02
   9.60000  2.1086770E-02  5.3785999E-02  2.3321874E-02
   9.80000  2.2423703E-02  5.7022416E-02  2.4340043E-02
   10.0000  2.3796978E-02  5.9659671E-02  2.5438859E-02
   10.2500  2.5561872E-02  6.1818731E-02  2.6926222E-02
   10.5000  2.7347046E-02  6.2497792E-02  2.8527174E-02
   10.7500  2.9090810E-02  6.1682959E-02  3.0208138E-02
   11.0000  3.0718681E-02  5.9582801E-02  3.1914588E-02
   11.2500  3.2157605E-02  5.6546395E-02  3.3576753E-02
   11.5000  3.3348015E-02  5.2951731E-02  3.5118865E-02
   11.7500  3.4255010E-02  4.9124417E-02  3.6464958E-02
   12.0000  3.4875367E-02  4.5307087E-02  3.7545255E-02
   12.2500  3.5238349E-02  4.1661186E-02  3.8309919E-02
   12.5000  3.5399263E-02  3.8282520E-02  3.8742527E-02
   12.7500  3.5427344E-02  3.5219826E-02  3.8863647E-02
   13.0000  3.5392732E-02  3.2490039E-02  3.8724472E-02
   13.2500  3.5356557E-02  3.0088932E-02  3.8395408E-02
   13.5000  3.5365001E-02  2.7998914E-02  3.7952888E-02
   13.7500  3.5447172E-02  2.6195058E-02  3.7467778E-02
   14.0000  3.5616337E-02  2.4649328E-02  3.6998653E-02
   14.2500  3.5872839E-02  2.3333312E-02  3.6589689E-02
   14.5000  3.6207108E-02  2.2219976E-02  3.6271141E-02
   14.7500  3.6602221E-02  2.1284696E-02  3.6060893E-02
   15.0000  3.7036022E-02  2.0505706E-02  3.5966286E-02
   15.2500  3.7482951E-02  1.9864163E-02  3.5985814E-02
   15.5000  3.7915732E-02  1.9343972E-02  3.6110578E-02
   15.7500  3.8307043E-02  1.8931506E-02  3.6325548E-02
   16.0000  3.8631255E-02  1.8615283E-02  3.6610819E-02
   16.2500  3.8866222E-02  1.8385646E-02  3.6943013E-02
   16.5000  3.8994973E-02  1.8234460E-02  3.7296899E-02
   16.7500  3.9007088E-02  1.8154844E-02  3.7647225E-02
   17.0000  3.8899526E-02  1.8140922E-02  3.7970580E-02
   17.2500  3.8676726E-02  1.8187614E-02  3.8247084E-02
   17.5000  3.8349999E-02  1.8290469E-02  3.8461663E-02
   17.7500  3.7936293E-02  1.8445527E-02  3.8604730E-02
   18.0000  3.7456571E-02  1.8649231E-02  3.8672236E-02
   18.2500  3.6934033E-02  1.8898365E-02  3.8665142E-02
   18.5000  3.6392416E-02  1.9190028E-02  3.8588482E-02
   18.7500  3.5854521E-02  1.9521627E-02  3.8450194E-02
   19.0000  3.5341036E-02  1.9890892E-02  3.8259898E-02
   19.2500  3.4869686E-02  2.0295918E-02  3.8027771E-02
   19.5000  3.4454683E-02  2.0735198E-02  3.7763585E-02
   19.7500  3.4106454E-02  2.1207583E-02  3.7476049E-02
   20.0000  3.3831734E-02  2.1712017E-02  3.7172536E-02
   21.0000  3.3506245E-02  2.4011379E-02  3.5910019E-02
   22.0000  3.4284855E-02  2.6635060E-02  3.4709655E-02
   23.0000  3.5672063E-02  2.9362543E-02  3.3578887E-02
   24.0000  3.6925358E-02  3.1883163E-02  3.2448253E-02
   25.0000  3.7284133E-02  3.3867452E-02  3.1270548E-02
   26.0000  3.6370529E-02  3.5091404E-02  3.0061881E-02
   27.0000  3.4457375E-02  3.5515011E-02  2.8904225E-02
   28.0000  3.2217751E-02  3.5266778E-02  2.7914903E-02
   29.0000  3.0218144E-02  3.4561892E-02  2.7187573E-02
   30.0000  2.8665630E-02  3.3600722E-02  2.6733162E-02
   31.0000  2.7528865E-02  3.2527912E-02  2.6493197E-02
   32.0000  2.6699956E-02  3.1430658E-02  2.6378900E-02
   33.0000  2.6069146E-02  3.0349568E-02  2.6301019E-02
   34.0000  2.5548389E-02  2.9295327E-02  2.6186229E-02
   35.0000  2.5074428E-02  2.8264675E-02  2.5982459E-02
   36.0000  2.4607291E-02  2.7252987E-02  2.5660359E-02
   37.0000  2.4129742E-02  2.6264124E-02  2.5216556E-02
   38.0000  2.3648247E-02  2.5319433E-02  2.4680048E-02
   39.0000  2.3193838E-02  2.4466767E-02  2.4118467E-02
   40.0000  2.2816170E-02  2.3779567E-02  2.3630902E-02
