    Energy   (100,001)      (010,001)      (001,110)   
  -25.0000  1.6291922E-04  1.8355967E-04  1.6880105E-04
  -24.0000  1.6924888E-04  1.9043324E-04  1.7538712E-04
  -23.0000  1.7602997E-04  1.9779897E-04  1.8244989E-04
  -22.0000  1.8331029E-04  2.0571049E-04  1.9004085E-04
  -21.0000  1.9114444E-04  2.1422938E-04  1.9821901E-04
  -20.0000  1.9959509E-04  2.2342670E-04  2.0705229E-04
  -19.0000  2.0873448E-04  2.3338495E-04  2.1661924E-04
  -18.0000  2.1864631E-04  2.4420032E-04  2.2701121E-04
  -17.0000  2.2942808E-04  2.5598573E-04  2.3833498E-04
  -16.0000  2.4119398E-04  2.6887454E-04  2.5071617E-04
  -15.0000  2.5407862E-04  2.8302535E-04  2.6430349E-04
  -14.0000  2.6824175E-04  2.9862822E-04  2.7927421E-04
  -13.0000  2.8387428E-04  3.1591275E-04  2.9584136E-04
  -12.0000  3.0120629E-04  3.3515886E-04  3.1426301E-04
  -11.0000  3.2051741E-04  3.5671118E-04  3.3485478E-04
  -10.0000  3.4215090E-04  3.8099865E-04  3.5800658E-04
  -9.00000  3.6653267E-04  4.0856170E-04  3.8420566E-04
  -8.00000  3.9419761E-04  4.4009054E-04  4.1406872E-04
  -7.00000  4.2582674E-04  4.7648026E-04  4.4838759E-04
  -6.00000  4.6230077E-04  5.1891208E-04  4.8819580E-04
  -5.00000  5.0477938E-04  5.6897643E-04  5.3486806E-04
  -4.00000  5.5482208E-04  6.2886529E-04  5.9027356E-04
  -3.00000  6.1457943E-04  7.0168453E-04  6.5702102E-04
  -2.00000  6.8710919E-04  7.9198456E-04  7.3886765E-04
  -1.00000  7.7692900E-04  9.0671497E-04  8.4144021E-04
   0.00000  8.9105574E-04  1.0570720E-03  9.7359730E-04
   1.00000  1.0411643E-03  1.2624460E-03  1.1502551E-03
   2.00000  1.2487656E-03  1.5601368E-03  1.3990815E-03
   3.00000  1.5607356E-03  2.0350777E-03  1.7799790E-03
   4.00000  2.1164197E-03  2.9496075E-03  2.4650847E-03
   5.00000  3.4919773E-03  5.4123021E-03  4.1311900E-03
   5.20000  3.9161740E-03  6.1912839E-03  4.6472587E-03
   5.40000  4.3501195E-03  6.9914048E-03  5.1912070E-03
   5.60000  4.7848104E-03  7.7969656E-03  5.7650265E-03
   5.80000  5.2262543E-03  8.6200656E-03  6.3883806E-03
   6.00000  5.6854745E-03  9.4812489E-03  7.0860584E-03
   6.20000  6.1736838E-03  1.0400711E-02  7.8824703E-03
   6.40000  6.7012086E-03  1.1397016E-02  8.8003027E-03
   6.60000  7.2775835E-03  1.2488068E-02  9.8596458E-03
   6.80000  7.9118216E-03  1.3692329E-02  1.1076253E-02
   7.00000  8.6126986E-03  1.5029654E-02  1.2459001E-02
   7.20000  9.3892628E-03  1.6521543E-02  1.4007613E-02
   7.40000  1.0251820E-02  1.8190876E-02  1.5712244E-02
   7.60000  1.1213326E-02  2.0061645E-02  1.7555809E-02
   7.80000  1.2290541E-02  2.2159292E-02  1.9517495E-02
   8.00000  1.3504057E-02  2.4511436E-02  2.1573847E-02
   8.20000  1.4876803E-02  2.7147216E-02  2.3695173E-02
   8.40000  1.6431318E-02  3.0092759E-02  2.5839982E-02
   8.60000  1.8185983E-02  3.3361383E-02  2.7953535E-02
   8.80000  2.0150517E-02  3.6939319E-02  2.9974634E-02
   9.00000  2.2321214E-02  4.0769383E-02  3.1848648E-02
   9.20000  2.4675748E-02  4.4735867E-02  3.3539711E-02
   9.40000  2.7168020E-02  4.8656138E-02  3.5036199E-02
   9.60000  2.9725275E-02  5.2287160E-02  3.6348224E-02
   9.80000  3.2251098E-02  5.5354480E-02  3.7499673E-02
   10.0000  3.4636912E-02  5.7602713E-02  3.8518846E-02
   10.2500  3.7267442E-02  5.8998392E-02  3.9643303E-02
   10.5000  3.9373811E-02  5.8749998E-02  4.0624314E-02
   10.7500  4.0895259E-02  5.7052201E-02  4.1459265E-02
   11.0000  4.1851267E-02  5.4285853E-02  4.2127222E-02
   11.2500  4.2317882E-02  5.0881591E-02  4.2604271E-02
   11.5000  4.2401315E-02  4.7219962E-02  4.2872908E-02
   11.7500  4.2214587E-02  4.3586638E-02  4.2925768E-02
   12.0000  4.1860673E-02  4.0166379E-02  4.2769485E-02
   12.2500  4.1423297E-02  3.7058122E-02  4.2426903E-02
   12.5000  4.0964294E-02  3.4298642E-02  4.1934599E-02
   12.7500  4.0525259E-02  3.1885744E-02  4.1336697E-02
   13.0000  4.0131404E-02  2.9796240E-02  4.0678483E-02
   13.2500  3.9796324E-02  2.7997745E-02  4.0002531E-02
   13.5000  3.9526171E-02  2.6455647E-02  3.9346744E-02
   13.7500  3.9321998E-02  2.5137113E-02  3.8742775E-02
   14.0000  3.9180674E-02  2.4013069E-02  3.8214538E-02
   14.2500  3.9095602E-02  2.3058678E-02  3.7777410E-02
   14.5000  3.9057531E-02  2.2253001E-02  3.7438298E-02
   14.7500  3.9055279E-02  2.1578473E-02  3.7196320E-02
   15.0000  3.9076356E-02  2.1020382E-02  3.7043856E-02
   15.2500  3.9107607E-02  2.0566414E-02  3.6967834E-02
   15.5000  3.9135966E-02  2.0206248E-02  3.6951149E-02
   15.7500  3.9149309E-02  1.9931208E-02  3.6974162E-02
   16.0000  3.9137384E-02  1.9733966E-02  3.7016218E-02
   16.2500  3.9092743E-02  1.9608304E-02  3.7057130E-02
   16.5000  3.9011527E-02  1.9548898E-02  3.7078565E-02
   16.7500  3.8893954E-02  1.9551153E-02  3.7065227E-02
   17.0000  3.8744371E-02  1.9611053E-02  3.7005705E-02
   17.2500  3.8570800E-02  1.9725039E-02  3.6892909E-02
   17.5000  3.8383996E-02  1.9889898E-02  3.6724044E-02
   17.7500  3.8196157E-02  2.0102671E-02  3.6500155E-02
   18.0000  3.8019479E-02  2.0360579E-02  3.6225382E-02
   18.2500  3.7864773E-02  2.0660960E-02  3.5906050E-02
   18.5000  3.7740333E-02  2.1001229E-02  3.5549754E-02
   18.7500  3.7651171E-02  2.1378864E-02  3.5164545E-02
   19.0000  3.7598664E-02  2.1791418E-02  3.4758271E-02
   19.2500  3.7580584E-02  2.2236573E-02  3.4338096E-02
   19.5000  3.7591453E-02  2.2712208E-02  3.3910156E-02
   19.7500  3.7623056E-02  2.3216385E-02  3.3479425E-02
   20.0000  3.7664896E-02  2.3747104E-02  3.3049847E-02
   21.0000  3.7668776E-02  2.6069502E-02  3.1407498E-02
   22.0000  3.6843720E-02  2.8487607E-02  2.9985739E-02
   23.0000  3.4918215E-02  3.0666393E-02  2.8806422E-02
   24.0000  3.2252779E-02  3.2352921E-02  2.7808054E-02
   25.0000  2.9466384E-02  3.3419935E-02  2.6907862E-02
   26.0000  2.7023236E-02  3.3872258E-02  2.6056136E-02
   27.0000  2.5111596E-02  3.3818395E-02  2.5259948E-02
   28.0000  2.3726717E-02  3.3411180E-02  2.4565751E-02
   29.0000  2.2779014E-02  3.2797908E-02  2.4017712E-02
   30.0000  2.2158135E-02  3.2094001E-02  2.3625953E-02
   31.0000  2.1760182E-02  3.1375009E-02  2.3362571E-02
   32.0000  2.1496634E-02  3.0679060E-02  2.3176180E-02
   33.0000  2.1295199E-02  3.0014827E-02  2.3008301E-02
   34.0000  2.1098720E-02  2.9372361E-02  2.2804787E-02
   35.0000  2.0865554E-02  2.8733647E-02  2.2524412E-02
   36.0000  2.0572974E-02  2.8081000E-02  2.2148552E-02
   37.0000  2.0221694E-02  2.7404142E-02  2.1691300E-02
   38.0000  1.9837303E-02  2.6710338E-02  2.1202996E-02
   39.0000  1.9465473E-02  2.6040507E-02  2.0756264E-02
   40.0000  1.9157844E-02  2.5475854E-02  2.0410527E-02
