    Energy   (100,001)      (010,001)      (001,110)   
  -25.0000  1.6712489E-04  1.8902920E-04  1.8026396E-04
  -24.0000  1.7328987E-04  1.9595981E-04  1.8689677E-04
  -23.0000  1.7987654E-04  2.0337914E-04  1.9399173E-04
  -22.0000  1.8692801E-04  2.1133979E-04  2.0159757E-04
  -21.0000  1.9449337E-04  2.1990212E-04  2.0977006E-04
  -20.0000  2.0262873E-04  2.2913571E-04  2.1857328E-04
  -19.0000  2.1139852E-04  2.3912117E-04  2.2808125E-04
  -18.0000  2.2087708E-04  2.4995241E-04  2.3837990E-04
  -17.0000  2.3115063E-04  2.6173946E-04  2.4956957E-04
  -16.0000  2.4231971E-04  2.7461209E-04  2.6176818E-04
  -15.0000  2.5450229E-04  2.8872435E-04  2.7511520E-04
  -14.0000  2.6783765E-04  3.0426051E-04  2.8977687E-04
  -13.0000  2.8249144E-04  3.2144276E-04  3.0595288E-04
  -12.0000  2.9866219E-04  3.4054144E-04  3.2388530E-04
  -11.0000  3.1658989E-04  3.6188864E-04  3.4387048E-04
  -10.0000  3.3656740E-04  3.8589677E-04  3.6627529E-04
  -9.00000  3.5895587E-04  4.1308418E-04  3.9155949E-04
  -8.00000  3.8420598E-04  4.4411115E-04  4.2030758E-04
  -7.00000  4.1288771E-04  4.7983164E-04  4.5327462E-04
  -6.00000  4.4573305E-04  5.2136941E-04  4.9145451E-04
  -5.00000  4.8369881E-04  5.7023307E-04  5.3618457E-04
  -4.00000  5.2806196E-04  6.2849566E-04  5.8931186E-04
  -3.00000  5.8056961E-04  6.9908606E-04  6.5346966E-04
  -2.00000  6.4368559E-04  7.8628429E-04  7.3256256E-04
  -1.00000  7.2101953E-04  8.9661447E-04  8.3267673E-04
   0.00000  8.1812933E-04  1.0405817E-03  9.6394205E-04
   1.00000  9.4417796E-04  1.2364168E-03  1.1448012E-03
   2.00000  1.1158756E-03  1.5194330E-03  1.4134655E-03
   3.00000  1.3691495E-03  1.9713147E-03  1.8666196E-03
   4.00000  1.8085098E-03  2.8518641E-03  2.8456945E-03
   5.00000  2.8604537E-03  5.2881710E-03  5.9658813E-03
   5.20000  3.1893239E-03  6.0554514E-03  6.9956815E-03
   5.40000  3.5350624E-03  6.8292504E-03  8.0314162E-03
   5.60000  3.8921593E-03  7.5875013E-03  9.0260441E-03
   5.80000  4.2638635E-03  8.3363122E-03  9.9680155E-03
   6.00000  4.6560748E-03  9.0901457E-03  1.0852659E-02
   6.20000  5.0749862E-03  9.8642442E-03  1.1668031E-02
   6.40000  5.5270512E-03  1.0675085E-02  1.2392875E-02
   6.60000  6.0193283E-03  1.1542247E-02  1.3000316E-02
   6.80000  6.5595401E-03  1.2488849E-02  1.3466673E-02
   7.00000  7.1557218E-03  1.3539936E-02  1.3784759E-02
   7.20000  7.8154653E-03  1.4719712E-02  1.3975301E-02
   7.40000  8.5448430E-03  1.6049517E-02  1.4087856E-02
   7.60000  9.3473890E-03  1.7547688E-02  1.4189663E-02
   7.80000  1.0223930E-02  1.9230664E-02  1.4349668E-02
   8.00000  1.1173063E-02  2.1113655E-02  1.4625867E-02
   8.20000  1.2191020E-02  2.3209746E-02  1.5059035E-02
   8.40000  1.3271084E-02  2.5527362E-02  1.5671218E-02
   8.60000  1.4403749E-02  2.8066955E-02  1.6466610E-02
   8.80000  1.5578308E-02  3.0818043E-02  1.7434193E-02
   9.00000  1.6785748E-02  3.3757193E-02  1.8552806E-02
   9.20000  1.8021699E-02  3.6846864E-02  1.9797744E-02
   9.40000  1.9287540E-02  4.0034014E-02  2.1145581E-02
   9.60000  2.0588607E-02  4.3247474E-02  2.2575589E-02
   9.80000  2.1930337E-02  4.6394949E-02  2.4069446E-02
   10.0000  2.3314259E-02  4.9362069E-02  2.5609790E-02
   10.2500  2.5095083E-02  5.2614541E-02  2.7571591E-02
   10.5000  2.6907330E-02  5.5109072E-02  2.9533089E-02
   10.7500  2.8708545E-02  5.6619431E-02  3.1446595E-02
   11.0000  3.0442841E-02  5.7019814E-02  3.3265396E-02
   11.2500  3.2046774E-02  5.6319097E-02  3.4947446E-02
   11.5000  3.3460568E-02  5.4655514E-02  3.6455922E-02
   11.7500  3.4642757E-02  5.2254307E-02  3.7758713E-02
   12.0000  3.5580081E-02  4.9372183E-02  3.8830537E-02
   12.2500  3.6284378E-02  4.6253864E-02  3.9657249E-02
   12.5000  3.6781974E-02  4.3105108E-02  4.0237902E-02
   12.7500  3.7106939E-02  4.0077407E-02  4.0583349E-02
   13.0000  3.7297563E-02  3.7265518E-02  4.0713466E-02
   13.2500  3.7392541E-02  3.4716341E-02  4.0654829E-02
   13.5000  3.7427339E-02  3.2442823E-02  4.0439443E-02
   13.7500  3.7431728E-02  3.0437176E-02  4.0103459E-02
   14.0000  3.7428568E-02  2.8680611E-02  3.9684680E-02
   14.2500  3.7433511E-02  2.7149568E-02  3.9219453E-02
   14.5000  3.7455358E-02  2.5819470E-02  3.8740101E-02
   14.7500  3.7496866E-02  2.4666859E-02  3.8273240E-02
   15.0000  3.7555821E-02  2.3670448E-02  3.7838966E-02
   15.2500  3.7626281E-02  2.2811537E-02  3.7450732E-02
   15.5000  3.7699883E-02  2.2074029E-02  3.7115723E-02
   15.7500  3.7767161E-02  2.1444264E-02  3.6835580E-02
   16.0000  3.7818829E-02  2.0910758E-02  3.6607316E-02
   16.2500  3.7846987E-02  2.0463905E-02  3.6424362E-02
   16.5000  3.7846198E-02  2.0095692E-02  3.6277677E-02
   16.7500  3.7814339E-02  1.9799435E-02  3.6156883E-02
   17.0000  3.7753112E-02  1.9569538E-02  3.6051369E-02
   17.2500  3.7668135E-02  1.9401292E-02  3.5951301E-02
   17.5000  3.7568538E-02  1.9290709E-02  3.5848462E-02
   17.7500  3.7466117E-02  1.9234379E-02  3.5736816E-02
   18.0000  3.7374135E-02  1.9229358E-02  3.5612783E-02
   18.2500  3.7305977E-02  1.9273081E-02  3.5475193E-02
   18.5000  3.7273853E-02  1.9363295E-02  3.5324979E-02
   18.7500  3.7287720E-02  1.9498015E-02  3.5164691E-02
   19.0000  3.7354548E-02  1.9675512E-02  3.4997915E-02
   19.2500  3.7477948E-02  1.9894313E-02  3.4828686E-02
   19.5000  3.7658116E-02  2.0153221E-02  3.4660964E-02
   19.7500  3.7891940E-02  2.0451284E-02  3.4498224E-02
   20.0000  3.8173022E-02  2.0787621E-02  3.4343231E-02
   21.0000  3.9533666E-02  2.2487843E-02  3.3832807E-02
   22.0000  4.0569278E-02  2.4676911E-02  3.3493233E-02
   23.0000  4.0479699E-02  2.7217170E-02  3.3196618E-02
   24.0000  3.9007282E-02  2.9871945E-02  3.2765521E-02
   25.0000  3.6535190E-02  3.2307269E-02  3.2076766E-02
   26.0000  3.3736180E-02  3.4191937E-02  3.1114053E-02
   27.0000  3.1148448E-02  3.5337373E-02  2.9962435E-02
   28.0000  2.9003737E-02  3.5757211E-02  2.8764320E-02
   29.0000  2.7308850E-02  3.5613314E-02  2.7675619E-02
   30.0000  2.5998517E-02  3.5115394E-02  2.6822086E-02
   31.0000  2.5000402E-02  3.4430750E-02  2.6247793E-02
   32.0000  2.4253280E-02  3.3664419E-02  2.5926758E-02
   33.0000  2.3699456E-02  3.2872089E-02  2.5791834E-02
   34.0000  2.3279436E-02  3.2074652E-02  2.5756812E-02
   35.0000  2.2937657E-02  3.1271833E-02  2.5736157E-02
   36.0000  2.2629465E-02  3.0455589E-02  2.5660439E-02
   37.0000  2.2326103E-02  2.9623617E-02  2.5487645E-02
   38.0000  2.2018709E-02  2.8793147E-02  2.5212098E-02
   39.0000  2.1721223E-02  2.8014576E-02  2.4872379E-02
   40.0000  2.1466952E-02  2.7373053E-02  2.4549813E-02
