    Energy   (100,001)      (010,001)      (001,110)   
  -25.0000  1.7260610E-04  1.7245299E-04  1.7301681E-04
  -24.0000  1.7897933E-04  1.7936114E-04  1.7966439E-04
  -23.0000  1.8579308E-04  1.8678586E-04  1.8678963E-04
  -22.0000  1.9309305E-04  1.9478512E-04  1.9444412E-04
  -21.0000  2.0093135E-04  2.0342575E-04  2.0268703E-04
  -20.0000  2.0936771E-04  2.1278509E-04  2.1158654E-04
  -19.0000  2.1847083E-04  2.2295320E-04  2.2122161E-04
  -18.0000  2.2832015E-04  2.3403549E-04  2.3168418E-04
  -17.0000  2.3900805E-04  2.4615608E-04  2.4308191E-04
  -16.0000  2.5064248E-04  2.5946213E-04  2.5554172E-04
  -15.0000  2.6335044E-04  2.7412932E-04  2.6921419E-04
  -14.0000  2.7728227E-04  2.9036900E-04  2.8427939E-04
  -13.0000  2.9261729E-04  3.0843759E-04  3.0095440E-04
  -12.0000  3.0957101E-04  3.2864908E-04  3.1950328E-04
  -11.0000  3.2840473E-04  3.5139181E-04  3.4025051E-04
  -10.0000  3.4943827E-04  3.7715150E-04  3.6359926E-04
  -9.00000  3.7306729E-04  4.0654330E-04  3.9005680E-04
  -8.00000  3.9978707E-04  4.4035713E-04  4.2027046E-04
  -7.00000  4.3022594E-04  4.7962334E-04  4.5507972E-04
  -6.00000  4.6519327E-04  5.2571004E-04  4.9559371E-04
  -5.00000  5.0574996E-04  5.8047136E-04  5.4330983E-04
  -4.00000  5.5331538E-04  6.4648044E-04  6.0030215E-04
  -3.00000  6.0983507E-04  7.2740998E-04  6.6953327E-04
  -2.00000  6.7805548E-04  8.2868210E-04  7.5539792E-04
  -1.00000  7.6199902E-04  9.5864252E-04  8.6473287E-04
   0.00000  8.6784547E-04  1.1308400E-03  1.0088533E-03
   1.00000  1.0057337E-03  1.3688985E-03  1.2081290E-03
   2.00000  1.1940027E-03  1.7184606E-03  1.5039538E-03
   3.00000  1.4716487E-03  2.2833546E-03  1.9979779E-03
   4.00000  1.9511015E-03  3.3807758E-03  3.0356111E-03
   5.00000  3.0859977E-03  6.3289112E-03  6.1670605E-03
   5.20000  3.4319454E-03  7.2628446E-03  7.1533025E-03
   5.40000  3.7872080E-03  8.2305280E-03  8.1326215E-03
   5.60000  4.1451117E-03  9.2208811E-03  9.0915274E-03
   5.80000  4.5107097E-03  1.0256980E-02  1.0063879E-02
   6.00000  4.8932140E-03  1.1372307E-02  1.1091985E-02
   6.20000  5.3024673E-03  1.2599689E-02  1.2206319E-02
   6.40000  5.7482701E-03  1.3969081E-02  1.3418180E-02
   6.60000  6.2405489E-03  1.5508130E-02  1.4716906E-02
   6.80000  6.7896535E-03  1.7243559E-02  1.6070196E-02
   7.00000  7.4065961E-03  1.9202973E-02  1.7428924E-02
   7.20000  8.1031585E-03  2.1416512E-02  1.8736449E-02
   7.40000  8.8918554E-03  2.3917143E-02  1.9939197E-02
   7.60000  9.7857803E-03  2.6738014E-02  2.0994695E-02
   7.80000  1.0798366E-02  2.9905778E-02  2.1876804E-02
   8.00000  1.1943009E-02  3.3430666E-02  2.2580666E-02
   8.20000  1.3232301E-02  3.7295632E-02  2.3127726E-02
   8.40000  1.4676661E-02  4.1447138E-02  2.3565676E-02
   8.60000  1.6282712E-02  4.5789004E-02  2.3958161E-02
   8.80000  1.8052044E-02  5.0178513E-02  2.4367782E-02
   9.00000  1.9980267E-02  5.4423377E-02  2.4842863E-02
   9.20000  2.2055411E-02  5.8282340E-02  2.5413912E-02
   9.40000  2.4254847E-02  6.1479500E-02  2.6096631E-02
   9.60000  2.6541169E-02  6.3743509E-02  2.6895446E-02
   9.80000  2.8859097E-02  6.4868698E-02  2.7805133E-02
   10.0000  3.1136472E-02  6.4773680E-02  2.8811350E-02
   10.2500  3.3801776E-02  6.3053515E-02  3.0169441E-02
   10.5000  3.6127872E-02  5.9927766E-02  3.1584534E-02
   10.7500  3.8012472E-02  5.5909956E-02  3.2995555E-02
   11.0000  3.9416750E-02  5.1483174E-02  3.4349568E-02
   11.2500  4.0362002E-02  4.7021893E-02  3.5606218E-02
   11.5000  4.0913736E-02  4.2780080E-02  3.6734784E-02
   11.7500  4.1160778E-02  3.8908938E-02  3.7709244E-02
   12.0000  4.1194572E-02  3.5480645E-02  3.8508511E-02
   12.2500  4.1094498E-02  3.2510556E-02  3.9121113E-02
   12.5000  4.0923520E-02  2.9977303E-02  3.9547543E-02
   12.7500  4.0728977E-02  2.7839634E-02  3.9799234E-02
   13.0000  4.0543233E-02  2.6048774E-02  3.9896448E-02
   13.2500  4.0384595E-02  2.4556245E-02  3.9866194E-02
   13.5000  4.0259465E-02  2.3317763E-02  3.9739471E-02
   13.7500  4.0165063E-02  2.2294641E-02  3.9547453E-02
   14.0000  4.0091897E-02  2.1453976E-02  3.9318122E-02
   14.2500  4.0025922E-02  2.0768335E-02  3.9074157E-02
   14.5000  3.9950473E-02  2.0215169E-02  3.8831573E-02
   14.7500  3.9847942E-02  1.9776108E-02  3.8599052E-02
   15.0000  3.9701185E-02  1.9436277E-02  3.8378200E-02
   15.2500  3.9494822E-02  1.9183673E-02  3.8164638E-02
   15.5000  3.9216509E-02  1.9008617E-02  3.7949715E-02
   15.7500  3.8858169E-02  1.8903278E-02  3.7722579E-02
   16.0000  3.8417019E-02  1.8861255E-02  3.7472342E-02
   16.2500  3.7896217E-02  1.8877238E-02  3.7190053E-02
   16.5000  3.7304946E-02  1.8946718E-02  3.6870190E-02
   16.7500  3.6657843E-02  1.9065767E-02  3.6511467E-02
   17.0000  3.5973834E-02  1.9230869E-02  3.6116874E-02
   17.2500  3.5274513E-02  1.9438803E-02  3.5693039E-02
   17.5000  3.4582322E-02  1.9686564E-02  3.5249133E-02
   17.7500  3.3918810E-02  1.9971319E-02  3.4795596E-02
   18.0000  3.3303173E-02  2.0290394E-02  3.4342941E-02
   18.2500  3.2751241E-02  2.0641260E-02  3.3900803E-02
   18.5000  3.2274934E-02  2.1021543E-02  3.3477323E-02
   18.7500  3.1882166E-02  2.1429035E-02  3.3078836E-02
   19.0000  3.1577075E-02  2.1861733E-02  3.2709814E-02
   19.2500  3.1360480E-02  2.2317896E-02  3.2372977E-02
   19.5000  3.1230432E-02  2.2796119E-02  3.2069479E-02
   19.7500  3.1182709E-02  2.3295323E-02  3.1799147E-02
   20.0000  3.1211144E-02  2.3814537E-02  3.1560760E-02
   21.0000  3.1908044E-02  2.6055163E-02  3.0883682E-02
   22.0000  3.3034329E-02  2.8440058E-02  3.0518408E-02
   23.0000  3.3891611E-02  3.0762236E-02  3.0262304E-02
   24.0000  3.3944850E-02  3.2719814E-02  2.9929950E-02
   25.0000  3.3113213E-02  3.4009680E-02  2.9419068E-02
   26.0000  3.1759435E-02  3.4482453E-02  2.8752666E-02
   27.0000  3.0312618E-02  3.4205351E-02  2.8056706E-02
   28.0000  2.9008756E-02  3.3392309E-02  2.7473773E-02
   29.0000  2.7918336E-02  3.2273105E-02  2.7071087E-02
   30.0000  2.7047167E-02  3.1022504E-02  2.6829487E-02
   31.0000  2.6369068E-02  2.9748363E-02  2.6676264E-02
   32.0000  2.5834746E-02  2.8504185E-02  2.6522897E-02
   33.0000  2.5389353E-02  2.7308612E-02  2.6293600E-02
   34.0000  2.4989005E-02  2.6163315E-02  2.5939537E-02
   35.0000  2.4607556E-02  2.5066430E-02  2.5442224E-02
   36.0000  2.4233461E-02  2.4021362E-02  2.4812222E-02
   37.0000  2.3862278E-02  2.3041769E-02  2.4087111E-02
   38.0000  2.3494020E-02  2.2153353E-02  2.3330141E-02
   39.0000  2.3141657E-02  2.1393305E-02  2.2625918E-02
   40.0000  2.2841239E-02  2.0803373E-02  2.2061221E-02
