    Energy   (100,001)      (010,001)      (001,110)   
  -25.0000  1.6252438E-04  1.8246150E-04  1.7921452E-04
  -24.0000  1.6860629E-04  1.8939905E-04  1.8592241E-04
  -23.0000  1.7510629E-04  1.9683713E-04  1.9310330E-04
  -22.0000  1.8206712E-04  2.0483042E-04  2.0080749E-04
  -21.0000  1.8953741E-04  2.1344175E-04  2.0909251E-04
  -20.0000  1.9757272E-04  2.2274367E-04  2.1802451E-04
  -19.0000  2.0623685E-04  2.3282033E-04  2.2767996E-04
  -18.0000  2.1560332E-04  2.4376992E-04  2.3814765E-04
  -17.0000  2.2575740E-04  2.5570767E-04  2.4953130E-04
  -16.0000  2.3679845E-04  2.6876967E-04  2.6195282E-04
  -15.0000  2.4884294E-04  2.8311777E-04  2.7555645E-04
  -14.0000  2.6202834E-04  2.9894589E-04  2.9051410E-04
  -13.0000  2.7651802E-04  3.1648829E-04  3.0703228E-04
  -12.0000  2.9250760E-04  3.3603047E-04  3.2536124E-04
  -11.0000  3.1023342E-04  3.5792388E-04  3.4580721E-04
  -10.0000  3.2998369E-04  3.8260581E-04  3.6874900E-04
  -9.00000  3.5211361E-04  4.1062703E-04  3.9466086E-04
  -8.00000  3.7706631E-04  4.4269063E-04  4.2414478E-04
  -7.00000  4.0540214E-04  4.7970804E-04  4.5797691E-04
  -6.00000  4.3784099E-04  5.2288142E-04  4.9717619E-04
  -5.00000  4.7532489E-04  5.7382849E-04  5.4310891E-04
  -4.00000  5.1911383E-04  6.3477765E-04  5.9765369E-04
  -3.00000  5.7093827E-04  7.0888471E-04  6.6347331E-04
  -2.00000  6.3325444E-04  8.0077132E-04  7.4448697E-04
  -1.00000  7.0969869E-04  9.1749414E-04  8.4674648E-04
   0.00000  8.0596554E-04  1.0704233E-03  9.8020766E-04
   1.00000  9.3170164E-04  1.2792639E-03  1.1627448E-03
   2.00000  1.1052815E-03  1.5819749E-03  1.4308249E-03
   3.00000  1.3690060E-03  2.0651723E-03  1.8754258E-03
   4.00000  1.8586132E-03  2.9967457E-03  2.8156268E-03
   5.00000  3.1846103E-03  5.5128555E-03  5.7827389E-03
   5.20000  3.6171326E-03  6.3168139E-03  6.7680475E-03
   5.40000  4.0644930E-03  7.1507197E-03  7.7362048E-03
   5.60000  4.5035744E-03  7.9984306E-03  8.5901408E-03
   5.80000  4.9186504E-03  8.8698426E-03  9.2661363E-03
   6.00000  5.2998036E-03  9.7838442E-03  9.7487045E-03
   6.20000  5.6470966E-03  1.0761738E-02  1.0080640E-02
   6.40000  5.9721779E-03  1.1825136E-02  1.0347013E-02
   6.60000  6.2934447E-03  1.2992748E-02  1.0641359E-02
   6.80000  6.6291229E-03  1.4276743E-02  1.1039906E-02
   7.00000  6.9930565E-03  1.5680950E-02  1.1594198E-02
   7.20000  7.3940216E-03  1.7201963E-02  1.2334399E-02
   7.40000  7.8370645E-03  1.8832799E-02  1.3273291E-02
   7.60000  8.3254409E-03  2.0568216E-02  1.4406952E-02
   7.80000  8.8624900E-03  2.2411039E-02  1.5713273E-02
   8.00000  9.4531619E-03  2.4378058E-02  1.7151830E-02
   8.20000  1.0104915E-02  2.6502928E-02  1.8668783E-02
   8.40000  1.0827736E-02  2.8833462E-02  2.0207803E-02
   8.60000  1.1633302E-02  3.1422308E-02  2.1723341E-02
   8.80000  1.2533594E-02  3.4312254E-02  2.3189250E-02
   9.00000  1.3539368E-02  3.7518773E-02  2.4597918E-02
   9.20000  1.4658712E-02  4.1012276E-02  2.5951532E-02
   9.40000  1.5895746E-02  4.4702661E-02  2.7252095E-02
   9.60000  1.7249677E-02  4.8431717E-02  2.8496228E-02
   9.80000  1.8714400E-02  5.1981167E-02  2.9676084E-02
   10.0000  2.0278127E-02  5.5100128E-02  3.0783258E-02
   10.2500  2.2343071E-02  5.8031156E-02  3.2056559E-02
   10.5000  2.4478729E-02  5.9582577E-02  3.3204587E-02
   10.7500  2.6607335E-02  5.9656577E-02  3.4234101E-02
   11.0000  2.8630582E-02  5.8397850E-02  3.5160993E-02
   11.2500  3.0445982E-02  5.6114524E-02  3.6007111E-02
   11.5000  3.1974131E-02  5.3168695E-02  3.6792622E-02
   11.7500  3.3180871E-02  4.9888949E-02  3.7527561E-02
   12.0000  3.4080725E-02  4.6529365E-02  3.8211114E-02
   12.2500  3.4724228E-02  4.3265991E-02  3.8836174E-02
   12.5000  3.5179053E-02  4.0208093E-02  3.9392304E-02
   12.7500  3.5512509E-02  3.7412736E-02  3.9866716E-02
   13.0000  3.5780436E-02  3.4899806E-02  4.0246283E-02
   13.2500  3.6024552E-02  3.2665858E-02  4.0522624E-02
   13.5000  3.6274993E-02  3.0695016E-02  4.0697130E-02
   13.7500  3.6552964E-02  2.8965816E-02  4.0781248E-02
   14.0000  3.6872377E-02  2.7454993E-02  4.0793101E-02
   14.2500  3.7241252E-02  2.6139656E-02  4.0753567E-02
   14.5000  3.7662983E-02  2.4998509E-02  4.0683066E-02
   14.7500  3.8137276E-02  2.4012422E-02  4.0599156E-02
   15.0000  3.8660773E-02  2.3164566E-02  4.0514930E-02
   15.2500  3.9227451E-02  2.2440313E-02  4.0438151E-02
   15.5000  3.9828903E-02  2.1827024E-02  4.0371067E-02
   15.7500  4.0454608E-02  2.1313787E-02  4.0310829E-02
   16.0000  4.1092262E-02  2.0891168E-02  4.0250417E-02
   16.2500  4.1728208E-02  2.0550986E-02  4.0179960E-02
   16.5000  4.2347997E-02  2.0286122E-02  4.0088269E-02
   16.7500  4.2937064E-02  2.0090360E-02  3.9964405E-02
   17.0000  4.3481496E-02  1.9958262E-02  3.9799056E-02
   17.2500  4.3968835E-02  1.9885081E-02  3.9585573E-02
   17.5000  4.4388839E-02  1.9866673E-02  3.9320541E-02
   17.7500  4.4734096E-02  1.9899447E-02  3.9003871E-02
   18.0000  4.5000410E-02  1.9980301E-02  3.8638489E-02
   18.2500  4.5186882E-02  2.0106578E-02  3.8229731E-02
   18.5000  4.5295656E-02  2.0276004E-02  3.7784600E-02
   18.7500  4.5331374E-02  2.0486645E-02  3.7310998E-02
   19.0000  4.5300391E-02  2.0736859E-02  3.6817024E-02
   19.2500  4.5209878E-02  2.1025283E-02  3.6310374E-02
   19.5000  4.5066943E-02  2.1350814E-02  3.5797866E-02
   19.7500  4.4877887E-02  2.1712544E-02  3.5285170E-02
   20.0000  4.4647783E-02  2.2109537E-02  3.4776877E-02
   21.0000  4.3375512E-02  2.4013906E-02  3.2863860E-02
   22.0000  4.1555660E-02  2.6304476E-02  3.1254537E-02
   23.0000  3.9133222E-02  2.8766179E-02  2.9961210E-02
   24.0000  3.6222649E-02  3.1076400E-02  2.8919793E-02
   25.0000  3.3174584E-02  3.2886715E-02  2.8059030E-02
   26.0000  3.0334257E-02  3.4028061E-02  2.7330218E-02
   27.0000  2.7931604E-02  3.4515341E-02  2.6716425E-02
   28.0000  2.6061517E-02  3.4473898E-02  2.6225597E-02
   29.0000  2.4704464E-02  3.4068489E-02  2.5874421E-02
   30.0000  2.3774039E-02  3.3447014E-02  2.5668841E-02
   31.0000  2.3159253E-02  3.2713560E-02  2.5591368E-02
   32.0000  2.2750792E-02  3.1926135E-02  2.5602280E-02
   33.0000  2.2453892E-02  3.1106397E-02  2.5649762E-02
   34.0000  2.2193525E-02  3.0253293E-02  2.5679964E-02
   35.0000  2.1916394E-02  2.9357271E-02  2.5642815E-02
   36.0000  2.1592688E-02  2.8413062E-02  2.5496663E-02
   37.0000  2.1218310E-02  2.7430677E-02  2.5216981E-02
   38.0000  2.0815265E-02  2.6445286E-02  2.4810918E-02
   39.0000  2.0426858E-02  2.5526251E-02  2.4334410E-02
   40.0000  2.0104264E-02  2.4773862E-02  2.3893981E-02
