    Energy   (100,001)      (010,001)      (001,110)   
  -25.0000  1.6686269E-04  1.8126205E-04  1.7528535E-04
  -24.0000  1.7284397E-04  1.8829070E-04  1.8158777E-04
  -23.0000  1.7922311E-04  1.9583452E-04  1.8831589E-04
  -22.0000  1.8603970E-04  2.0395054E-04  1.9551301E-04
  -21.0000  1.9333866E-04  2.1270443E-04  2.0322848E-04
  -20.0000  2.0117120E-04  2.2217210E-04  2.1151866E-04
  -19.0000  2.0959590E-04  2.3244178E-04  2.2044832E-04
  -18.0000  2.1868009E-04  2.4361659E-04  2.3009219E-04
  -17.0000  2.2850156E-04  2.5581781E-04  2.4053697E-04
  -16.0000  2.3915064E-04  2.6918896E-04  2.5188382E-04
  -15.0000  2.5073285E-04  2.8390112E-04  2.6425147E-04
  -14.0000  2.6337216E-04  3.0015973E-04  2.7778024E-04
  -13.0000  2.7721528E-04  3.1821363E-04  2.9263713E-04
  -12.0000  2.9243711E-04  3.3836694E-04  3.0902254E-04
  -11.0000  3.0924779E-04  3.6099510E-04  3.2717902E-04
  -10.0000  3.2790221E-04  3.8656681E-04  3.4740308E-04
  -9.00000  3.4871255E-04  4.1567448E-04  3.7006112E-04
  -8.00000  3.7206563E-04  4.4907736E-04  3.9561156E-04
  -7.00000  3.9844686E-04  4.8776392E-04  4.2463607E-04
  -6.00000  4.2847441E-04  5.3304427E-04  4.5788468E-04
  -5.00000  4.6294920E-04  5.8669119E-04  4.9634287E-04
  -4.00000  5.0293001E-04  6.5116206E-04  5.4133472E-04
  -3.00000  5.4985099E-04  7.2996275E-04  5.9468773E-04
  -2.00000  6.0571405E-04  8.2827277E-04  6.5900952E-04
  -1.00000  6.7342276E-04  9.5408584E-04  7.3818211E-04
   0.00000  7.5740863E-04  1.1204576E-03  8.3831888E-04
   1.00000  8.6493796E-04  1.3504202E-03  9.6983222E-04
   2.00000  1.0092928E-03  1.6894464E-03  1.1526557E-03
   3.00000  1.2195839E-03  2.2450500E-03  1.4329483E-03
   4.00000  1.5849374E-03  3.3673181E-03  1.9606393E-03
   5.00000  2.4797815E-03  6.5964435E-03  3.3905289E-03
   5.20000  2.7447480E-03  7.6164532E-03  3.8214722E-03
   5.40000  3.0061418E-03  8.6367127E-03  4.2398840E-03
   5.60000  3.2604615E-03  9.6277262E-03  4.6377592E-03
   5.80000  3.5156941E-03  1.0601542E-02  5.0280875E-03
   6.00000  3.7818812E-03  1.1582235E-02  5.4280633E-03
   6.20000  4.0668631E-03  1.2592652E-02  5.8515138E-03
   6.40000  4.3755431E-03  1.3652737E-02  6.3076017E-03
   6.60000  4.7103522E-03  1.4781265E-02  6.8013165E-03
   6.80000  5.0721447E-03  1.5997670E-02  7.3341691E-03
   7.00000  5.4612937E-03  1.7323035E-02  7.9049137E-03
   7.20000  5.8787219E-03  1.8780365E-02  8.5104514E-03
   7.40000  6.3265855E-03  2.0394753E-02  9.1470424E-03
   7.60000  6.8084448E-03  2.2193764E-02  9.8117866E-03
   7.80000  7.3289690E-03  2.4207760E-02  1.0504085E-02
   8.00000  7.8934737E-03  2.6469564E-02  1.1226681E-02
   8.20000  8.5075864E-03  2.9012543E-02  1.1985892E-02
   8.40000  9.1771267E-03  3.1866204E-02  1.2790831E-02
   8.60000  9.9080963E-03  3.5049042E-02  1.3651724E-02
   8.80000  1.0706628E-02  3.8558999E-02  1.4577849E-02
   9.00000  1.1578814E-02  4.2362215E-02  1.5575787E-02
   9.20000  1.2530399E-02  4.6381097E-02  1.6648473E-02
   9.40000  1.3566359E-02  5.0483956E-02  1.7795169E-02
   9.60000  1.4690356E-02  5.4480526E-02  1.9012176E-02
   9.80000  1.5904033E-02  5.8129612E-02  2.0293972E-02
   10.0000  1.7205991E-02  6.1163931E-02  2.1634327E-02
   10.2500  1.8947850E-02  6.3712474E-02  2.3381800E-02
   10.5000  2.0791439E-02  6.4564847E-02  2.5193429E-02
   10.7500  2.2690581E-02  6.3642989E-02  2.7045065E-02
   11.0000  2.4579494E-02  6.1164417E-02  2.8902982E-02
   11.2500  2.6379671E-02  5.7560306E-02  3.0721231E-02
   11.5000  2.8013348E-02  5.3332688E-02  3.2441007E-02
   11.7500  2.9420447E-02  4.8928066E-02  3.3995607E-02
   12.0000  3.0572935E-02  4.4670986E-02  3.5320604E-02
   12.2500  3.1480540E-02  4.0754583E-02  3.6366225E-02
   12.5000  3.2185268E-02  3.7265070E-02  3.7108767E-02
   12.7500  3.2746965E-02  3.4218332E-02  3.7557549E-02
   13.0000  3.3227383E-02  3.1592119E-02  3.7753399E-02
   13.2500  3.3679857E-02  2.9346820E-02  3.7758703E-02
   13.5000  3.4145047E-02  2.7437299E-02  3.7643949E-02
   13.7500  3.4650265E-02  2.5819449E-02  3.7476165E-02
   14.0000  3.5210689E-02  2.4453195E-02  3.7311989E-02
   14.2500  3.5831241E-02  2.3303387E-02  3.7194937E-02
   14.5000  3.6508385E-02  2.2339796E-02  3.7155240E-02
   14.7500  3.7231543E-02  2.1536765E-02  3.7210900E-02
   15.0000  3.7984206E-02  2.0872733E-02  3.7369141E-02
   15.2500  3.8744948E-02  2.0329704E-02  3.7627772E-02
   15.5000  3.9488601E-02  1.9892731E-02  3.7976325E-02
   15.7500  4.0187783E-02  1.9549437E-02  3.8397044E-02
   16.0000  4.0814828E-02  1.9289577E-02  3.8865932E-02
   16.2500  4.1343992E-02  1.9104658E-02  3.9354130E-02
   16.5000  4.1753703E-02  1.8987605E-02  3.9829804E-02
   16.7500  4.2028509E-02  1.8932481E-02  4.0260612E-02
   17.0000  4.2160460E-02  1.8934247E-02  4.0616576E-02
   17.2500  4.2149733E-02  1.8988568E-02  4.0872995E-02
   17.5000  4.2004450E-02  1.9091653E-02  4.1012868E-02
   17.7500  4.1739777E-02  1.9240141E-02  4.1028360E-02
   18.0000  4.1376456E-02  1.9431012E-02  4.0920990E-02
   18.2500  4.0938991E-02  1.9661527E-02  4.0700571E-02
   18.5000  4.0453702E-02  1.9929197E-02  4.0383193E-02
   18.7500  3.9946855E-02  2.0231765E-02  3.9988721E-02
   19.0000  3.9443026E-02  2.0567223E-02  3.9538289E-02
   19.2500  3.8963792E-02  2.0933842E-02  3.9052157E-02
   19.5000  3.8526798E-02  2.1330222E-02  3.8548112E-02
   19.7500  3.8145237E-02  2.1755269E-02  3.8040557E-02
   20.0000  3.7827821E-02  2.2207990E-02  3.7540387E-02
   21.0000  3.7253755E-02  2.4261569E-02  3.5746594E-02
   22.0000  3.7645553E-02  2.6601859E-02  3.4397794E-02
   23.0000  3.8474038E-02  2.9060475E-02  3.3416760E-02
   24.0000  3.9047205E-02  3.1376875E-02  3.2645891E-02
   25.0000  3.8756541E-02  3.3231655E-02  3.1946869E-02
   26.0000  3.7374645E-02  3.4372682E-02  3.1243847E-02
   27.0000  3.5207372E-02  3.4741351E-02  3.0539968E-02
   28.0000  3.2804306E-02  3.4480096E-02  2.9877577E-02
   29.0000  3.0611616E-02  3.3811869E-02  2.9304141E-02
   30.0000  2.8838501E-02  3.2933627E-02  2.8846886E-02
   31.0000  2.7503555E-02  3.1976343E-02  2.8501959E-02
   32.0000  2.6530538E-02  3.1007433E-02  2.8239673E-02
   33.0000  2.5817199E-02  3.0049336E-02  2.8015033E-02
   34.0000  2.5268383E-02  2.9099902E-02  2.7777515E-02
   35.0000  2.4806916E-02  2.8149006E-02  2.7478859E-02
   36.0000  2.4374991E-02  2.7190112E-02  2.7080357E-02
   37.0000  2.3934203E-02  2.6228554E-02  2.6562189E-02
   38.0000  2.3470122E-02  2.5289490E-02  2.5937105E-02
   39.0000  2.3003582E-02  2.4427441E-02  2.5268233E-02
   40.0000  2.2595372E-02  2.3725935E-02  2.4673767E-02
