    Energy   (100,001)      (010,001)      (001,110)   
  -25.0000  1.6676892E-04  1.7338990E-04  1.6932881E-04
  -24.0000  1.7287664E-04  1.8028384E-04  1.7561631E-04
  -23.0000  1.7939969E-04  1.8768917E-04  1.8233827E-04
  -22.0000  1.8638034E-04  1.9566283E-04  1.8953965E-04
  -21.0000  1.9386671E-04  2.0427034E-04  1.9727176E-04
  -20.0000  2.0191374E-04  2.1358749E-04  2.0559333E-04
  -19.0000  2.1058454E-04  2.2370240E-04  2.1457197E-04
  -18.0000  2.1995185E-04  2.3471805E-04  2.2428582E-04
  -17.0000  2.3010003E-04  2.4675560E-04  2.3482574E-04
  -16.0000  2.4112739E-04  2.5995843E-04  2.4629796E-04
  -15.0000  2.5314921E-04  2.7449747E-04  2.5882745E-04
  -14.0000  2.6630156E-04  2.9057800E-04  2.7256220E-04
  -13.0000  2.8074619E-04  3.0844866E-04  2.8767883E-04
  -12.0000  2.9667688E-04  3.2841329E-04  3.0438979E-04
  -11.0000  3.1432778E-04  3.5084698E-04  3.2295291E-04
  -10.0000  3.3398453E-04  3.7621790E-04  3.4368426E-04
  -9.00000  3.5599929E-04  4.0511758E-04  3.6697562E-04
  -8.00000  3.8081152E-04  4.3830384E-04  3.9331866E-04
  -7.00000  4.0897704E-04  4.7676275E-04  4.2333925E-04
  -6.00000  4.4120996E-04  5.2180022E-04  4.5784714E-04
  -5.00000  4.7844458E-04  5.7518146E-04  4.9790991E-04
  -4.00000  5.2192981E-04  6.3934985E-04  5.4496667E-04
  -3.00000  5.7337894E-04  7.1778433E-04  6.0100967E-04
  -2.00000  6.3521874E-04  8.1561022E-04  6.6888830E-04
  -1.00000  7.1102971E-04  9.4070597E-04  7.5284829E-04
   0.00000  8.0638863E-04  1.1058634E-03  8.5956346E-04
   1.00000  9.3066548E-04  1.3334506E-03  1.0003195E-03
   2.00000  1.1015016E-03  1.6670333E-03  1.1963496E-03
   3.00000  1.3589503E-03  2.2074850E-03  1.4950478E-03
   4.00000  1.8304370E-03  3.2735710E-03  2.0400247E-03
   5.00000  3.0664654E-03  6.2286947E-03  3.4333338E-03
   5.20000  3.4380111E-03  7.1542956E-03  3.8758801E-03
   5.40000  3.8006624E-03  8.0876933E-03  4.3399763E-03
   5.60000  4.1468592E-03  9.0103391E-03  4.8192146E-03
   5.80000  4.4870733E-03  9.9422116E-03  5.3203659E-03
   6.00000  4.8364502E-03  1.0915165E-02  5.8533683E-03
   6.20000  5.2076869E-03  1.1960709E-02  6.4269726E-03
   6.40000  5.6083176E-03  1.3107728E-02  7.0484182E-03
   6.60000  6.0401941E-03  1.4382892E-02  7.7241228E-03
   6.80000  6.5011339E-03  1.5811024E-02  8.4599284E-03
   7.00000  6.9883375E-03  1.7414530E-02  9.2605728E-03
   7.20000  7.5017749E-03  1.9211654E-02  1.0128885E-02
   7.40000  8.0457358E-03  2.1213837E-02  1.1065468E-02
   7.60000  8.6282473E-03  2.3423448E-02  1.2068988E-02
   7.80000  9.2593474E-03  2.5834370E-02  1.3136296E-02
   8.00000  9.9493418E-03  2.8438159E-02  1.4261414E-02
   8.20000  1.0707661E-02  3.1235565E-02  1.5433211E-02
   8.40000  1.1542412E-02  3.4246959E-02  1.6632699E-02
   8.60000  1.2460309E-02  3.7510482E-02  1.7831819E-02
   8.80000  1.3466456E-02  4.1060705E-02  1.8996014E-02
   9.00000  1.4563649E-02  4.4892475E-02  2.0091912E-02
   9.20000  1.5751566E-02  4.8924669E-02  2.1098129E-02
   9.40000  1.7026602E-02  5.2979948E-02  2.2013445E-02
   9.60000  1.8382590E-02  5.6791707E-02  2.2856723E-02
   9.80000  1.9811663E-02  6.0041918E-02  2.3658349E-02
   10.0000  2.1304186E-02  6.2423177E-02  2.4448608E-02
   10.2500  2.3238856E-02  6.3841088E-02  2.5452335E-02
   10.5000  2.5214229E-02  6.3397505E-02  2.6489230E-02
   10.7500  2.7174980E-02  6.1283323E-02  2.7556833E-02
   11.0000  2.9048730E-02  5.7936043E-02  2.8641416E-02
   11.2500  3.0755284E-02  5.3872585E-02  2.9724525E-02
   11.5000  3.2225844E-02  4.9553043E-02  3.0787772E-02
   11.7500  3.3422574E-02  4.5317888E-02  3.1814302E-02
   12.0000  3.4347340E-02  4.1380953E-02  3.2789396E-02
   12.2500  3.5037206E-02  3.7850410E-02  3.3701829E-02
   12.5000  3.5551077E-02  3.4760236E-02  3.4545415E-02
   12.7500  3.5954329E-02  3.2099264E-02  3.5319670E-02
   13.0000  3.6306666E-02  2.9832275E-02  3.6029157E-02
   13.2500  3.6654905E-02  2.7914348E-02  3.6682264E-02
   13.5000  3.7030124E-02  2.6300129E-02  3.7290157E-02
   13.7500  3.7447985E-02  2.4948304E-02  3.7865421E-02
   14.0000  3.7910787E-02  2.3822725E-02  3.8419889E-02
   14.2500  3.8410152E-02  2.2892235E-02  3.8962429E-02
   14.5000  3.8929766E-02  2.2130225E-02  3.9497520E-02
   14.7500  3.9448020E-02  2.1514158E-02  4.0024723E-02
   15.0000  3.9940444E-02  2.1025087E-02  4.0538811E-02
   15.2500  4.0381946E-02  2.0647178E-02  4.1030344E-02
   15.5000  4.0748819E-02  2.0367253E-02  4.1486542E-02
   15.7500  4.1020536E-02  2.0174364E-02  4.1892406E-02
   16.0000  4.1181311E-02  2.0059391E-02  4.2232075E-02
   16.2500  4.1221393E-02  2.0014688E-02  4.2490381E-02
   16.5000  4.1137944E-02  2.0033759E-02  4.2654493E-02
   16.7500  4.0935373E-02  2.0110991E-02  4.2715414E-02
   17.0000  4.0624974E-02  2.0241420E-02  4.2669080E-02
   17.2500  4.0223880E-02  2.0420566E-02  4.2516851E-02
   17.5000  3.9753452E-02  2.0644304E-02  4.2265290E-02
   17.7500  3.9237344E-02  2.0908790E-02  4.1925320E-02
   18.0000  3.8699531E-02  2.1210414E-02  4.1510960E-02
   18.2500  3.8162570E-02  2.1545776E-02  4.1037884E-02
   18.5000  3.7646255E-02  2.1911674E-02  4.0522074E-02
   18.7500  3.7166758E-02  2.2305105E-02  3.9978689E-02
   19.0000  3.6736232E-02  2.2723274E-02  3.9421251E-02
   19.2500  3.6362779E-02  2.3163642E-02  3.8861123E-02
   19.5000  3.6050696E-02  2.3623971E-02  3.8307227E-02
   19.7500  3.5800875E-02  2.4102310E-02  3.7766032E-02
   20.0000  3.5611283E-02  2.4596766E-02  3.7241881E-02
   21.0000  3.5346132E-02  2.6679526E-02  3.5364507E-02
   22.0000  3.5521281E-02  2.8774716E-02  3.3863095E-02
   23.0000  3.5664480E-02  3.0679664E-02  3.2650256E-02
   24.0000  3.5424875E-02  3.2183873E-02  3.1601323E-02
   25.0000  3.4651683E-02  3.3118571E-02  3.0619648E-02
   26.0000  3.3410991E-02  3.3429681E-02  2.9665897E-02
   27.0000  3.1925769E-02  3.3195505E-02  2.8762320E-02
   28.0000  3.0453825E-02  3.2579174E-02  2.7969591E-02
   29.0000  2.9173823E-02  3.1757756E-02  2.7341723E-02
   30.0000  2.8136181E-02  3.0858029E-02  2.6883032E-02
   31.0000  2.7310978E-02  2.9946254E-02  2.6554675E-02
   32.0000  2.6641686E-02  2.9041161E-02  2.6299155E-02
   33.0000  2.6070247E-02  2.8130600E-02  2.6057219E-02
   34.0000  2.5545752E-02  2.7190311E-02  2.5775826E-02
   35.0000  2.5026637E-02  2.6201172E-02  2.5411553E-02
   36.0000  2.4482527E-02  2.5162211E-02  2.4935696E-02
   37.0000  2.3898707E-02  2.4097708E-02  2.4343348E-02
   38.0000  2.3284558E-02  2.3058990E-02  2.3664899E-02
   39.0000  2.2684075E-02  2.2122327E-02  2.2975095E-02
   40.0000  2.2174801E-02  2.1375486E-02  2.2384415E-02
