    Energy   (100,001)      (010,001)      (001,110)   
  -25.0000  1.7075681E-04  1.8013566E-04  1.7358955E-04
  -24.0000  1.7693638E-04  1.8708253E-04  1.7984952E-04
  -23.0000  1.8353461E-04  1.9453603E-04  1.8653301E-04
  -22.0000  1.9059415E-04  2.0255204E-04  1.9368313E-04
  -21.0000  1.9816359E-04  2.1119479E-04  2.0134896E-04
  -20.0000  2.0629846E-04  2.2053853E-04  2.0958659E-04
  -19.0000  2.1506256E-04  2.3066953E-04  2.1846044E-04
  -18.0000  2.2452953E-04  2.4168853E-04  2.2804483E-04
  -17.0000  2.3478481E-04  2.5371395E-04  2.3842598E-04
  -16.0000  2.4592810E-04  2.6688584E-04  2.4970444E-04
  -15.0000  2.5807646E-04  2.8137102E-04  2.6199821E-04
  -14.0000  2.7136825E-04  2.9736970E-04  2.7544669E-04
  -13.0000  2.8596823E-04  3.1512418E-04  2.9021576E-04
  -12.0000  3.0207413E-04  3.3493037E-04  3.0650436E-04
  -11.0000  3.1992540E-04  3.5715327E-04  3.2455322E-04
  -10.0000  3.3981489E-04  3.8224814E-04  3.4465645E-04
  -9.00000  3.6210469E-04  4.1078987E-04  3.6717740E-04
  -8.00000  3.8724812E-04  4.4351447E-04  3.9257043E-04
  -7.00000  4.1582078E-04  4.8137908E-04  4.2141186E-04
  -6.00000  4.4856549E-04  5.2565071E-04  4.5444459E-04
  -5.00000  4.8645921E-04  5.7804134E-04  4.9264471E-04
  -4.00000  5.3081576E-04  6.4092017E-04  5.3732391E-04
  -3.00000  5.8345016E-04  7.1766061E-04  5.9029399E-04
  -2.00000  6.4695401E-04  8.1323431E-04  6.5414448E-04
  -1.00000  7.2518601E-04  9.3529019E-04  7.3274246E-04
   0.00000  8.2421630E-04  1.0962676E-03  8.3221132E-04
   1.00000  9.5434709E-04  1.3179784E-03  9.6307776E-04
   2.00000  1.1351380E-03  1.6430881E-03  1.1457995E-03
   3.00000  1.4111132E-03  2.1709852E-03  1.4288262E-03
   4.00000  1.9225015E-03  3.2176743E-03  1.9739010E-03
   5.00000  3.2735336E-03  6.1521700E-03  3.5163872E-03
   5.20000  3.6909510E-03  7.0913766E-03  4.0020487E-03
   5.40000  4.1080265E-03  8.0548038E-03  4.4824877E-03
   5.60000  4.5137098E-03  9.0203489E-03  4.9377744E-03
   5.80000  4.9151830E-03  9.9977308E-03  5.3667784E-03
   6.00000  5.3261495E-03  1.1004288E-02  5.7733282E-03
   6.20000  5.7608787E-03  1.2054313E-02  6.1595515E-03
   6.40000  6.2327650E-03  1.3158051E-02  6.5250011E-03
   6.60000  6.7543829E-03  1.4324368E-02  6.8687279E-03
   6.80000  7.3377142E-03  1.5564838E-02  7.1930214E-03
   7.00000  7.9940401E-03  1.6897561E-02  7.5069173E-03
   7.20000  8.7333317E-03  1.8348797E-02  7.8270892E-03
   7.40000  9.5631444E-03  1.9951586E-02  8.1752853E-03
   7.60000  1.0486929E-02  2.1742482E-02  8.5739149E-03
   7.80000  1.1501589E-02  2.3758149E-02  9.0422441E-03
   8.00000  1.2594438E-02  2.6032413E-02  9.5945234E-03
   8.20000  1.3740401E-02  2.8593085E-02  1.0239857E-02
   8.40000  1.4901207E-02  3.1457740E-02  1.0983028E-02
   8.60000  1.6028979E-02  3.4628138E-02  1.1825682E-02
   8.80000  1.7075787E-02  3.8083523E-02  1.2767623E-02
   9.00000  1.8007452E-02  4.1773047E-02  1.3808042E-02
   9.20000  1.8815641E-02  4.5607543E-02  1.4946479E-02
   9.40000  1.9521323E-02  4.9451797E-02  1.6183357E-02
   9.60000  2.0167402E-02  5.3121133E-02  1.7520101E-02
   9.80000  2.0804559E-02  5.6389518E-02  1.8958743E-02
   10.0000  2.1476854E-02  5.9015273E-02  2.0500634E-02
   10.2500  2.2407031E-02  6.1070352E-02  2.2569655E-02
   10.5000  2.3445503E-02  6.1531870E-02  2.4776712E-02
   10.7500  2.4564300E-02  6.0404793E-02  2.7074730E-02
   11.0000  2.5715369E-02  5.7943551E-02  2.9384118E-02
   11.2500  2.6852255E-02  5.4550136E-02  3.1601161E-02
   11.5000  2.7944375E-02  5.0653598E-02  3.3618166E-02
   11.7500  2.8979457E-02  4.6625043E-02  3.5344809E-02
   12.0000  2.9957194E-02  4.2736696E-02  3.6723725E-02
   12.2500  3.0882464E-02  3.9156328E-02  3.7736178E-02
   12.5000  3.1761625E-02  3.5964312E-02  3.8398890E-02
   12.7500  3.2600725E-02  3.3179348E-02  3.8755907E-02
   13.0000  3.3404163E-02  3.0783468E-02  3.8868188E-02
   13.2500  3.4173734E-02  2.8741296E-02  3.8803624E-02
   13.5000  3.4908786E-02  2.7011790E-02  3.8629630E-02
   13.7500  3.5607179E-02  2.5554270E-02  3.8408123E-02
   14.0000  3.6266274E-02  2.4331341E-02  3.8192117E-02
   14.2500  3.6883609E-02  2.3310081E-02  3.8023765E-02
   14.5000  3.7457192E-02  2.2462252E-02  3.7933718E-02
   14.7500  3.7985430E-02  2.1763970E-02  3.7941474E-02
   15.0000  3.8466806E-02  2.1195172E-02  3.8056245E-02
   15.2500  3.8899435E-02  2.0739045E-02  3.8277997E-02
   15.5000  3.9280660E-02  2.0381500E-02  3.8598453E-02
   15.7500  3.9606820E-02  2.0110736E-02  3.9002011E-02
   16.0000  3.9873307E-02  1.9916865E-02  3.9466718E-02
   16.2500  4.0074970E-02  1.9791616E-02  3.9965475E-02
   16.5000  4.0206826E-02  1.9728092E-02  4.0467682E-02
   16.7500  4.0264979E-02  1.9720553E-02  4.0941420E-02
   17.0000  4.0247569E-02  1.9764238E-02  4.1356074E-02
   17.2500  4.0155568E-02  1.9855191E-02  4.1685078E-02
   17.5000  3.9993236E-02  1.9990103E-02  4.1908335E-02
   17.7500  3.9768145E-02  2.0166163E-02  4.2013834E-02
   18.0000  3.9490766E-02  2.0380933E-02  4.1998172E-02
   18.2500  3.9173696E-02  2.0632231E-02  4.1865917E-02
   18.5000  3.8830677E-02  2.0918063E-02  4.1628059E-02
   18.7500  3.8475575E-02  2.1236569E-02  4.1299930E-02
   19.0000  3.8121451E-02  2.1586021E-02  4.0899018E-02
   19.2500  3.7779806E-02  2.1964854E-02  4.0443005E-02
   19.5000  3.7460041E-02  2.2371720E-02  3.9948229E-02
   19.7500  3.7169164E-02  2.2805469E-02  3.9428723E-02
   20.0000  3.6911793E-02  2.3264948E-02  3.8895991E-02
   21.0000  3.6247757E-02  2.5318796E-02  3.6803060E-02
   22.0000  3.6089976E-02  2.7588671E-02  3.4993331E-02
   23.0000  3.6141598E-02  2.9866825E-02  3.3503250E-02
   24.0000  3.6020936E-02  3.1889698E-02  3.2238005E-02
   25.0000  3.5406784E-02  3.3405618E-02  3.1091660E-02
   26.0000  3.4170817E-02  3.4267887E-02  3.0004952E-02
   27.0000  3.2451375E-02  3.4477348E-02  2.8991915E-02
   28.0000  3.0585390E-02  3.4159121E-02  2.8129523E-02
   29.0000  2.8912270E-02  3.3496061E-02  2.7497834E-02
   30.0000  2.7591446E-02  3.2646796E-02  2.7106264E-02
   31.0000  2.6626193E-02  3.1716849E-02  2.6899486E-02
   32.0000  2.5949829E-02  3.0764190E-02  2.6795158E-02
   33.0000  2.5478821E-02  2.9813124E-02  2.6711860E-02
   34.0000  2.5136313E-02  2.8869083E-02  2.6583987E-02
   35.0000  2.4857286E-02  2.7930222E-02  2.6366816E-02
   36.0000  2.4587524E-02  2.6995390E-02  2.6038081E-02
   37.0000  2.4285474E-02  2.6070428E-02  2.5599505E-02
   38.0000  2.3931837E-02  2.5175810E-02  2.5079623E-02
   39.0000  2.3546368E-02  2.4357762E-02  2.4539045E-02
   40.0000  2.3194616E-02  2.3691719E-02  2.4068901E-02
