    Energy   (100,001)      (010,001)      (001,110)   
  -25.0000  1.7256334E-04  1.8277149E-04  1.8358718E-04
  -24.0000  1.7868969E-04  1.8978296E-04  1.9013527E-04
  -23.0000  1.8522373E-04  1.9730429E-04  1.9712847E-04
  -22.0000  1.9220629E-04  2.0539155E-04  2.0461277E-04
  -21.0000  1.9968376E-04  2.1410927E-04  2.1264062E-04
  -20.0000  2.0770905E-04  2.2353195E-04  2.2127218E-04
  -19.0000  2.1634280E-04  2.3374616E-04  2.3057671E-04
  -18.0000  2.2565481E-04  2.4485294E-04  2.4063444E-04
  -17.0000  2.3572585E-04  2.5697101E-04  2.5153871E-04
  -16.0000  2.4664989E-04  2.7024074E-04  2.6339890E-04
  -15.0000  2.5853690E-04  2.8482921E-04  2.7634390E-04
  -14.0000  2.7151642E-04  3.0093686E-04  2.9052674E-04
  -13.0000  2.8574212E-04  3.1880609E-04  3.0613054E-04
  -12.0000  3.0139766E-04  3.3873272E-04  3.2337626E-04
  -11.0000  3.1870448E-04  3.6108134E-04  3.4253311E-04
  -10.0000  3.3793209E-04  3.8630626E-04  3.6393257E-04
  -9.00000  3.5941195E-04  4.1498051E-04  3.8798767E-04
  -8.00000  3.8355660E-04  4.4783677E-04  4.1522004E-04
  -7.00000  4.1088656E-04  4.8582643E-04  4.4629878E-04
  -6.00000  4.4206883E-04  5.3020661E-04  4.8209756E-04
  -5.00000  4.7797389E-04  5.8267240E-04  5.2378144E-04
  -4.00000  5.1976254E-04  6.4556383E-04  5.7294350E-04
  -3.00000  5.6902381E-04  7.2220302E-04  6.3182959E-04
  -2.00000  6.2800482E-04  8.1746921E-04  7.0372862E-04
  -1.00000  7.0001870E-04  9.3883877E-04  7.9369836E-04
   0.00000  7.9023065E-04  1.0984143E-03  9.1004042E-04
   1.00000  9.0735276E-04  1.3173117E-03  1.0676779E-03
   2.00000  1.0679366E-03  1.6366533E-03  1.2973012E-03
   3.00000  1.3102417E-03  2.1521285E-03  1.6770978E-03
   4.00000  1.7597956E-03  3.1707005E-03  2.4935202E-03
   5.00000  2.9687579E-03  6.0231069E-03  5.0785885E-03
   5.20000  3.3255642E-03  6.9051388E-03  5.8190809E-03
   5.40000  3.6633188E-03  7.7737659E-03  6.4557905E-03
   5.60000  3.9735412E-03  8.6034275E-03  6.9656087E-03
   5.80000  4.2660730E-03  9.4090651E-03  7.3801152E-03
   6.00000  4.5545203E-03  1.0219434E-02  7.7410450E-03
   6.20000  4.8502006E-03  1.1064668E-02  8.0815321E-03
   6.40000  5.1614974E-03  1.1974117E-02  8.4251427E-03
   6.60000  5.4946329E-03  1.2977313E-02  8.7904656E-03
   6.80000  5.8545331E-03  1.4105105E-02  9.1954398E-03
   7.00000  6.2455660E-03  1.5390075E-02  9.6589606E-03
   7.20000  6.6721156E-03  1.6866114E-02  1.0199354E-02
   7.40000  7.1389161E-03  1.8567379E-02  1.0830992E-02
   7.60000  7.6511208E-03  2.0526822E-02  1.1561059E-02
   7.80000  8.2142052E-03  2.2774286E-02  1.2387997E-02
   8.00000  8.8337990E-03  2.5333909E-02  1.3302227E-02
   8.20000  9.5154579E-03  2.8220416E-02  1.4288945E-02
   8.40000  1.0264406E-02  3.1434293E-02  1.5332023E-02
   8.60000  1.1085272E-02  3.4956204E-02  1.6417619E-02
   8.80000  1.1981792E-02  3.8741332E-02  1.7536239E-02
   9.00000  1.2956361E-02  4.2714522E-02  1.8682632E-02
   9.20000  1.4009375E-02  4.6767737E-02  1.9853879E-02
   9.40000  1.5138907E-02  5.0761437E-02  2.1046147E-02
   9.60000  1.6341482E-02  5.4527842E-02  2.2251265E-02
   9.80000  1.7613165E-02  5.7873607E-02  2.3455746E-02
   10.0000  1.8949094E-02  6.0589715E-02  2.4643507E-02
   10.2500  2.0696657E-02  6.2803055E-02  2.6083736E-02
   10.5000  2.2503775E-02  6.3470040E-02  2.7462637E-02
   10.7500  2.4327227E-02  6.2566846E-02  2.8786644E-02
   11.0000  2.6111913E-02  6.0315895E-02  3.0079908E-02
   11.2500  2.7799287E-02  5.7098640E-02  3.1373437E-02
   11.5000  2.9336443E-02  5.3332394E-02  3.2684112E-02
   11.7500  3.0682233E-02  4.9377347E-02  3.3996773E-02
   12.0000  3.1812681E-02  4.5496346E-02  3.5265379E-02
   12.2500  3.2725270E-02  4.1853995E-02  3.6427561E-02
   12.5000  3.3437657E-02  3.8535927E-02  3.7422493E-02
   12.7500  3.3981481E-02  3.5573635E-02  3.8206739E-02
   13.0000  3.4395851E-02  3.2965717E-02  3.8763436E-02
   13.2500  3.4722151E-02  3.0692783E-02  3.9103370E-02
   13.5000  3.4999947E-02  2.8726829E-02  3.9259455E-02
   13.7500  3.5264040E-02  2.7036727E-02  3.9277445E-02
   14.0000  3.5542643E-02  2.5591297E-02  3.9206117E-02
   14.2500  3.5856467E-02  2.4360970E-02  3.9089422E-02
   14.5000  3.6218404E-02  2.3318654E-02  3.8961709E-02
   14.7500  3.6633608E-02  2.2440116E-02  3.8845856E-02
   15.0000  3.7099833E-02  2.1704091E-02  3.8753571E-02
   15.2500  3.7608012E-02  2.1092190E-02  3.8686997E-02
   15.5000  3.8143101E-02  2.0588721E-02  3.8640944E-02
   15.7500  3.8685239E-02  2.0180432E-02  3.8605322E-02
   16.0000  3.9211259E-02  1.9856257E-02  3.8567458E-02
   16.2500  3.9696516E-02  1.9607043E-02  3.8514159E-02
   16.5000  4.0116969E-02  1.9425304E-02  3.8433365E-02
   16.7500  4.0451351E-02  1.9304977E-02  3.8315366E-02
   17.0000  4.0683256E-02  1.9241185E-02  3.8153563E-02
   17.2500  4.0802873E-02  1.9230008E-02  3.7944821E-02
   17.5000  4.0808112E-02  1.9268264E-02  3.7689462E-02
   17.7500  4.0704869E-02  1.9353301E-02  3.7390963E-02
   18.0000  4.0506356E-02  1.9482814E-02  3.7055424E-02
   18.2500  4.0231562E-02  1.9654699E-02  3.6690859E-02
   18.5000  3.9903116E-02  1.9866947E-02  3.6306409E-02
   18.7500  3.9544925E-02  2.0117593E-02  3.5911550E-02
   19.0000  3.9179947E-02  2.0404700E-02  3.5515368E-02
   19.2500  3.8828391E-02  2.0726408E-02  3.5125964E-02
   19.5000  3.8506456E-02  2.1080988E-02  3.4750010E-02
   19.7500  3.8225666E-02  2.1466863E-02  3.4392513E-02
   20.0000  3.7992791E-02  2.1882434E-02  3.4056862E-02
   21.0000  3.7545700E-02  2.3793986E-02  3.2965023E-02
   22.0000  3.7628562E-02  2.5975462E-02  3.2264693E-02
   23.0000  3.7715779E-02  2.8252926E-02  3.1833028E-02
   24.0000  3.7340392E-02  3.0420905E-02  3.1510512E-02
   25.0000  3.6300302E-02  3.2258401E-02  3.1162334E-02
   26.0000  3.4708522E-02  3.3581949E-02  3.0709618E-02
   27.0000  3.2877043E-02  3.4306400E-02  3.0145618E-02
   28.0000  3.1124023E-02  3.4474974E-02  2.9534955E-02
   29.0000  2.9642112E-02  3.4223585E-02  2.8978048E-02
   30.0000  2.8471724E-02  3.3694275E-02  2.8543431E-02
   31.0000  2.7581728E-02  3.2988861E-02  2.8253189E-02
   32.0000  2.6923636E-02  3.2166985E-02  2.8093334E-02
   33.0000  2.6441465E-02  3.1259700E-02  2.8025095E-02
   34.0000  2.6075776E-02  3.0284015E-02  2.7996821E-02
   35.0000  2.5769816E-02  2.9254152E-02  2.7953485E-02
   36.0000  2.5474955E-02  2.8189928E-02  2.7844399E-02
   37.0000  2.5155755E-02  2.7122549E-02  2.7632280E-02
   38.0000  2.4798362E-02  2.6098461E-02  2.7306647E-02
   39.0000  2.4422633E-02  2.5182564E-02  2.6902982E-02
   40.0000  2.4086382E-02  2.4453752E-02  2.6514782E-02
