    Energy   (100,001)      (010,001)      (001,110)   
  -25.0000  1.6201781E-04  1.7887071E-04  1.8513327E-04
  -24.0000  1.6777691E-04  1.8582718E-04  1.9158741E-04
  -23.0000  1.7391363E-04  1.9329344E-04  1.9847283E-04
  -22.0000  1.8046492E-04  2.0132586E-04  2.0583357E-04
  -21.0000  1.8747260E-04  2.0998925E-04  2.1371987E-04
  -20.0000  1.9498424E-04  2.1935855E-04  2.2218927E-04
  -19.0000  2.0305415E-04  2.2952083E-04  2.3130802E-04
  -18.0000  2.1174461E-04  2.4057780E-04  2.4115278E-04
  -17.0000  2.2112737E-04  2.5264902E-04  2.5181280E-04
  -16.0000  2.3128556E-04  2.6587591E-04  2.6339258E-04
  -15.0000  2.4231601E-04  2.8042695E-04  2.7601536E-04
  -14.0000  2.5433218E-04  2.9650433E-04  2.8982753E-04
  -13.0000  2.6746799E-04  3.1435279E-04  3.0500440E-04
  -12.0000  2.8188258E-04  3.3427121E-04  3.2175788E-04
  -11.0000  2.9776669E-04  3.5662829E-04  3.4034672E-04
  -10.0000  3.1535096E-04  3.8188385E-04  3.6109047E-04
  -9.00000  3.3491721E-04  4.1061852E-04  3.8438897E-04
  -8.00000  3.5681374E-04  4.4357557E-04  4.1075006E-04
  -7.00000  3.8147682E-04  4.8172145E-04  4.4082995E-04
  -6.00000  4.0946138E-04  5.2633521E-04  4.7549404E-04
  -5.00000  4.4148622E-04  5.7914468E-04  5.1591156E-04
  -4.00000  4.7850298E-04  6.4254033E-04  5.6370932E-04
  -3.00000  5.2180578E-04  7.1992486E-04  6.2123431E-04
  -2.00000  5.7321484E-04  8.1631207E-04  6.9203118E-04
  -1.00000  6.3540553E-04  9.3941564E-04  7.8178022E-04
   0.00000  7.1255142E-04  1.1017869E-03  9.0033266E-04
   1.00000  8.1173926E-04  1.3254719E-03  1.0667409E-03
   2.00000  9.4664521E-04  1.6537841E-03  1.3241109E-03
   3.00000  1.1497499E-03  2.1886604E-03  1.7961956E-03
   4.00000  1.5314848E-03  3.2613462E-03  3.0015818E-03
   5.00000  2.5969847E-03  6.3275127E-03  7.5242341E-03
   5.20000  2.9189861E-03  7.2863992E-03  8.7192147E-03
   5.40000  3.2221463E-03  8.2331760E-03  9.5171920E-03
   5.60000  3.4916749E-03  9.1369329E-03  9.8443712E-03
   5.80000  3.7305502E-03  1.0009811E-02  9.7974480E-03
   6.00000  3.9487948E-03  1.0877110E-02  9.5131241E-03
   6.20000  4.1580503E-03  1.1764819E-02  9.1044183E-03
   6.40000  4.3694270E-03  1.2699912E-02  8.6588858E-03
   6.60000  4.5917532E-03  1.3711670E-02  8.2471305E-03
   6.80000  4.8305075E-03  1.4830366E-02  7.9222277E-03
   7.00000  5.0882114E-03  1.6085544E-02  7.7171876E-03
   7.20000  5.3658259E-03  1.7505880E-02  7.6471931E-03
   7.40000  5.6641539E-03  1.9120256E-02  7.7153735E-03
   7.60000  5.9846553E-03  2.0959098E-02  7.9185865E-03
   7.80000  6.3296394E-03  2.3055241E-02  8.2514470E-03
   8.00000  6.7020536E-03  2.5443575E-02  8.7085619E-03
   8.20000  7.1050753E-03  2.8158795E-02  9.2855192E-03
   8.40000  7.5416055E-03  3.1230536E-02  9.9791124E-03
   8.60000  8.0137116E-03  3.4675310E-02  1.0787070E-02
   8.80000  8.5221021E-03  3.8484912E-02  1.1707422E-02
   9.00000  9.0658265E-03  4.2611875E-02  1.2737621E-02
   9.20000  9.6424534E-03  4.6954031E-02  1.3873584E-02
   9.40000  1.0248909E-02  5.1342580E-02  1.5108945E-02
   9.60000  1.0882884E-02  5.5540558E-02  1.6434781E-02
   9.80000  1.1544407E-02  5.9259588E-02  1.7839855E-02
   10.0000  1.2236945E-02  6.2198426E-02  1.9310729E-02
   10.2500  1.3157169E-02  6.4388482E-02  2.1216232E-02
   10.5000  1.4155534E-02  6.4685299E-02  2.3155815E-02
   10.7500  1.5250411E-02  6.3155216E-02  2.5075096E-02
   11.0000  1.6453326E-02  6.0170842E-02  2.6911756E-02
   11.2500  1.7764787E-02  5.6259936E-02  2.8601921E-02
   11.5000  1.9174280E-02  5.1939070E-02  3.0087923E-02
   11.7500  2.0661626E-02  4.7609595E-02  3.1328634E-02
   12.0000  2.2197938E-02  4.3529222E-02  3.2309027E-02
   12.2500  2.3748479E-02  3.9832286E-02  3.3040342E-02
   12.5000  2.5277391E-02  3.6566756E-02  3.3552294E-02
   12.7500  2.6752711E-02  3.3728697E-02  3.3885074E-02
   13.0000  2.8150166E-02  3.1287369E-02  3.4083579E-02
   13.2500  2.9455053E-02  2.9200833E-02  3.4192710E-02
   13.5000  3.0662204E-02  2.7424643E-02  3.4253638E-02
   13.7500  3.1774319E-02  2.5916393E-02  3.4301265E-02
   14.0000  3.2799572E-02  2.4637906E-02  3.4363201E-02
   14.2500  3.3749444E-02  2.3556068E-02  3.4460668E-02
   14.5000  3.4636918E-02  2.2642884E-02  3.4610075E-02
   14.7500  3.5474842E-02  2.1875045E-02  3.4823544E-02
   15.0000  3.6274589E-02  2.1233295E-02  3.5108560E-02
   15.2500  3.7045126E-02  2.0701795E-02  3.5467653E-02
   15.5000  3.7792479E-02  2.0267567E-02  3.5898398E-02
   15.7500  3.8519465E-02  1.9919994E-02  3.6393584E-02
   16.0000  3.9225607E-02  1.9650405E-02  3.6941484E-02
   16.2500  3.9907240E-02  1.9451698E-02  3.7526233E-02
   16.5000  4.0557809E-02  1.9318045E-02  3.8128395E-02
   16.7500  4.1168433E-02  1.9244629E-02  3.8725797E-02
   17.0000  4.1728747E-02  1.9227438E-02  3.9294690E-02
   17.2500  4.2227998E-02  1.9263095E-02  3.9811223E-02
   17.5000  4.2656346E-02  1.9348719E-02  4.0253128E-02
   17.7500  4.3006207E-02  1.9481814E-02  4.0601425E-02
   18.0000  4.3273472E-02  1.9660175E-02  4.0841918E-02
   18.2500  4.3458392E-02  1.9881815E-02  4.0966230E-02
   18.5000  4.3565991E-02  2.0144904E-02  4.0972218E-02
   18.7500  4.3605891E-02  2.0447736E-02  4.0863709E-02
   19.0000  4.3591568E-02  2.0788717E-02  4.0649599E-02
   19.2500  4.3539139E-02  2.1166391E-02  4.0342495E-02
   19.5000  4.3465847E-02  2.1579485E-02  3.9957118E-02
   19.7500  4.3388502E-02  2.2026887E-02  3.9508839E-02
   20.0000  4.3322225E-02  2.2507430E-02  3.9012771E-02
   21.0000  4.3382000E-02  2.4717721E-02  3.6835612E-02
   22.0000  4.4071785E-02  2.7253627E-02  3.4840617E-02
   23.0000  4.4800739E-02  2.9888334E-02  3.3297069E-02
   24.0000  4.4515845E-02  3.2298306E-02  3.2197484E-02
   25.0000  4.2551451E-02  3.4123666E-02  3.1415995E-02
   26.0000  3.9223518E-02  3.5115267E-02  3.0809245E-02
   27.0000  3.5482751E-02  3.5246257E-02  3.0282294E-02
   28.0000  3.2138194E-02  3.4689073E-02  2.9807306E-02
   29.0000  2.9525039E-02  3.3705232E-02  2.9407711E-02
   30.0000  2.7624712E-02  3.2539119E-02  2.9120846E-02
   31.0000  2.6273155E-02  3.1343969E-02  2.8951796E-02
   32.0000  2.5298599E-02  3.0192627E-02  2.8873149E-02
   33.0000  2.4568277E-02  2.9109749E-02  2.8842754E-02
   34.0000  2.3989180E-02  2.8092676E-02  2.8817007E-02
   35.0000  2.3498640E-02  2.7126546E-02  2.8758321E-02
   36.0000  2.3056829E-02  2.6196005E-02  2.8638277E-02
   37.0000  2.2643111E-02  2.5294956E-02  2.8440356E-02
   38.0000  2.2254052E-02  2.4435542E-02  2.8166092E-02
   39.0000  2.1901889E-02  2.3657233E-02  2.7846510E-02
   40.0000  2.1611660E-02  2.3026752E-02  2.7549219E-02
