    Energy   (100,001)      (010,001)      (001,110)   
  -25.0000  1.6561263E-04  1.8147325E-04  1.6955406E-04
  -24.0000  1.7084843E-04  1.8790314E-04  1.7477578E-04
  -23.0000  1.7639914E-04  1.9476998E-04  1.8030591E-04
  -22.0000  1.8229369E-04  2.0211907E-04  1.8617235E-04
  -21.0000  1.8856466E-04  2.1000214E-04  1.9240651E-04
  -20.0000  1.9524890E-04  2.1847851E-04  1.9904380E-04
  -19.0000  2.0238825E-04  2.2761656E-04  2.0612438E-04
  -18.0000  2.1003045E-04  2.3749549E-04  2.1369395E-04
  -17.0000  2.1823020E-04  2.4820754E-04  2.2180477E-04
  -16.0000  2.2705050E-04  2.5986079E-04  2.3051687E-04
  -15.0000  2.3656436E-04  2.7258268E-04  2.3989964E-04
  -14.0000  2.4685687E-04  2.8652453E-04  2.5003366E-04
  -13.0000  2.5802790E-04  3.0186737E-04  2.6101322E-04
  -12.0000  2.7019554E-04  3.1882958E-04  2.7294939E-04
  -11.0000  2.8350059E-04  3.3767700E-04  2.8597401E-04
  -10.0000  2.9811255E-04  3.5873650E-04  3.0024501E-04
  -9.00000  3.1423755E-04  3.8241454E-04  3.1595348E-04
  -8.00000  3.3212940E-04  4.0922287E-04  3.3333321E-04
  -7.00000  3.5210499E-04  4.3981500E-04  3.5267403E-04
  -6.00000  3.7456642E-04  4.7503892E-04  3.7434074E-04
  -5.00000  4.0003384E-04  5.1601566E-04  3.9880087E-04
  -4.00000  4.2919595E-04  5.6425956E-04  4.2666672E-04
  -3.00000  4.6299084E-04  6.2186965E-04  4.5876195E-04
  -2.00000  5.0274287E-04  6.9184787E-04  4.9623247E-04
  -1.00000  5.5040987E-04  7.7865868E-04  5.4074404E-04
   0.00000  6.0906980E-04  8.8928723E-04  5.9486586E-04
   1.00000  6.8399382E-04  1.0354466E-03  6.6290651E-04
   2.00000  7.8541722E-04  1.2388758E-03  7.5305626E-04
   3.00000  9.3756771E-04  1.5471177E-03  8.8436233E-04
   4.00000  1.2208444E-03  2.1002832E-03  1.1195869E-03
   5.00000  1.9969924E-03  3.4760610E-03  1.7410062E-03
   5.20000  2.2414189E-03  3.9148652E-03  1.9329410E-03
   5.40000  2.4880115E-03  4.3800660E-03  2.1235680E-03
   5.60000  2.7310470E-03  4.8644903E-03  2.3066285E-03
   5.80000  2.9740630E-03  5.3727638E-03  2.4823321E-03
   6.00000  3.2214833E-03  5.9131068E-03  2.6511012E-03
   6.20000  3.4736253E-03  6.4931540E-03  2.8115610E-03
   6.40000  3.7254643E-03  7.1186551E-03  2.9624847E-03
   6.60000  3.9691214E-03  7.7935051E-03  3.1060459E-03
   6.80000  4.1986324E-03  8.5209971E-03  3.2490002E-03
   7.00000  4.4132230E-03  9.3056499E-03  3.4006318E-03
   7.20000  4.6170642E-03  1.0154154E-02  3.5698317E-03
   7.40000  4.8171228E-03  1.1074575E-02  3.7635626E-03
   7.60000  5.0213321E-03  1.2074128E-02  3.9865686E-03
   7.80000  5.2373926E-03  1.3156281E-02  4.2412641E-03
   8.00000  5.4713732E-03  1.4318012E-02  4.5274865E-03
   8.20000  5.7260316E-03  1.5548923E-02  4.8425205E-03
   8.40000  5.9998668E-03  1.6834003E-02  5.1812599E-03
   8.60000  6.2883609E-03  1.8159107E-02  5.5363480E-03
   8.80000  6.5872278E-03  1.9515153E-02  5.8984539E-03
   9.00000  6.8952491E-03  2.0898786E-02  6.2570271E-03
   9.20000  7.2147085E-03  2.2311765E-02  6.6021500E-03
   9.40000  7.5497759E-03  2.3762027E-02  6.9277599E-03
   9.60000  7.9043716E-03  2.5265631E-02  7.2351349E-03
   9.80000  8.2806040E-03  2.6846135E-02  7.5343474E-03
   10.0000  8.6780958E-03  2.8529501E-02  7.8420277E-03
   10.2500  9.2004545E-03  3.0808673E-02  8.2655942E-03
   10.5000  9.7426486E-03  3.3293340E-02  8.7549644E-03
   10.7500  1.0294709E-02  3.5961529E-02  9.3155891E-03
   11.0000  1.0848634E-02  3.8757293E-02  9.9345471E-03
   11.2500  1.1400561E-02  4.1593309E-02  1.0588550E-02
   11.5000  1.1951558E-02  4.4350113E-02  1.1253322E-02
   11.7500  1.2506828E-02  4.6874175E-02  1.1910129E-02
   12.0000  1.3073711E-02  4.8983169E-02  1.2548144E-02
   12.2500  1.3659271E-02  5.0487581E-02  1.3163776E-02
   12.5000  1.4268200E-02  5.1229864E-02  1.3758749E-02
   12.7500  1.4901572E-02  5.1128580E-02  1.4338036E-02
   13.0000  1.5556640E-02  5.0205873E-02  1.4908015E-02
   13.2500  1.6227617E-02  4.8582451E-02  1.5474994E-02
   13.5000  1.6907095E-02  4.6442718E-02  1.6044302E-02
   13.7500  1.7587651E-02  4.3988470E-02  1.6619989E-02
   14.0000  1.8263189E-02  4.1401060E-02  1.7205009E-02
   14.2500  1.8929774E-02  3.8821559E-02  1.7801589E-02
   14.5000  1.9585880E-02  3.6347335E-02  1.8411606E-02
   14.7500  2.0232216E-02  3.4038237E-02  1.9036901E-02
   15.0000  2.0871315E-02  3.1925992E-02  1.9679582E-02
   15.2500  2.1507093E-02  3.0023052E-02  2.0342307E-02
   15.5000  2.2144488E-02  2.8329480E-02  2.1028549E-02
   15.7500  2.2789198E-02  2.6837812E-02  2.1742763E-02
   16.0000  2.3447479E-02  2.5536324E-02  2.2490427E-02
   16.2500  2.4125925E-02  2.4411183E-02  2.3277946E-02
   16.5000  2.4831167E-02  2.3447842E-02  2.4112449E-02
   16.7500  2.5569466E-02  2.2631944E-02  2.5001489E-02
   17.0000  2.6346188E-02  2.1949872E-02  2.5952679E-02
   17.2500  2.7165218E-02  2.1389058E-02  2.6973257E-02
   17.5000  2.8028366E-02  2.0938131E-02  2.8069557E-02
   17.7500  2.8934842E-02  2.0586932E-02  2.9246356E-02
   18.0000  2.9880891E-02  2.0326466E-02  3.0506088E-02
   18.2500  3.0859654E-02  2.0148802E-02  3.1847890E-02
   18.5000  3.1861312E-02  2.0046967E-02  3.3266515E-02
   18.7500  3.2873534E-02  2.0014848E-02  3.4751218E-02
   19.0000  3.3882240E-02  2.0047130E-02  3.6284795E-02
   19.2500  3.4872624E-02  2.0139262E-02  3.7843114E-02
   19.5000  3.5830313E-02  2.0287439E-02  3.9395426E-02
   19.7500  3.6742389E-02  2.0488516E-02  4.0905456E-02
   20.0000  3.7597854E-02  2.0739787E-02  4.2332619E-02
   21.0000  4.0285285E-02  2.2192647E-02  4.6336474E-02
   22.0000  4.1645414E-02  2.4243867E-02  4.6540286E-02
   23.0000  4.1856077E-02  2.6731028E-02  4.4049548E-02
   24.0000  4.1252138E-02  2.9420928E-02  4.0789909E-02
   25.0000  4.0336966E-02  3.1995608E-02  3.7828332E-02
   26.0000  3.9536925E-02  3.4116718E-02  3.5463941E-02
   27.0000  3.8944097E-02  3.5533557E-02  3.3673165E-02
   28.0000  3.8366273E-02  3.6166095E-02  3.2337336E-02
   29.0000  3.7530571E-02  3.6108526E-02  3.1328576E-02
   30.0000  3.6291795E-02  3.5551408E-02  3.0552466E-02
   31.0000  3.4734117E-02  3.4690929E-02  2.9959917E-02
   32.0000  3.3102846E-02  3.3683241E-02  2.9530057E-02
   33.0000  3.1635351E-02  3.2636833E-02  2.9246347E-02
   34.0000  3.0449599E-02  3.1618868E-02  2.9083512E-02
   35.0000  2.9547719E-02  3.0663579E-02  2.9008215E-02
   36.0000  2.8872809E-02  2.9780990E-02  2.8985671E-02
   37.0000  2.8357410E-02  2.8968706E-02  2.8985241E-02
   38.0000  2.7948157E-02  2.8226146E-02  2.8983874E-02
   39.0000  2.7615561E-02  2.7570403E-02  2.8969797E-02
   40.0000  2.7355335E-02  2.7045006E-02  2.8946558E-02
