    Energy   (100,001)      (010,001)      (001,110)   
  -25.0000  1.7112409E-04  1.8253847E-04  1.7622775E-04
  -24.0000  1.7726052E-04  1.8950496E-04  1.8247812E-04
  -23.0000  1.8381305E-04  1.9697656E-04  1.8915095E-04
  -22.0000  1.9082440E-04  2.0500875E-04  1.9628961E-04
  -21.0000  1.9834334E-04  2.1366534E-04  2.0394355E-04
  -20.0000  2.0642571E-04  2.2302003E-04  2.1216943E-04
  -19.0000  2.1513576E-04  2.3315842E-04  2.2103242E-04
  -18.0000  2.2454784E-04  2.4418047E-04  2.3060794E-04
  -17.0000  2.3474843E-04  2.5620363E-04  2.4098364E-04
  -16.0000  2.4583871E-04  2.6936674E-04  2.5226209E-04
  -15.0000  2.5793787E-04  2.8383516E-04  2.6456402E-04
  -14.0000  2.7118724E-04  2.9980730E-04  2.7803255E-04
  -13.0000  2.8575577E-04  3.1752320E-04  2.9283867E-04
  -12.0000  3.0184713E-04  3.3727597E-04  3.0918830E-04
  -11.0000  3.1970918E-04  3.5942716E-04  3.2733185E-04
  -10.0000  3.3964672E-04  3.8442770E-04  3.4757685E-04
  -9.00000  3.6203908E-04  4.1284709E-04  3.7030546E-04
  -8.00000  3.8736461E-04  4.4541469E-04  3.9599874E-04
  -7.00000  4.1623589E-04  4.8307958E-04  4.2527130E-04
  -6.00000  4.4945132E-04  5.2709932E-04  4.5892181E-04
  -5.00000  4.8807313E-04  5.7917559E-04  4.9800895E-04
  -4.00000  5.3354968E-04  6.4166856E-04  5.4396932E-04
  -3.00000  5.8791525E-04  7.1794958E-04  5.9880807E-04
  -2.00000  6.5413399E-04  8.1301083E-04  6.6542265E-04
  -1.00000  7.3673195E-04  9.3458633E-04  7.4818742E-04
   0.00000  8.4306124E-04  1.0953844E-03  8.5409653E-04
   1.00000  9.8613262E-04  1.3180376E-03  9.9524962E-04
   2.00000  1.1920660E-03  1.6478818E-03  1.1951381E-03
   3.00000  1.5249781E-03  2.1944538E-03  1.5086129E-03
   4.00000  2.2074791E-03  3.3250892E-03  2.1130400E-03
   5.00000  4.2581417E-03  6.6955450E-03  3.7798995E-03
   5.20000  4.8806461E-03  7.7644561E-03  4.2951726E-03
   5.40000  5.4630979E-03  8.8214101E-03  4.8091072E-03
   5.60000  5.9819488E-03  9.8261711E-03  5.3127592E-03
   5.80000  6.4492188E-03  1.0782119E-02  5.8177547E-03
   6.00000  6.8877095E-03  1.1706342E-02  6.3393923E-03
   6.20000  7.3189303E-03  1.2618393E-02  6.8906373E-03
   6.40000  7.7604841E-03  1.3541063E-02  7.4828810E-03
   6.60000  8.2268362E-03  1.4502152E-02  8.1279515E-03
   6.80000  8.7308372E-03  1.5532664E-02  8.8389445E-03
   7.00000  9.2848937E-03  1.6661892E-02  9.6292629E-03
   7.20000  9.9014242E-03  1.7912741E-02  1.0510223E-02
   7.40000  1.0592618E-02  1.9300155E-02  1.1487966E-02
   7.60000  1.1369551E-02  2.0833026E-02  1.2560281E-02
   7.80000  1.2240772E-02  2.2518480E-02  1.3713651E-02
   8.00000  1.3210313E-02  2.4366724E-02  1.4920925E-02
   8.20000  1.4274995E-02  2.6394341E-02  1.6140602E-02
   8.40000  1.5421271E-02  2.8624215E-02  1.7319559E-02
   8.60000  1.6622849E-02  3.1081101E-02  1.8401077E-02
   8.80000  1.7841282E-02  3.3783230E-02  1.9337872E-02
   9.00000  1.9031460E-02  3.6731542E-02  2.0105511E-02
   9.20000  2.0151732E-02  3.9898679E-02  2.0709813E-02
   9.40000  2.1174963E-02  4.3219670E-02  2.1184520E-02
   9.60000  2.2094997E-02  4.6585944E-02  2.1580191E-02
   9.80000  2.2925013E-02  4.9844791E-02  2.1950080E-02
   10.0000  2.3689430E-02  5.2807414E-02  2.2339434E-02
   10.2500  2.4591995E-02  5.5782942E-02  2.2902032E-02
   10.5000  2.5469416E-02  5.7624128E-02  2.3582318E-02
   10.7500  2.6333550E-02  5.8132460E-02  2.4393224E-02
   11.0000  2.7172131E-02  5.7327793E-02  2.5329701E-02
   11.2500  2.7959738E-02  5.5429857E-02  2.6375576E-02
   11.5000  2.8670476E-02  5.2771639E-02  2.7507144E-02
   11.7500  2.9286381E-02  4.9695455E-02  2.8694439E-02
   12.0000  2.9801906E-02  4.6479720E-02  2.9904954E-02
   12.2500  3.0225216E-02  4.3314594E-02  3.1106296E-02
   12.5000  3.0575494E-02  4.0313916E-02  3.2265429E-02
   12.7500  3.0878203E-02  3.7538452E-02  3.3349742E-02
   13.0000  3.1160286E-02  3.5015692E-02  3.4330652E-02
   13.2500  3.1445959E-02  3.2753181E-02  3.5186964E-02
   13.5000  3.1753646E-02  3.0746623E-02  3.5906714E-02
   13.7500  3.2094356E-02  2.8984739E-02  3.6487279E-02
   14.0000  3.2471341E-02  2.7452194E-02  3.6934033E-02
   14.2500  3.2880610E-02  2.6131299E-02  3.7258152E-02
   14.5000  3.3312216E-02  2.5003150E-02  3.7474317E-02
   14.7500  3.3752281E-02  2.4048751E-02  3.7598859E-02
   15.0000  3.4185282E-02  2.3250000E-02  3.7648491E-02
   15.2500  3.4596003E-02  2.2590256E-02  3.7639497E-02
   15.5000  3.4970911E-02  2.2054520E-02  3.7587196E-02
   15.7500  3.5298896E-02  2.1629373E-02  3.7505515E-02
   16.0000  3.5571494E-02  2.1302798E-02  3.7406642E-02
   16.2500  3.5782728E-02  2.1063999E-02  3.7300708E-02
   16.5000  3.5928781E-02  2.0903233E-02  3.7195545E-02
   16.7500  3.6007691E-02  2.0811709E-02  3.7096538E-02
   17.0000  3.6019207E-02  2.0781527E-02  3.7006581E-02
   17.2500  3.5964841E-02  2.0805656E-02  3.6926168E-02
   17.5000  3.5848063E-02  2.0877931E-02  3.6853617E-02
   17.7500  3.5674532E-02  2.0993045E-02  3.6785434E-02
   18.0000  3.5452213E-02  2.1146528E-02  3.6716800E-02
   18.2500  3.5191266E-02  2.1334695E-02  3.6642145E-02
   18.5000  3.4903653E-02  2.1554578E-02  3.6555751E-02
   18.7500  3.4602476E-02  2.1803825E-02  3.6452320E-02
   19.0000  3.4301109E-02  2.2080611E-02  3.6327439E-02
   19.2500  3.4012262E-02  2.2383536E-02  3.6177876E-02
   19.5000  3.3747078E-02  2.2711542E-02  3.6001724E-02
   19.7500  3.3514423E-02  2.3063779E-02  3.5798411E-02
   20.0000  3.3320497E-02  2.3439330E-02  3.5568704E-02
   21.0000  3.2974402E-02  2.5136842E-02  3.4443883E-02
   22.0000  3.3216175E-02  2.7024867E-02  3.3167691E-02
   23.0000  3.3702004E-02  2.8927598E-02  3.1925140E-02
   24.0000  3.4061025E-02  3.0659968E-02  3.0802074E-02
   25.0000  3.4045330E-02  3.2052677E-02  2.9814322E-02
   26.0000  3.3582950E-02  3.2987168E-02  2.8959786E-02
   27.0000  3.2762491E-02  3.3424227E-02  2.8247886E-02
   28.0000  3.1752864E-02  3.3404136E-02  2.7695373E-02
   29.0000  3.0707143E-02  3.3018926E-02  2.7305123E-02
   30.0000  2.9716606E-02  3.2377255E-02  2.7053889E-02
   31.0000  2.8819980E-02  3.1578186E-02  2.6899184E-02
   32.0000  2.8025748E-02  3.0697211E-02  2.6794544E-02
   33.0000  2.7324401E-02  2.9783517E-02  2.6699995E-02
   34.0000  2.6695595E-02  2.8870021E-02  2.6585266E-02
   35.0000  2.6117641E-02  2.7982224E-02  2.6430525E-02
   36.0000  2.5576356E-02  2.7130884E-02  2.6226762E-02
   37.0000  2.5070087E-02  2.6321694E-02  2.5979895E-02
   38.0000  2.4610141E-02  2.5567284E-02  2.5714149E-02
   39.0000  2.4217203E-02  2.4896209E-02  2.5466897E-02
   40.0000  2.3913184E-02  2.4357900E-02  2.5272268E-02
