    Energy   (100,001)      (010,001)      (001,110)   
  -25.0000  1.6528573E-04  1.8911502E-04  1.7226164E-04
  -24.0000  1.7144754E-04  1.9594061E-04  1.7861459E-04
  -23.0000  1.7803432E-04  2.0324149E-04  1.8540495E-04
  -22.0000  1.8508987E-04  2.1106828E-04  1.9267785E-04
  -21.0000  1.9266414E-04  2.1947901E-04  2.0048475E-04
  -20.0000  2.0081429E-04  2.2854045E-04  2.0888453E-04
  -19.0000  2.0960603E-04  2.3832990E-04  2.1794492E-04
  -18.0000  2.1911533E-04  2.4893726E-04  2.2774417E-04
  -17.0000  2.2943043E-04  2.6046771E-04  2.3837316E-04
  -16.0000  2.4065441E-04  2.7304512E-04  2.4993803E-04
  -15.0000  2.5290848E-04  2.8681628E-04  2.6256353E-04
  -14.0000  2.6633611E-04  3.0195651E-04  2.7639722E-04
  -13.0000  2.8110836E-04  3.1867680E-04  2.9161488E-04
  -12.0000  2.9743089E-04  3.3723339E-04  3.0842761E-04
  -11.0000  3.1555314E-04  3.5794042E-04  3.2709111E-04
  -10.0000  3.3578074E-04  3.8118718E-04  3.4791803E-04
  -9.00000  3.5849234E-04  4.0746187E-04  3.7129481E-04
  -8.00000  3.8416298E-04  4.3738492E-04  3.9770478E-04
  -7.00000  4.1339735E-04  4.7175674E-04  4.2776067E-04
  -6.00000  4.4697792E-04  5.1162791E-04  4.6225129E-04
  -5.00000  4.8593700E-04  5.5840499E-04  5.0221042E-04
  -4.00000  5.3166802E-04  6.1401544E-04  5.4902142E-04
  -3.00000  5.8610450E-04  6.8117485E-04  6.0458225E-04
  -2.00000  6.5202249E-04  7.6384074E-04  6.7157745E-04
  -1.00000  7.3358447E-04  8.6803074E-04  7.5395289E-04
   0.00000  8.3739939E-04  1.0034157E-03  8.5780778E-04
   1.00000  9.7482614E-04  1.1867652E-03  9.9325001E-04
   2.00000  1.1678076E-03  1.4506023E-03  1.1788659E-03
   3.00000  1.4674648E-03  1.8705317E-03  1.4552420E-03
   4.00000  2.0391219E-03  2.6895667E-03  1.9441894E-03
   5.00000  3.6179549E-03  4.9695184E-03  3.1487297E-03
   5.20000  4.1243059E-03  5.6824539E-03  3.5125944E-03
   5.40000  4.6419380E-03  6.3939078E-03  3.8808361E-03
   5.60000  5.1523230E-03  7.0830303E-03  4.2500977E-03
   5.80000  5.6510927E-03  7.7577532E-03  4.6298738E-03
   6.00000  6.1387645E-03  8.4347907E-03  5.0307002E-03
   6.20000  6.6182330E-03  9.1308514E-03  5.4596284E-03
   6.40000  7.0948076E-03  9.8612413E-03  5.9205744E-03
   6.60000  7.5760317E-03  1.0640250E-02  6.4162816E-03
   6.80000  8.0714199E-03  1.1481558E-02  6.9505090E-03
   7.00000  8.5921667E-03  1.2398589E-02  7.5296811E-03
   7.20000  9.1505170E-03  1.3404982E-02  8.1634935E-03
   7.40000  9.7587780E-03  1.4515126E-02  8.8644261E-03
   7.60000  1.0428232E-02  1.5744484E-02  9.6465311E-03
   7.80000  1.1168183E-02  1.7109479E-02  1.0523964E-02
   8.00000  1.1985131E-02  1.8626832E-02  1.1509506E-02
   8.20000  1.2881922E-02  2.0312272E-02  1.2613126E-02
   8.40000  1.3856847E-02  2.2178671E-02  1.3840644E-02
   8.60000  1.4902951E-02  2.4233978E-02  1.5192689E-02
   8.80000  1.6008135E-02  2.6479692E-02  1.6664237E-02
   9.00000  1.7156639E-02  2.8910279E-02  1.8245118E-02
   9.20000  1.8331998E-02  3.1513206E-02  1.9921608E-02
   9.40000  1.9520767E-02  3.4268691E-02  2.1678287E-02
   9.60000  2.0715570E-02  3.7147876E-02  2.3498895E-02
   9.80000  2.1916045E-02  4.0108382E-02  2.5365537E-02
   10.0000  2.3127063E-02  4.3087601E-02  2.7256731E-02
   10.2500  2.4664963E-02  4.6699326E-02  2.9613851E-02
   10.5000  2.6234340E-02  4.9966636E-02  3.1904174E-02
   10.7500  2.7825818E-02  5.2620937E-02  3.4060693E-02
   11.0000  2.9408470E-02  5.4407990E-02  3.6017850E-02
   11.2500  3.0928901E-02  5.5148059E-02  3.7713512E-02
   11.5000  3.2323273E-02  5.4789153E-02  3.9094195E-02
   11.7500  3.3534251E-02  5.3424971E-02  4.0122255E-02
   12.0000  3.4523605E-02  5.1265282E-02  4.0781577E-02
   12.2500  3.5278056E-02  4.8575718E-02  4.1081279E-02
   12.5000  3.5808471E-02  4.5616573E-02  4.1056587E-02
   12.7500  3.6143480E-02  4.2602303E-02  4.0764887E-02
   13.0000  3.6320815E-02  3.9686642E-02  4.0276738E-02
   13.2500  3.6380820E-02  3.6965968E-02  3.9665817E-02
   13.5000  3.6363291E-02  3.4490943E-02  3.9001811E-02
   13.7500  3.6305699E-02  3.2279782E-02  3.8346028E-02
   14.0000  3.6241280E-02  3.0329917E-02  3.7748289E-02
   14.2500  3.6197365E-02  2.8626845E-02  3.7245378E-02
   14.5000  3.6194809E-02  2.7150194E-02  3.6861686E-02
   14.7500  3.6248241E-02  2.5877559E-02  3.6611136E-02
   15.0000  3.6366463E-02  2.4786775E-02  3.6499126E-02
   15.2500  3.6552772E-02  2.3857122E-02  3.6523980E-02
   15.5000  3.6805213E-02  2.3069887E-02  3.6677905E-02
   15.7500  3.7116812E-02  2.2408505E-02  3.6947579E-02
   16.0000  3.7475887E-02  2.1858491E-02  3.7314588E-02
   16.2500  3.7866504E-02  2.1407252E-02  3.7755918E-02
   16.5000  3.8269190E-02  2.1043883E-02  3.8244709E-02
   16.7500  3.8661983E-02  2.0758945E-02  3.8751409E-02
   17.0000  3.9021862E-02  2.0544290E-02  3.9245403E-02
   17.2500  3.9326535E-02  2.0392904E-02  3.9697022E-02
   17.5000  3.9556438E-02  2.0298778E-02  4.0079728E-02
   17.7500  3.9696710E-02  2.0256808E-02  4.0372162E-02
   18.0000  3.9738810E-02  2.0262693E-02  4.0559694E-02
   18.2500  3.9681452E-02  2.0312847E-02  4.0635199E-02
   18.5000  3.9530652E-02  2.0404300E-02  4.0598931E-02
   18.7500  3.9298841E-02  2.0534607E-02  4.0457558E-02
   19.0000  3.9003228E-02  2.0701772E-02  4.0222570E-02
   19.2500  3.8663692E-02  2.0904188E-02  3.9908381E-02
   19.5000  3.8300592E-02  2.1140599E-02  3.9530439E-02
   19.7500  3.7932889E-02  2.1410030E-02  3.9103686E-02
   20.0000  3.7576983E-02  2.1711602E-02  3.8641714E-02
   21.0000  3.6506922E-02  2.3212234E-02  3.6667817E-02
   22.0000  3.6234063E-02  2.5103955E-02  3.4829877E-02
   23.0000  3.6546629E-02  2.7250300E-02  3.3262233E-02
   24.0000  3.6885329E-02  2.9456339E-02  3.1926551E-02
   25.0000  3.6650071E-02  3.1503232E-02  3.0746467E-02
   26.0000  3.5502515E-02  3.3195905E-02  2.9657528E-02
   27.0000  3.3574486E-02  3.4385619E-02  2.8637219E-02
   28.0000  3.1339936E-02  3.5001988E-02  2.7712127E-02
   29.0000  2.9216239E-02  3.5093972E-02  2.6916179E-02
   30.0000  2.7418844E-02  3.4785026E-02  2.6274679E-02
   31.0000  2.6004525E-02  3.4215145E-02  2.5793171E-02
   32.0000  2.4935359E-02  3.3504869E-02  2.5448775E-02
   33.0000  2.4131784E-02  3.2737787E-02  2.5196212E-02
   34.0000  2.3507840E-02  3.1960186E-02  2.4981411E-02
   35.0000  2.2989174E-02  3.1191301E-02  2.4753338E-02
   36.0000  2.2521084E-02  3.0437107E-02  2.4472350E-02
   37.0000  2.2072484E-02  2.9702741E-02  2.4117414E-02
   38.0000  2.1637598E-02  2.9002047E-02  2.3694323E-02
   39.0000  2.1235198E-02  2.8366886E-02  2.3244947E-02
   40.0000  2.0901901E-02  2.7852342E-02  2.2846758E-02
