    Energy   (100,001)      (010,001)      (001,110)   
  -25.0000  1.6590188E-04  1.7477561E-04  1.7204936E-04
  -24.0000  1.7210823E-04  1.8164435E-04  1.7860506E-04
  -23.0000  1.7874446E-04  1.8901975E-04  1.8562792E-04
  -22.0000  1.8585501E-04  1.9695807E-04  1.9316793E-04
  -21.0000  1.9349057E-04  2.0552408E-04  2.0128239E-04
  -20.0000  2.0170914E-04  2.1479266E-04  2.1003718E-04
  -19.0000  2.1057740E-04  2.2485087E-04  2.1950850E-04
  -18.0000  2.2017245E-04  2.3580047E-04  2.2978494E-04
  -17.0000  2.3058380E-04  2.4776116E-04  2.4097006E-04
  -16.0000  2.4191605E-04  2.6087460E-04  2.5318566E-04
  -15.0000  2.5429212E-04  2.7530962E-04  2.6657599E-04
  -14.0000  2.6785744E-04  2.9126904E-04  2.8131312E-04
  -13.0000  2.8278535E-04  3.0899847E-04  2.9760396E-04
  -12.0000  2.9928406E-04  3.2879809E-04  3.1569946E-04
  -11.0000  3.1760591E-04  3.5103843E-04  3.3590705E-04
  -10.0000  3.3805965E-04  3.7618199E-04  3.5860736E-04
  -9.00000  3.6102725E-04  4.0481317E-04  3.8427745E-04
  -8.00000  3.8698699E-04  4.3768061E-04  4.1352347E-04
  -7.00000  4.1654614E-04  4.7575840E-04  4.4712773E-04
  -6.00000  4.5048806E-04  5.2033648E-04  4.8611827E-04
  -5.00000  4.8984211E-04  5.7315810E-04  5.3187477E-04
  -4.00000  5.3599067E-04  6.3663555E-04  5.8629573E-04
  -3.00000  5.9083923E-04  7.1420168E-04  6.5207360E-04
  -2.00000  6.5710015E-04  8.1090986E-04  7.3317221E-04
  -1.00000  7.3879423E-04  9.3451812E-04  8.3571142E-04
   0.00000  8.4220845E-04  1.0975986E-03  9.6975240E-04
   1.00000  9.7792445E-04  1.3220714E-03  1.1533389E-03
   2.00000  1.1657974E-03  1.6504443E-03  1.4232496E-03
   3.00000  1.4502321E-03  2.1805266E-03  1.8713975E-03
   4.00000  1.9670663E-03  3.2189178E-03  2.8236745E-03
   5.00000  3.3016686E-03  6.0680493E-03  5.7967954E-03
   5.20000  3.7356368E-03  6.9577772E-03  6.6951216E-03
   5.40000  4.1935767E-03  7.8559702E-03  7.5057872E-03
   5.60000  4.6596949E-03  8.7469347E-03  8.1821156E-03
   5.80000  5.1274744E-03  9.6517984E-03  8.7490953E-03
   6.00000  5.5956982E-03  1.0600733E-02  9.2625379E-03
   6.20000  6.0673110E-03  1.1620050E-02  9.7773372E-03
   6.40000  6.5487460E-03  1.2731021E-02  1.0333687E-02
   6.60000  7.0485679E-03  1.3952861E-02  1.0956044E-02
   6.80000  7.5760206E-03  1.5306107E-02  1.1657863E-02
   7.00000  8.1399148E-03  1.6814826E-02  1.2446866E-02
   7.20000  8.7478668E-03  1.8507172E-02  1.3328002E-02
   7.40000  9.4058692E-03  2.0414915E-02  1.4303221E-02
   7.60000  1.0118344E-02  2.2572755E-02  1.5368911E-02
   7.80000  1.0888955E-02  2.5017716E-02  1.6513636E-02
   8.00000  1.1722272E-02  2.7788683E-02  1.7719760E-02
   8.20000  1.2625749E-02  3.0925305E-02  1.8971102E-02
   8.40000  1.3610845E-02  3.4463927E-02  2.0263732E-02
   8.60000  1.4692051E-02  3.8426863E-02  2.1612030E-02
   8.80000  1.5883704E-02  4.2801458E-02  2.3043464E-02
   9.00000  1.7195637E-02  4.7508487E-02  2.4583507E-02
   9.20000  1.8629441E-02  5.2366289E-02  2.6238913E-02
   9.40000  2.0176769E-02  5.7067433E-02  2.7987744E-02
   9.60000  2.1819736E-02  6.1193602E-02  2.9779686E-02
   9.80000  2.3532208E-02  6.4289039E-02  3.1544771E-02
   10.0000  2.5280339E-02  6.5982400E-02  3.3205446E-02
   10.2500  2.7452052E-02  6.5893297E-02  3.5025965E-02
   10.5000  2.9522927E-02  6.3574852E-02  3.6475194E-02
   10.7500  3.1400718E-02  5.9670772E-02  3.7529086E-02
   11.0000  3.3004945E-02  5.4944822E-02  3.8231981E-02
   11.2500  3.4281024E-02  5.0033232E-02  3.8668707E-02
   11.5000  3.5212870E-02  4.5353761E-02  3.8932176E-02
   11.7500  3.5825374E-02  4.1124880E-02  3.9099157E-02
   12.0000  3.6175360E-02  3.7425227E-02  3.9218561E-02
   12.2500  3.6336322E-02  3.4251487E-02  3.9311301E-02
   12.5000  3.6383350E-02  3.1559946E-02  3.9377408E-02
   12.7500  3.6382729E-02  2.9291556E-02  3.9405270E-02
   13.0000  3.6387036E-02  2.7385620E-02  3.9379918E-02
   13.2500  3.6434385E-02  2.5786587E-02  3.9289829E-02
   13.5000  3.6549892E-02  2.4446672E-02  3.9132554E-02
   13.7500  3.6747636E-02  2.3326159E-02  3.8917260E-02
   14.0000  3.7032358E-02  2.2392493E-02  3.8662402E-02
   14.2500  3.7400644E-02  2.1619005E-02  3.8390457E-02
   14.5000  3.7841574E-02  2.0983808E-02  3.8122846E-02
   14.7500  3.8337342E-02  2.0468944E-02  3.7876352E-02
   15.0000  3.8864322E-02  2.0059675E-02  3.7661150E-02
   15.2500  3.9394733E-02  1.9743884E-02  3.7480281E-02
   15.5000  3.9898831E-02  1.9511559E-02  3.7330296E-02
   15.7500  4.0347467E-02  1.9354365E-02  3.7202729E-02
   16.0000  4.0714786E-02  1.9265297E-02  3.7086019E-02
   16.2500  4.0980736E-02  1.9238388E-02  3.6967540E-02
   16.5000  4.1133046E-02  1.9268494E-02  3.6835424E-02
   16.7500  4.1168316E-02  1.9351109E-02  3.6679978E-02
   17.0000  4.1092061E-02  1.9482238E-02  3.6494538E-02
   17.2500  4.0917703E-02  1.9658288E-02  3.6275787E-02
   17.5000  4.0664727E-02  1.9876000E-02  3.6023589E-02
   17.7500  4.0356343E-02  2.0132390E-02  3.5740496E-02
   18.0000  4.0017063E-02  2.0424718E-02  3.5431072E-02
   18.2500  3.9670509E-02  2.0750463E-02  3.5101175E-02
   18.5000  3.9337691E-02  2.1107308E-02  3.4757277E-02
   18.7500  3.9035865E-02  2.1493143E-02  3.4405887E-02
   19.0000  3.8777931E-02  2.1906083E-02  3.4053088E-02
   19.2500  3.8572302E-02  2.2344509E-02  3.3704184E-02
   19.5000  3.8423081E-02  2.2807106E-02  3.3363452E-02
   19.7500  3.8330389E-02  2.3292844E-02  3.3034013E-02
   20.0000  3.8290680E-02  2.3800723E-02  3.2717912E-02
   21.0000  3.8485549E-02  2.6014315E-02  3.1606180E-02
   22.0000  3.8645551E-02  2.8390285E-02  3.0726769E-02
   23.0000  3.7964229E-02  3.0710549E-02  2.9989840E-02
   24.0000  3.6118418E-02  3.2663277E-02  2.9306043E-02
   25.0000  3.3504505E-02  3.3938597E-02  2.8637786E-02
   26.0000  3.0785338E-02  3.4426851E-02  2.7988311E-02
   27.0000  2.8423790E-02  3.4223174E-02  2.7385721E-02
   28.0000  2.6584360E-02  3.3529066E-02  2.6868510E-02
   29.0000  2.5243925E-02  3.2555882E-02  2.6466333E-02
   30.0000  2.4304458E-02  3.1467531E-02  2.6182927E-02
   31.0000  2.3654202E-02  3.0366759E-02  2.5991839E-02
   32.0000  2.3193518E-02  2.9304181E-02  2.5845340E-02
   33.0000  2.2842632E-02  2.8292596E-02  2.5687871E-02
   34.0000  2.2542266E-02  2.7321123E-02  2.5466782E-02
   35.0000  2.2252968E-02  2.6369443E-02  2.5139886E-02
   36.0000  2.1954483E-02  2.5421472E-02  2.4683310E-02
   37.0000  2.1644405E-02  2.4477250E-02  2.4101527E-02
   38.0000  2.1335217E-02  2.3561836E-02  2.3436981E-02
   39.0000  2.1049927E-02  2.2730101E-02  2.2772682E-02
   40.0000  2.0816214E-02  2.2059179E-02  2.2214768E-02
