    Energy   (100,001)      (010,001)      (001,110)   
  -25.0000  1.6713990E-04  1.8676622E-04  1.6937225E-04
  -24.0000  1.7345271E-04  1.9376139E-04  1.7580405E-04
  -23.0000  1.8020684E-04  2.0125802E-04  1.8268795E-04
  -22.0000  1.8744838E-04  2.0931084E-04  1.9007143E-04
  -21.0000  1.9522997E-04  2.1798271E-04  1.9800867E-04
  -20.0000  2.0361192E-04  2.2734622E-04  2.0656182E-04
  -19.0000  2.1266375E-04  2.3748564E-04  2.1580252E-04
  -18.0000  2.2246589E-04  2.4849929E-04  2.2581371E-04
  -17.0000  2.3311196E-04  2.6050259E-04  2.3669198E-04
  -16.0000  2.4471155E-04  2.7363195E-04  2.4855045E-04
  -15.0000  2.5739376E-04  2.8804965E-04  2.6152241E-04
  -14.0000  2.7131169E-04  3.0395026E-04  2.7576605E-04
  -13.0000  2.8664829E-04  3.2156897E-04  2.9147047E-04
  -12.0000  3.0362395E-04  3.4119270E-04  3.0886360E-04
  -11.0000  3.2250659E-04  3.6317494E-04  3.2822266E-04
  -10.0000  3.4362517E-04  3.8795604E-04  3.4988821E-04
  -9.00000  3.6738814E-04  4.1609136E-04  3.7428335E-04
  -8.00000  3.9430906E-04  4.4829096E-04  4.0194041E-04
  -7.00000  4.2504289E-04  4.8547703E-04  4.3353878E-04
  -6.00000  4.6043866E-04  5.2886861E-04  4.6995996E-04
  -5.00000  5.0161808E-04  5.8011064E-04  5.1236981E-04
  -4.00000  5.5009644E-04  6.4147648E-04  5.6234561E-04
  -3.00000  6.0797612E-04  7.1619910E-04  6.2208022E-04
  -2.00000  6.7827102E-04  8.0903844E-04  6.9472657E-04
  -1.00000  7.6548359E-04  9.2731353E-04  7.8501574E-04
   0.00000  8.7671264E-04  1.0829307E-03  9.0045845E-04
   1.00000  1.0240121E-03  1.2968065E-03  1.0539475E-03
   2.00000  1.2302111E-03  1.6100569E-03  1.2703310E-03
   3.00000  1.5468943E-03  2.1194919E-03  1.6073360E-03
   4.00000  2.1340844E-03  3.1393265E-03  2.2514125E-03
   5.00000  3.6760049E-03  6.0507668E-03  4.0292317E-03
   5.20000  4.1605131E-03  6.9689605E-03  4.5946092E-03
   5.40000  4.6555097E-03  7.8860778E-03  5.1685345E-03
   5.60000  5.1492370E-03  8.7731266E-03  5.7323101E-03
   5.80000  5.6477812E-03  9.6385122E-03  6.2839726E-03
   6.00000  6.1632958E-03  1.0503505E-02  6.8236700E-03
   6.20000  6.7080850E-03  1.1391772E-02  7.3496734E-03
   6.40000  7.2929952E-03  1.2327740E-02  7.8621132E-03
   6.60000  7.9271553E-03  1.3336165E-02  8.3677249E-03
   6.80000  8.6179735E-03  1.4440977E-02  8.8813236E-03
   7.00000  9.3710454E-03  1.5664170E-02  9.4234627E-03
   7.20000  1.0189890E-02  1.7025483E-02  1.0016517E-02
   7.40000  1.1075810E-02  1.8542622E-02  1.0681514E-02
   7.60000  1.2028462E-02  2.0231351E-02  1.1436463E-02
   7.80000  1.3047391E-02  2.2105379E-02  1.2295617E-02
   8.00000  1.4134090E-02  2.4176463E-02  1.3268955E-02
   8.20000  1.5293406E-02  2.6454827E-02  1.4361604E-02
   8.40000  1.6533158E-02  2.8949516E-02  1.5573518E-02
   8.60000  1.7861636E-02  3.1668066E-02  1.6899872E-02
   8.80000  1.9283584E-02  3.4614725E-02  1.8332131E-02
   9.00000  2.0796098E-02  3.7785889E-02  1.9859256E-02
   9.20000  2.2385941E-02  4.1161151E-02  2.1468314E-02
   9.40000  2.4028911E-02  4.4689904E-02  2.3144167E-02
   9.60000  2.5691312E-02  4.8276445E-02  2.4868816E-02
   9.80000  2.7333438E-02  5.1769250E-02  2.6621622E-02
   10.0000  2.8914080E-02  5.4961347E-02  2.8381164E-02
   10.2500  3.0744963E-02  5.8155192E-02  3.0561401E-02
   10.5000  3.2358057E-02  6.0039918E-02  3.2696798E-02
   10.7500  3.3715117E-02  6.0335877E-02  3.4772420E-02
   11.0000  3.4804251E-02  5.9058332E-02  3.6767360E-02
   11.2500  3.5636441E-02  5.6501787E-02  3.8633178E-02
   11.5000  3.6239976E-02  5.3109704E-02  4.0289072E-02
   11.7500  3.6655314E-02  4.9324186E-02  4.1640185E-02
   12.0000  3.6930604E-02  4.5492643E-02  4.2607597E-02
   12.2500  3.7116056E-02  4.1843037E-02  4.3154139E-02
   12.5000  3.7257063E-02  3.8500718E-02  4.3295101E-02
   12.7500  3.7388646E-02  3.5518303E-02  4.3092260E-02
   13.0000  3.7532860E-02  3.2902896E-02  4.2636338E-02
   13.2500  3.7698963E-02  3.0636089E-02  4.2026224E-02
   13.5000  3.7885606E-02  2.8687184E-02  4.1352303E-02
   13.7500  3.8084127E-02  2.7021363E-02  4.0686989E-02
   14.0000  3.8281920E-02  2.5604375E-02  4.0081828E-02
   14.2500  3.8465108E-02  2.4404661E-02  3.9568999E-02
   14.5000  3.8620232E-02  2.3393998E-02  3.9164799E-02
   14.7500  3.8735089E-02  2.2547576E-02  3.8873387E-02
   15.0000  3.8799111E-02  2.1843866E-02  3.8690002E-02
   15.2500  3.8803631E-02  2.1264379E-02  3.8603448E-02
   15.5000  3.8742186E-02  2.0793364E-02  3.8597948E-02
   15.7500  3.8610862E-02  2.0417481E-02  3.8654553E-02
   16.0000  3.8408622E-02  2.0125493E-02  3.8752358E-02
   16.2500  3.8137550E-02  1.9907960E-02  3.8869673E-02
   16.5000  3.7802918E-02  1.9756972E-02  3.8985279E-02
   16.7500  3.7413050E-02  1.9665893E-02  3.9079727E-02
   17.0000  3.6978939E-02  1.9629138E-02  3.9136587E-02
   17.2500  3.6513648E-02  1.9641974E-02  3.9143479E-02
   17.5000  3.6031557E-02  1.9700346E-02  3.9092738E-02
   17.7500  3.5547521E-02  1.9800734E-02  3.8981584E-02
   18.0000  3.5076054E-02  1.9940032E-02  3.8811808E-02
   18.2500  3.4630611E-02  2.0115463E-02  3.8589020E-02
   18.5000  3.4223047E-02  2.0324511E-02  3.8321614E-02
   18.7500  3.3863270E-02  2.0564894E-02  3.8019621E-02
   19.0000  3.3559098E-02  2.0834556E-02  3.7693590E-02
   19.2500  3.3316258E-02  2.1131696E-02  3.7353618E-02
   19.5000  3.3138499E-02  2.1454810E-02  3.7008590E-02
   19.7500  3.3027736E-02  2.1802680E-02  3.6665694E-02
   20.0000  3.2984214E-02  2.2174211E-02  3.6330317E-02
   21.0000  3.3442371E-02  2.3865220E-02  3.5125760E-02
   22.0000  3.4711465E-02  2.5802443E-02  3.4159441E-02
   23.0000  3.6314614E-02  2.7881773E-02  3.3289319E-02
   24.0000  3.7527973E-02  2.9965177E-02  3.2321789E-02
   25.0000  3.7623572E-02  3.1854557E-02  3.1163089E-02
   26.0000  3.6322548E-02  3.3334038E-02  2.9880548E-02
   27.0000  3.3990075E-02  3.4293787E-02  2.8613153E-02
   28.0000  3.1314950E-02  3.4733913E-02  2.7491046E-02
   29.0000  2.8860783E-02  3.4724465E-02  2.6592845E-02
   30.0000  2.6886951E-02  3.4369282E-02  2.5934069E-02
   31.0000  2.5415973E-02  3.3773732E-02  2.5479205E-02
   32.0000  2.4358798E-02  3.3024655E-02  2.5161938E-02
   33.0000  2.3599576E-02  3.2183536E-02  2.4903993E-02
   34.0000  2.3033589E-02  3.1289085E-02  2.4629604E-02
   35.0000  2.2578882E-02  3.0364641E-02  2.4276954E-02
   36.0000  2.2177818E-02  2.9427302E-02  2.3809513E-02
   37.0000  2.1795989E-02  2.8496181E-02  2.3226986E-02
   38.0000  2.1421432E-02  2.7599989E-02  2.2571296E-02
   39.0000  2.1065817E-02  2.6786861E-02  2.1922820E-02
   40.0000  2.0763399E-02  2.6129334E-02  2.1380306E-02
