    Energy   (100,001)      (010,001)      (001,110)   
  -25.0000  1.6775244E-04  1.7865648E-04  1.7716398E-04
  -24.0000  1.7383360E-04  1.8569213E-04  1.8366728E-04
  -23.0000  1.8032395E-04  1.9324976E-04  1.9062078E-04
  -22.0000  1.8726465E-04  2.0138779E-04  1.9807152E-04
  -21.0000  1.9470246E-04  2.1017350E-04  2.0607326E-04
  -20.0000  2.0269071E-04  2.1968484E-04  2.1468769E-04
  -19.0000  2.1129053E-04  2.3001249E-04  2.2398591E-04
  -18.0000  2.2057223E-04  2.4126263E-04  2.3405036E-04
  -17.0000  2.3061718E-04  2.5356031E-04  2.4497707E-04
  -16.0000  2.4151996E-04  2.6705381E-04  2.5687867E-04
  -15.0000  2.5339122E-04  2.8192017E-04  2.6988802E-04
  -14.0000  2.6636115E-04  2.9837247E-04  2.8416305E-04
  -13.0000  2.8058404E-04  3.1666934E-04  2.9989288E-04
  -12.0000  2.9624404E-04  3.3712765E-04  3.1730597E-04
  -11.0000  3.1356283E-04  3.6013961E-04  3.3668091E-04
  -10.0000  3.3280960E-04  3.8619630E-04  3.5836100E-04
  -9.00000  3.5431458E-04  4.1592039E-04  3.8277431E-04
  -8.00000  3.7848750E-04  4.5011279E-04  4.1046178E-04
  -7.00000  4.0584319E-04  4.8982039E-04  4.4211744E-04
  -6.00000  4.3703806E-04  5.3643709E-04  4.7864760E-04
  -5.00000  4.7292328E-04  5.9185872E-04  5.2126022E-04
  -4.00000  5.1462459E-04  6.5872888E-04  5.7160523E-04
  -3.00000  5.6366657E-04  7.4084503E-04  6.3200376E-04
  -2.00000  6.2217482E-04  8.4386285E-04  7.0584298E-04
  -1.00000  6.9322371E-04  9.7659490E-04  7.9830204E-04
   0.00000  7.8148061E-04  1.1536015E-03  9.1780431E-04
   1.00000  8.9452675E-04  1.4009371E-03  1.0792715E-03
   2.00000  1.0459974E-03  1.7709649E-03  1.3126726E-03
   3.00000  1.2649785E-03  2.3903268E-03  1.6914734E-03
   4.00000  1.6368675E-03  3.6831791E-03  2.4692370E-03
   5.00000  2.5118462E-03  7.5416383E-03  4.8040044E-03
   5.20000  2.7746922E-03  8.7467345E-03  5.5261806E-03
   5.40000  3.0408007E-03  9.9252650E-03  6.2228975E-03
   5.60000  3.3055694E-03  1.1041983E-02  6.8739800E-03
   5.80000  3.5744031E-03  1.2118632E-02  7.4934799E-03
   6.00000  3.8559209E-03  1.3193368E-02  8.0997129E-03
   6.20000  4.1584454E-03  1.4302224E-02  8.7006403E-03
   6.40000  4.4884817E-03  1.5475738E-02  9.2918661E-03
   6.60000  4.8497156E-03  1.6739933E-02  9.8622431E-03
   6.80000  5.2427973E-03  1.8117981E-02  1.0403994E-02
   7.00000  5.6666021E-03  1.9631885E-02  1.0921888E-02
   7.20000  6.1206705E-03  2.1303842E-02  1.1435421E-02
   7.40000  6.6074638E-03  2.3156692E-02  1.1973061E-02
   7.60000  7.1333122E-03  2.5213075E-02  1.2563498E-02
   7.80000  7.7080711E-03  2.7493455E-02  1.3229371E-02
   8.00000  8.3441628E-03  3.0013900E-02  1.3985398E-02
   8.20000  9.0555375E-03  3.2784847E-02  1.4839857E-02
   8.40000  9.8567600E-03  3.5811357E-02  1.5797537E-02
   8.60000  1.0762179E-02  3.9092974E-02  1.6862351E-02
   8.80000  1.1785062E-02  4.2618475E-02  1.8037955E-02
   9.00000  1.2936696E-02  4.6350944E-02  1.9325499E-02
   9.20000  1.4225418E-02  5.0204172E-02  2.0719260E-02
   9.40000  1.5655229E-02  5.4019634E-02  2.2202555E-02
   9.60000  1.7223318E-02  5.7558254E-02  2.3746544E-02
   9.80000  1.8916473E-02  6.0520237E-02  2.5313273E-02
   10.0000  2.0707580E-02  6.2598246E-02  2.6862226E-02
   10.2500  2.3016504E-02  6.3599975E-02  2.8719209E-02
   10.5000  2.5290092E-02  6.2699938E-02  3.0442165E-02
   10.7500  2.7386143E-02  6.0139371E-02  3.2006420E-02
   11.0000  2.9171643E-02  5.6434923E-02  3.3408407E-02
   11.2500  3.0560493E-02  5.2164065E-02  3.4655201E-02
   11.5000  3.1539739E-02  4.7801208E-02  3.5756938E-02
   11.7500  3.2168490E-02  4.3658036E-02  3.6723240E-02
   12.0000  3.2550520E-02  3.9898530E-02  3.7561439E-02
   12.2500  3.2799532E-02  3.6582023E-02  3.8277134E-02
   12.5000  3.3013816E-02  3.3705365E-02  3.8875351E-02
   12.7500  3.3264729E-02  3.1233975E-02  3.9361242E-02
   13.0000  3.3596031E-02  2.9121103E-02  3.9740774E-02
   13.2500  3.4028947E-02  2.7318194E-02  4.0021053E-02
   13.5000  3.4568384E-02  2.5780024E-02  4.0209274E-02
   13.7500  3.5208139E-02  2.4467000E-02  4.0311305E-02
   14.0000  3.5934833E-02  2.3345758E-02  4.0332282E-02
   14.2500  3.6730819E-02  2.2388878E-02  4.0279046E-02
   14.5000  3.7576148E-02  2.1574138E-02  4.0161790E-02
   14.7500  3.8449485E-02  2.0883603E-02  3.9993255E-02
   15.0000  3.9328303E-02  2.0302835E-02  3.9786638E-02
   15.2500  4.0188918E-02  1.9820265E-02  3.9553802E-02
   15.5000  4.1006765E-02  1.9426678E-02  3.9304226E-02
   15.7500  4.1757052E-02  1.9114768E-02  3.9044568E-02
   16.0000  4.2415840E-02  1.8878741E-02  3.8778676E-02
   16.2500  4.2961471E-02  1.8713952E-02  3.8507932E-02
   16.5000  4.3376170E-02  1.8616580E-02  3.8231851E-02
   16.7500  4.3647604E-02  1.8583354E-02  3.7948792E-02
   17.0000  4.3770111E-02  1.8611325E-02  3.7656694E-02
   17.2500  4.3745387E-02  1.8697693E-02  3.7353704E-02
   17.5000  4.3582470E-02  1.8839690E-02  3.7038632E-02
   17.7500  4.3297032E-02  1.9034518E-02  3.6711220E-02
   18.0000  4.2910040E-02  1.9279329E-02  3.6372207E-02
   18.2500  4.2446018E-02  1.9571247E-02  3.6023258E-02
   18.5000  4.1931105E-02  1.9907409E-02  3.5666788E-02
   18.7500  4.1391162E-02  2.0285025E-02  3.5305733E-02
   19.0000  4.0850095E-02  2.0701460E-02  3.4943286E-02
   19.2500  4.0328518E-02  2.1154321E-02  3.4582640E-02
   19.5000  3.9842795E-02  2.1641548E-02  3.4226730E-02
   19.7500  3.9404517E-02  2.2161397E-02  3.3878051E-02
   20.0000  3.9020483E-02  2.2712185E-02  3.3538663E-02
   21.0000  3.8033542E-02  2.5170720E-02  3.2310857E-02
   22.0000  3.7666060E-02  2.7876292E-02  3.1342339E-02
   23.0000  3.7336398E-02  3.0568239E-02  3.0617189E-02
   24.0000  3.6538792E-02  3.2886045E-02  3.0067696E-02
   25.0000  3.5091179E-02  3.4452516E-02  2.9616994E-02
   26.0000  3.3178870E-02  3.5066450E-02  2.9211691E-02
   27.0000  3.1189615E-02  3.4813097E-02  2.8842140E-02
   28.0000  2.9432296E-02  3.3965786E-02  2.8526487E-02
   29.0000  2.8044111E-02  3.2810906E-02  2.8291007E-02
   30.0000  2.7023889E-02  3.1554619E-02  2.8145405E-02
   31.0000  2.6293721E-02  3.0314179E-02  2.8068651E-02
   32.0000  2.5752593E-02  2.9142272E-02  2.8014957E-02
   33.0000  2.5308131E-02  2.8053823E-02  2.7929676E-02
   34.0000  2.4891304E-02  2.7045547E-02  2.7763113E-02
   35.0000  2.4461614E-02  2.6107974E-02  2.7478029E-02
   36.0000  2.4006537E-02  2.5232063E-02  2.7053879E-02
   37.0000  2.3535908E-02  2.4413357E-02  2.6492208E-02
   38.0000  2.3073402E-02  2.3657358E-02  2.5825537E-02
   39.0000  2.2651096E-02  2.2988298E-02  2.5130017E-02
   40.0000  2.2307315E-02  2.2452142E-02  2.4525161E-02
