    Energy   (100,001)      (010,001)      (001,110)   
  -25.0000  1.7210863E-04  1.8251708E-04  1.8596908E-04
  -24.0000  1.7831689E-04  1.8956847E-04  1.9261723E-04
  -23.0000  1.8494525E-04  1.9713554E-04  1.9972184E-04
  -22.0000  1.9203645E-04  2.0527532E-04  2.0733072E-04
  -21.0000  1.9963915E-04  2.1405340E-04  2.1549860E-04
  -20.0000  2.0780895E-04  2.2354563E-04  2.2428831E-04
  -19.0000  2.1660971E-04  2.3384014E-04  2.3377245E-04
  -18.0000  2.2611510E-04  2.4503992E-04  2.4403526E-04
  -17.0000  2.3641056E-04  2.5726606E-04  2.5517512E-04
  -16.0000  2.4759573E-04  2.7066181E-04  2.6730763E-04
  -15.0000  2.5978750E-04  2.8539790E-04  2.8056952E-04
  -14.0000  2.7312399E-04  3.0167930E-04  2.9512378E-04
  -13.0000  2.8776945E-04  3.1975416E-04  3.1116622E-04
  -12.0000  3.0392090E-04  3.3992570E-04  3.2893430E-04
  -11.0000  3.2181664E-04  3.6256807E-04  3.4871882E-04
  -10.0000  3.4174777E-04  3.8814818E-04  3.7087992E-04
  -9.00000  3.6407378E-04  4.1725585E-04  3.9586930E-04
  -8.00000  3.8924404E-04  4.5064660E-04  4.2426159E-04
  -7.00000  4.1782827E-04  4.8930334E-04  4.5679995E-04
  -6.00000  4.5056040E-04  5.3452779E-04  4.9446380E-04
  -5.00000  4.8840388E-04  5.8807956E-04  5.3857307E-04
  -4.00000  5.3265185E-04  6.5239475E-04  5.9095439E-04
  -3.00000  5.8508733E-04  7.3094327E-04  6.5421831E-04
  -2.00000  6.4825197E-04  8.2884058E-04  7.3224800E-04
  -1.00000  7.2592611E-04  9.5395855E-04  8.3112161E-04
   0.00000  8.2405843E-04  1.1191003E-03  9.6101466E-04
   1.00000  9.5277551E-04  1.3467128E-03  1.1406130E-03
   2.00000  1.1314601E-03  1.6806857E-03  1.4091689E-03
   3.00000  1.4049895E-03  2.2231598E-03  1.8683839E-03
   4.00000  1.9188952E-03  3.2983032E-03  2.8924408E-03
   5.00000  3.3179208E-03  6.3107948E-03  6.2917969E-03
   5.20000  3.7515050E-03  7.2780933E-03  7.3559439E-03
   5.40000  4.1789262E-03  8.2725018E-03  8.3176519E-03
   5.60000  4.5841665E-03  9.2691852E-03  9.0825515E-03
   5.80000  4.9705946E-03  1.0274992E-02  9.6368679E-03
   6.00000  5.3492024E-03  1.1305336E-02  1.0028088E-02
   6.20000  5.7321009E-03  1.2374790E-02  1.0338058E-02
   6.40000  6.1301757E-03  1.3497362E-02  1.0655238E-02
   6.60000  6.5525224E-03  1.4689476E-02  1.1054390E-02
   6.80000  7.0068551E-03  1.5972100E-02  1.1587411E-02
   7.00000  7.5002186E-03  1.7370509E-02  1.2280455E-02
   7.20000  8.0391731E-03  1.8912148E-02  1.3131673E-02
   7.40000  8.6290550E-03  2.0624037E-02  1.4109662E-02
   7.60000  9.2727776E-03  2.2531090E-02  1.5157696E-02
   7.80000  9.9702398E-03  2.4655839E-02  1.6207416E-02
   8.00000  1.0719139E-02  2.7018963E-02  1.7198293E-02
   8.20000  1.1516993E-02  2.9639442E-02  1.8093679E-02
   8.40000  1.2363368E-02  3.2533272E-02  1.8886598E-02
   8.60000  1.3261327E-02  3.5710127E-02  1.9595781E-02
   8.80000  1.4217669E-02  3.9167308E-02  2.0256903E-02
   9.00000  1.5241939E-02  4.2880040E-02  2.0913089E-02
   9.20000  1.6344362E-02  4.6787672E-02  2.1606050E-02
   9.40000  1.7533081E-02  5.0777542E-02  2.2368068E-02
   9.60000  1.8811334E-02  5.4672298E-02  2.3215734E-02
   9.80000  2.0175255E-02  5.8230390E-02  2.4147149E-02
   10.0000  2.1612552E-02  6.1169152E-02  2.5143874E-02
   10.2500  2.3479121E-02  6.3556179E-02  2.6437515E-02
   10.5000  2.5366730E-02  6.4174558E-02  2.7729673E-02
   10.7500  2.7201018E-02  6.2967900E-02  2.8976995E-02
   11.0000  2.8902517E-02  6.0220150E-02  3.0157199E-02
   11.2500  3.0399475E-02  5.6432341E-02  3.1262349E-02
   11.5000  3.1642244E-02  5.2142298E-02  3.2289416E-02
   11.7500  3.2613743E-02  4.7790464E-02  3.3234389E-02
   12.0000  3.3330103E-02  4.3669297E-02  3.4089937E-02
   12.2500  3.3832008E-02  3.9934223E-02  3.4845867E-02
   12.5000  3.4172096E-02  3.6640502E-02  3.5491586E-02
   12.7500  3.4403575E-02  3.3782891E-02  3.6018841E-02
   13.0000  3.4573014E-02  3.1327101E-02  3.6423811E-02
   13.2500  3.4717477E-02  2.9228874E-02  3.6708699E-02
   13.5000  3.4864013E-02  2.7443041E-02  3.6882426E-02
   13.7500  3.5030506E-02  2.5927360E-02  3.6960236E-02
   14.0000  3.5227925E-02  2.4644147E-02  3.6962335E-02
   14.2500  3.5462913E-02  2.3560804E-02  3.6911771E-02
   14.5000  3.5739646E-02  2.2649684E-02  3.6831974E-02
   14.7500  3.6060785E-02  2.1887623E-02  3.6744444E-02
   15.0000  3.6427790E-02  2.1255352E-02  3.6666903E-02
   15.2500  3.6840834E-02  2.0736914E-02  3.6612051E-02
   15.5000  3.7298522E-02  2.0319138E-02  3.6586947E-02
   15.7500  3.7797520E-02  1.9991175E-02  3.6592988E-02
   16.0000  3.8332227E-02  1.9744097E-02  3.6626432E-02
   16.2500  3.8894560E-02  1.9570553E-02  3.6679373E-02
   16.5000  3.9473950E-02  1.9464470E-02  3.6741061E-02
   16.7500  4.0057589E-02  1.9420792E-02  3.6799383E-02
   17.0000  4.0630955E-02  1.9435259E-02  3.6842356E-02
   17.2500  4.1178615E-02  1.9504208E-02  3.6859408E-02
   17.5000  4.1685253E-02  1.9624409E-02  3.6842348E-02
   17.7500  4.2136809E-02  1.9792922E-02  3.6785900E-02
   18.0000  4.2521592E-02  2.0006987E-02  3.6687828E-02
   18.2500  4.2831184E-02  2.0263933E-02  3.6548700E-02
   18.5000  4.3060961E-02  2.0561127E-02  3.6371401E-02
   18.7500  4.3210127E-02  2.0895939E-02  3.6160501E-02
   19.0000  4.3281251E-02  2.1265758E-02  3.5921587E-02
   19.2500  4.3279378E-02  2.1668035E-02  3.5660623E-02
   19.5000  4.3210900E-02  2.2100355E-02  3.5383397E-02
   19.7500  4.3082417E-02  2.2560435E-02  3.5095132E-02
   20.0000  4.2899863E-02  2.3045913E-02  3.4800350E-02
   21.0000  4.1706642E-02  2.5172970E-02  3.3631175E-02
   22.0000  3.9825599E-02  2.7410486E-02  3.2584163E-02
   23.0000  3.7302081E-02  2.9531203E-02  3.1672005E-02
   24.0000  3.4436728E-02  3.1334864E-02  3.0836194E-02
   25.0000  3.1717837E-02  3.2678062E-02  3.0016784E-02
   26.0000  2.9510357E-02  3.3499102E-02  2.9189698E-02
   27.0000  2.7883495E-02  3.3820280E-02  2.8381428E-02
   28.0000  2.6689570E-02  3.3725101E-02  2.7659189E-02
   29.0000  2.5758046E-02  3.3320289E-02  2.7098570E-02
   30.0000  2.5014419E-02  3.2703630E-02  2.6747507E-02
   31.0000  2.4460303E-02  3.1949332E-02  2.6607481E-02
   32.0000  2.4099166E-02  3.1112063E-02  2.6636920E-02
   33.0000  2.3899188E-02  3.0231802E-02  2.6769044E-02
   34.0000  2.3805563E-02  2.9324843E-02  2.6934303E-02
   35.0000  2.3759113E-02  2.8396030E-02  2.7076545E-02
   36.0000  2.3709787E-02  2.7451863E-02  2.7158821E-02
   37.0000  2.3626944E-02  2.6505731E-02  2.7161730E-02
   38.0000  2.3504848E-02  2.5584770E-02  2.7081507E-02
   39.0000  2.3361414E-02  2.4741211E-02  2.6936411E-02
   40.0000  2.3228691E-02  2.4055275E-02  2.6777329E-02
