    Energy   (100,001)      (010,001)      (001,110)   
  -25.0000  1.6940636E-04  1.7509068E-04  1.6897246E-04
  -24.0000  1.7592302E-04  1.8202465E-04  1.7558836E-04
  -23.0000  1.8290463E-04  1.8947370E-04  1.8268458E-04
  -22.0000  1.9040068E-04  1.9749545E-04  1.9031324E-04
  -21.0000  1.9846781E-04  2.0615627E-04  1.9853411E-04
  -20.0000  2.0717109E-04  2.1553298E-04  2.0741607E-04
  -19.0000  2.1658562E-04  2.2571499E-04  2.1703887E-04
  -18.0000  2.2679855E-04  2.3680694E-04  2.2749535E-04
  -17.0000  2.3791151E-04  2.4893205E-04  2.3889422E-04
  -16.0000  2.5004378E-04  2.6223636E-04  2.5136357E-04
  -15.0000  2.6333619E-04  2.7689419E-04  2.6505530E-04
  -14.0000  2.7795618E-04  2.9311527E-04  2.8015094E-04
  -13.0000  2.9410430E-04  3.1115404E-04  2.9686915E-04
  -12.0000  3.1202278E-04  3.3132205E-04  3.1547564E-04
  -11.0000  3.3200680E-04  3.5400470E-04  3.3629651E-04
  -10.0000  3.5441967E-04  3.7968413E-04  3.5973630E-04
  -9.00000  3.7971351E-04  4.0897112E-04  3.8630309E-04
  -8.00000  4.0845806E-04  4.4265032E-04  4.1664376E-04
  -7.00000  4.4138127E-04  4.8174590E-04  4.5159499E-04
  -6.00000  4.7942836E-04  5.2761888E-04  4.9225865E-04
  -5.00000  5.2384933E-04  5.8211594E-04  5.4011673E-04
  -4.00000  5.7633332E-04  6.4780397E-04  5.9721278E-04
  -3.00000  6.3922200E-04  7.2835463E-04  6.6645063E-04
  -2.00000  7.1586423E-04  8.2920473E-04  7.5211221E-04
  -1.00000  8.1123894E-04  9.5875775E-04  8.6081471E-04
   0.00000  9.3313109E-04  1.1307387E-03  1.0034336E-03
   1.00000  1.0945791E-03  1.3692926E-03  1.1994195E-03
   2.00000  1.3197383E-03  1.7217050E-03  1.4881252E-03
   3.00000  1.6613462E-03  2.2978149E-03  1.9662738E-03
   4.00000  2.2751842E-03  3.4436095E-03  2.9657812E-03
   5.00000  3.7961225E-03  6.6491430E-03  6.0042426E-03
   5.20000  4.2651680E-03  7.6840273E-03  6.9712910E-03
   5.40000  4.7486571E-03  8.7540861E-03  7.9335661E-03
   5.60000  5.2417555E-03  9.8312808E-03  8.8616922E-03
   5.80000  5.7572796E-03  1.0919540E-02  9.7567393E-03
   6.00000  6.3135366E-03  1.2033038E-02  1.0618626E-02
   6.20000  6.9279381E-03  1.3188759E-02  1.1439084E-02
   6.40000  7.6147088E-03  1.4408109E-02  1.2209541E-02
   6.60000  8.3839482E-03  1.5719700E-02  1.2930972E-02
   6.80000  9.2412171E-03  1.7160335E-02  1.3619180E-02
   7.00000  1.0187588E-02  1.8774150E-02  1.4303155E-02
   7.20000  1.1220423E-02  2.0610784E-02  1.5017082E-02
   7.40000  1.2335516E-02  2.2723149E-02  1.5789789E-02
   7.60000  1.3531218E-02  2.5164865E-02  1.6638177E-02
   7.80000  1.4813566E-02  2.7986874E-02  1.7570037E-02
   8.00000  1.6198809E-02  3.1232036E-02  1.8594764E-02
   8.20000  1.7709796E-02  3.4926037E-02  1.9732606E-02
   8.40000  1.9367345E-02  3.9063018E-02  2.1013793E-02
   8.60000  2.1182028E-02  4.3585255E-02  2.2468752E-02
   8.80000  2.3150426E-02  4.8358909E-02  2.4117156E-02
   9.00000  2.5255246E-02  5.3153010E-02  2.5960674E-02
   9.20000  2.7466029E-02  5.7635584E-02  2.7979327E-02
   9.40000  2.9739815E-02  6.1404436E-02  3.0131042E-02
   9.60000  3.2023753E-02  6.4061778E-02  3.2354833E-02
   9.80000  3.4259277E-02  6.5317150E-02  3.4576513E-02
   10.0000  3.6386021E-02  6.5075508E-02  3.6715019E-02
   10.2500  3.8801314E-02  6.2878865E-02  3.9146050E-02
   10.5000  4.0848314E-02  5.9150822E-02  4.1170845E-02
   10.7500  4.2446308E-02  5.4614641E-02  4.2679401E-02
   11.0000  4.3554387E-02  4.9883493E-02  4.3622031E-02
   11.2500  4.4179368E-02  4.5362776E-02  4.4016973E-02
   11.5000  4.4373530E-02  4.1261435E-02  4.3938950E-02
   11.7500  4.4222728E-02  3.7649710E-02  4.3493905E-02
   12.0000  4.3827713E-02  3.4520501E-02  4.2794318E-02
   12.2500  4.3285942E-02  3.1833643E-02  4.1944729E-02
   12.5000  4.2681000E-02  2.9539268E-02  4.1034168E-02
   12.7500  4.2078677E-02  2.7587828E-02  4.0133270E-02
   13.0000  4.1526185E-02  2.5934153E-02  3.9295120E-02
   13.2500  4.1052822E-02  2.4538569E-02  3.8556737E-02
   13.5000  4.0672059E-02  2.3366589E-02  3.7940282E-02
   13.7500  4.0385244E-02  2.2388239E-02  3.7455174E-02
   14.0000  4.0185209E-02  2.1577513E-02  3.7100983E-02
   14.2500  4.0057943E-02  2.0912097E-02  3.6870515E-02
   14.5000  3.9983479E-02  2.0373179E-02  3.6752254E-02
   14.7500  3.9938017E-02  1.9945014E-02  3.6731320E-02
   15.0000  3.9896804E-02  1.9614361E-02  3.6789522E-02
   15.2500  3.9836498E-02  1.9370021E-02  3.6905495E-02
   15.5000  3.9736757E-02  1.9202509E-02  3.7055292E-02
   15.7500  3.9581303E-02  1.9103818E-02  3.7213468E-02
   16.0000  3.9358647E-02  1.9067228E-02  3.7354599E-02
   16.2500  3.9062548E-02  1.9087125E-02  3.7455141E-02
   16.5000  3.8692151E-02  1.9158848E-02  3.7495364E-02
   16.7500  3.8251766E-02  1.9278522E-02  3.7461024E-02
   17.0000  3.7750240E-02  1.9442915E-02  3.7344434E-02
   17.2500  3.7199949E-02  1.9649300E-02  3.7144700E-02
   17.5000  3.6615532E-02  1.9895321E-02  3.6867091E-02
   17.7500  3.6012518E-02  2.0178887E-02  3.6521736E-02
   18.0000  3.5406036E-02  2.0498071E-02  3.6121933E-02
   18.2500  3.4809771E-02  2.0851030E-02  3.5682427E-02
   18.5000  3.4235260E-02  2.1235947E-02  3.5217914E-02
   18.7500  3.3691554E-02  2.1650993E-02  3.4741919E-02
   19.0000  3.3185207E-02  2.2094319E-02  3.4266070E-02
   19.2500  3.2720478E-02  2.2564091E-02  3.3799717E-02
   19.5000  3.2299664E-02  2.3058542E-02  3.3349812E-02
   19.7500  3.1923489E-02  2.3575962E-02  3.2920999E-02
   20.0000  3.1591538E-02  2.4114459E-02  3.2515952E-02
   21.0000  3.0682274E-02  2.6414864E-02  3.1148862E-02
   22.0000  3.0339836E-02  2.8759536E-02  3.0141175E-02
   23.0000  3.0301374E-02  3.0875589E-02  2.9339725E-02
   24.0000  3.0210235E-02  3.2494208E-02  2.8593024E-02
   25.0000  2.9795790E-02  3.3496376E-02  2.7817975E-02
   26.0000  2.9029592E-02  3.3910564E-02  2.7017827E-02
   27.0000  2.8064508E-02  3.3836761E-02  2.6262118E-02
   28.0000  2.7064355E-02  3.3384925E-02  2.5639668E-02
   29.0000  2.6137247E-02  3.2659177E-02  2.5204012E-02
   30.0000  2.5338932E-02  3.1759802E-02  2.4941932E-02
   31.0000  2.4675449E-02  3.0771396E-02  2.4784288E-02
   32.0000  2.4115993E-02  2.9748991E-02  2.4640021E-02
   33.0000  2.3615874E-02  2.8717301E-02  2.4425427E-02
   34.0000  2.3136037E-02  2.7680676E-02  2.4080820E-02
   35.0000  2.2655269E-02  2.6636134E-02  2.3580325E-02
   36.0000  2.2174537E-02  2.5584766E-02  2.2939665E-02
   37.0000  2.1712802E-02  2.4540795E-02  2.2217928E-02
   38.0000  2.1297113E-02  2.3538884E-02  2.1504661E-02
   39.0000  2.0952288E-02  2.2639121E-02  2.0890582E-02
   40.0000  2.0692592E-02  2.1919814E-02  2.0431450E-02
