    Energy   (100,001)      (010,001)      (001,110)   
  -25.0000  1.7734993E-04  1.7864663E-04  1.7552157E-04
  -24.0000  1.8397430E-04  1.8556669E-04  1.8224412E-04
  -23.0000  1.9106582E-04  1.9299343E-04  1.8945015E-04
  -22.0000  1.9867415E-04  2.0098291E-04  1.9719193E-04
  -21.0000  2.0685614E-04  2.0959963E-04  2.0552940E-04
  -20.0000  2.1567716E-04  2.1891818E-04  2.1453159E-04
  -19.0000  2.2521270E-04  2.2902521E-04  2.2427845E-04
  -18.0000  2.3555046E-04  2.4002203E-04  2.3486303E-04
  -17.0000  2.4679282E-04  2.5202772E-04  2.4639426E-04
  -16.0000  2.5906008E-04  2.6518321E-04  2.5900046E-04
  -15.0000  2.7249445E-04  2.7965646E-04  2.7283378E-04
  -14.0000  2.8726532E-04  2.9564913E-04  2.8807604E-04
  -13.0000  3.0357595E-04  3.1340542E-04  3.0494616E-04
  -12.0000  3.2167233E-04  3.3322371E-04  3.2371012E-04
  -11.0000  3.4185495E-04  3.5547231E-04  3.4469422E-04
  -10.0000  3.6449464E-04  3.8061079E-04  3.6830314E-04
  -9.00000  3.9005437E-04  4.0921987E-04  3.9504477E-04
  -8.00000  4.1911949E-04  4.4204339E-04  4.2556533E-04
  -7.00000  4.5244099E-04  4.8004916E-04  4.6069979E-04
  -6.00000  4.9099836E-04  5.2451891E-04  5.0154620E-04
  -5.00000  5.3609361E-04  5.7718502E-04  5.4957850E-04
  -4.00000  5.8949649E-04  6.4044528E-04  6.0682337E-04
  -3.00000  6.5367672E-04  7.1771328E-04  6.7614878E-04
  -2.00000  7.3219283E-04  8.1401692E-04  7.6175786E-04
  -1.00000  8.3038017E-04  9.3708161E-04  8.7008608E-04
   0.00000  9.5665892E-04  1.0994408E-03  1.0115592E-03
   1.00000  1.1252728E-03  1.3229787E-03  1.2044017E-03
   2.00000  1.3628738E-03  1.6501985E-03  1.4841234E-03
   3.00000  1.7281210E-03  2.1789582E-03  1.9326127E-03
   4.00000  2.3946111E-03  3.2149456E-03  2.8024367E-03
   5.00000  4.0723684E-03  6.0622064E-03  5.1718723E-03
   5.20000  4.5997259E-03  6.9717815E-03  5.9754601E-03
   5.40000  5.1504886E-03  7.9107158E-03  6.8662573E-03
   5.60000  5.7172844E-03  8.8610804E-03  7.8454300E-03
   5.80000  6.3100138E-03  9.8351495E-03  8.9259465E-03
   6.00000  6.9445852E-03  1.0851834E-02  1.0111157E-02
   6.20000  7.6377542E-03  1.1926134E-02  1.1381437E-02
   6.40000  8.4061325E-03  1.3068694E-02  1.2690815E-02
   6.60000  9.2661625E-03  1.4289972E-02  1.3975829E-02
   6.80000  1.0233794E-02  1.5606174E-02  1.5177469E-02
   7.00000  1.1323431E-02  1.7043900E-02  1.6266875E-02
   7.20000  1.2545956E-02  1.8640593E-02  1.7257243E-02
   7.40000  1.3906241E-02  2.0440796E-02  1.8192589E-02
   7.60000  1.5401758E-02  2.2491192E-02  1.9124374E-02
   7.80000  1.7024916E-02  2.4836965E-02  2.0096926E-02
   8.00000  1.8769923E-02  2.7518729E-02  2.1150727E-02
   8.20000  2.0639703E-02  3.0566675E-02  2.2331433E-02
   8.40000  2.2645074E-02  3.3989484E-02  2.3685704E-02
   8.60000  2.4793796E-02  3.7759649E-02  2.5240577E-02
   8.80000  2.7076018E-02  4.1800545E-02  2.6981200E-02
   9.00000  2.9454829E-02  4.5980547E-02  2.8842548E-02
   9.20000  3.1866078E-02  5.0116696E-02  3.0720376E-02
   9.40000  3.4226358E-02  5.3987499E-02  3.2497422E-02
   9.60000  3.6445162E-02  5.7353449E-02  3.4074766E-02
   9.80000  3.8436474E-02  5.9984086E-02  3.5395828E-02
   10.0000  4.0126463E-02  6.1689810E-02  3.6454321E-02
   10.2500  4.1727499E-02  6.2351695E-02  3.7464287E-02
   10.5000  4.2690181E-02  6.1377020E-02  3.8229630E-02
   10.7500  4.2990200E-02  5.8992856E-02  3.8845004E-02
   11.0000  4.2674508E-02  5.5598678E-02  3.9355066E-02
   11.2500  4.1866715E-02  5.1647704E-02  3.9756252E-02
   11.5000  4.0738923E-02  4.7538821E-02  4.0021876E-02
   11.7500  3.9464612E-02  4.3559237E-02  4.0129767E-02
   12.0000  3.8188146E-02  3.9880073E-02  4.0076242E-02
   12.2500  3.7015759E-02  3.6580822E-02  3.9877344E-02
   12.5000  3.6016407E-02  3.3679470E-02  3.9564699E-02
   12.7500  3.5226885E-02  3.1159218E-02  3.9178182E-02
   13.0000  3.4659155E-02  2.8988128E-02  3.8757839E-02
   13.2500  3.4307765E-02  2.7129484E-02  3.8338160E-02
   13.5000  3.4155634E-02  2.5546178E-02  3.7945474E-02
   13.7500  3.4177777E-02  2.4203011E-02  3.7597621E-02
   14.0000  3.4343480E-02  2.3068123E-02  3.7304871E-02
   14.2500  3.4617683E-02  2.2113711E-02  3.7071318E-02
   14.5000  3.4962195E-02  2.1316165E-02  3.6896288E-02
   14.7500  3.5337151E-02  2.0655842E-02  3.6775517E-02
   15.0000  3.5702932E-02  2.0116635E-02  3.6702064E-02
   15.2500  3.6022503E-02  1.9685462E-02  3.6666980E-02
   15.5000  3.6263956E-02  1.9351735E-02  3.6659838E-02
   15.7500  3.6402877E-02  1.9106863E-02  3.6669211E-02
   16.0000  3.6424091E-02  1.8943790E-02  3.6683192E-02
   16.2500  3.6322439E-02  1.8856594E-02  3.6690003E-02
   16.5000  3.6102445E-02  1.8840136E-02  3.6678699E-02
   16.7500  3.5776981E-02  1.8889787E-02  3.6639918E-02
   17.0000  3.5365215E-02  1.9001208E-02  3.6566583E-02
   17.2500  3.4890268E-02  1.9170212E-02  3.6454416E-02
   17.5000  3.4376903E-02  1.9392672E-02  3.6302169E-02
   17.7500  3.3849537E-02  1.9664487E-02  3.6111501E-02
   18.0000  3.3330686E-02  1.9981578E-02  3.5886525E-02
   18.2500  3.2839872E-02  2.0339914E-02  3.5633107E-02
   18.5000  3.2392957E-02  2.0735551E-02  3.5358060E-02
   18.7500  3.2001842E-02  2.1164693E-02  3.5068353E-02
   19.0000  3.1674440E-02  2.1623764E-02  3.4770439E-02
   19.2500  3.1414877E-02  2.2109493E-02  3.4469751E-02
   19.5000  3.1223832E-02  2.2619009E-02  3.4170387E-02
   19.7500  3.1098929E-02  2.3149835E-02  3.3874988E-02
   20.0000  3.1035092E-02  2.3699632E-02  3.3584857E-02
   21.0000  3.1218371E-02  2.6022924E-02  3.2475271E-02
   22.0000  3.1621402E-02  2.8363418E-02  3.1397208E-02
   23.0000  3.1697059E-02  3.0481228E-02  3.0273964E-02
   24.0000  3.1208194E-02  3.2145246E-02  2.9087449E-02
   25.0000  3.0265804E-02  3.3205798E-02  2.7881074E-02
   26.0000  2.9152643E-02  3.3654149E-02  2.6742859E-02
   27.0000  2.8110049E-02  3.3601288E-02  2.5776453E-02
   28.0000  2.7245341E-02  3.3197931E-02  2.5042775E-02
   29.0000  2.6580968E-02  3.2567250E-02  2.4544858E-02
   30.0000  2.6101439E-02  3.1799929E-02  2.4237023E-02
   31.0000  2.5768497E-02  3.0964136E-02  2.4044605E-02
   32.0000  2.5530476E-02  3.0103754E-02  2.3890157E-02
   33.0000  2.5332474E-02  2.9237422E-02  2.3714568E-02
   34.0000  2.5127558E-02  2.8365941E-02  2.3487745E-02
   35.0000  2.4886735E-02  2.7483369E-02  2.3210216E-02
   36.0000  2.4604183E-02  2.6587010E-02  2.2907021E-02
   37.0000  2.4294403E-02  2.5685064E-02  2.2614008E-02
   38.0000  2.3982522E-02  2.4803616E-02  2.2361614E-02
   39.0000  2.3696298E-02  2.3994950E-02  2.2165430E-02
   40.0000  2.3464352E-02  2.3337220E-02  2.2025655E-02
