    Energy   (100,001)      (010,001)      (001,110)   
  -25.0000  1.7159332E-04  1.7688031E-04  1.8387600E-04
  -24.0000  1.7775000E-04  1.8394804E-04  1.9045009E-04
  -23.0000  1.8432080E-04  1.9154433E-04  1.9747277E-04
  -22.0000  1.9134760E-04  1.9972855E-04  2.0499054E-04
  -21.0000  1.9887805E-04  2.0856919E-04  2.1305650E-04
  -20.0000  2.0696659E-04  2.1814552E-04  2.2173152E-04
  -19.0000  2.1567567E-04  2.2854987E-04  2.3108576E-04
  -18.0000  2.2507728E-04  2.3989032E-04  2.4120044E-04
  -17.0000  2.3525483E-04  2.5229422E-04  2.5217016E-04
  -16.0000  2.4630553E-04  2.6591254E-04  2.6410571E-04
  -15.0000  2.5834331E-04  2.8092563E-04  2.7713774E-04
  -14.0000  2.7150263E-04  2.9755050E-04  2.9142132E-04
  -13.0000  2.8594322E-04  3.1605055E-04  3.0714199E-04
  -12.0000  3.0185643E-04  3.3674843E-04  3.2452362E-04
  -11.0000  3.1947339E-04  3.6004341E-04  3.4383883E-04
  -10.0000  3.3907602E-04  3.8643512E-04  3.6542302E-04
  -9.00000  3.6101183E-04  4.1655665E-04  3.8969373E-04
  -8.00000  3.8571440E-04  4.5122147E-04  4.1717749E-04
  -7.00000  4.1373209E-04  4.9149140E-04  4.4854823E-04
  -6.00000  4.4576945E-04  5.3877744E-04  4.8468346E-04
  -5.00000  4.8274824E-04  5.9499361E-04  5.2674870E-04
  -4.00000  5.2590062E-04  6.6279919E-04  5.7632902E-04
  -3.00000  5.7691677E-04  7.4599505E-04  6.3564228E-04
  -2.00000  6.3818980E-04  8.5020258E-04  7.0790294E-04
  -1.00000  7.1324711E-04  9.8409485E-04  7.9798301E-04
   0.00000  8.0757030E-04  1.1617990E-03  9.1371648E-04
   1.00000  9.3032518E-04  1.4080679E-03  1.0687759E-03
   2.00000  1.0985998E-03  1.7710854E-03  1.2900958E-03
   3.00000  1.3504487E-03  2.3617814E-03  1.6421215E-03
   4.00000  1.8028312E-03  3.5254390E-03  2.3413013E-03
   5.00000  2.9520872E-03  6.7231045E-03  4.3612996E-03
   5.20000  3.3059668E-03  7.7387025E-03  4.9848368E-03
   5.40000  3.6630865E-03  8.7826876E-03  5.5890566E-03
   5.60000  4.0145170E-03  9.8371848E-03  6.1538665E-03
   5.80000  4.3650179E-03  1.0921878E-02  6.6896704E-03
   6.00000  4.7241406E-03  1.2067701E-02  7.2156622E-03
   6.20000  5.1021489E-03  1.3304834E-02  7.7491317E-03
   6.40000  5.5093884E-03  1.4661145E-02  8.3027512E-03
   6.60000  5.9565978E-03  1.6163996E-02  8.8846079E-03
   6.80000  6.4551111E-03  1.7842295E-02  9.4991645E-03
   7.00000  7.0166605E-03  1.9727915E-02  1.0148590E-02
   7.20000  7.6526705E-03  2.1856113E-02  1.0834075E-02
   7.40000  8.3728862E-03  2.4264571E-02  1.1556818E-02
   7.60000  9.1831501E-03  2.6990565E-02  1.2318545E-02
   7.80000  1.0082344E-02  3.0065724E-02  1.3121768E-02
   8.00000  1.1059123E-02  3.3507961E-02  1.3970165E-02
   8.20000  1.2090062E-02  3.7310755E-02  1.4869313E-02
   8.40000  1.3141587E-02  4.1431312E-02  1.5827466E-02
   8.60000  1.4177341E-02  4.5781080E-02  1.6855571E-02
   8.80000  1.5169725E-02  5.0222933E-02  1.7965999E-02
   9.00000  1.6110524E-02  5.4577026E-02  1.9170457E-02
   9.20000  1.7014447E-02  5.8632126E-02  2.0478062E-02
   9.40000  1.7913033E-02  6.2157064E-02  2.1894023E-02
   9.60000  1.8842339E-02  6.4913138E-02  2.3418601E-02
   9.80000  1.9830666E-02  6.6676543E-02  2.5045993E-02
   10.0000  2.0890648E-02  6.7277033E-02  2.6763065E-02
   10.2500  2.2306637E-02  6.6298153E-02  2.9001470E-02
   10.5000  2.3782821E-02  6.3560531E-02  3.1282895E-02
   10.7500  2.5259786E-02  5.9519837E-02  3.3525922E-02
   11.0000  2.6680134E-02  5.4774432E-02  3.5636347E-02
   11.2500  2.7999570E-02  4.9876276E-02  3.7516060E-02
   11.5000  2.9188412E-02  4.5215441E-02  3.9075022E-02
   11.7500  3.0228981E-02  4.1002943E-02  4.0247793E-02
   12.0000  3.1113811E-02  3.7313302E-02  4.1007360E-02
   12.2500  3.1845379E-02  3.4139296E-02  4.1365402E-02
   12.5000  3.2437484E-02  3.1434369E-02  4.1363822E-02
   12.7500  3.2914617E-02  2.9139099E-02  4.1065505E-02
   13.0000  3.3308089E-02  2.7194867E-02  4.0545730E-02
   13.2500  3.3652122E-02  2.5549362E-02  3.9883708E-02
   13.5000  3.3980533E-02  2.4158138E-02  3.9154662E-02
   13.7500  3.4323318E-02  2.2984296E-02  3.8423541E-02
   14.0000  3.4703950E-02  2.1997371E-02  3.7741319E-02
   14.2500  3.5138107E-02  2.1172147E-02  3.7143895E-02
   14.5000  3.5633635E-02  2.0487666E-02  3.6652881E-02
   14.7500  3.6191201E-02  1.9926437E-02  3.6277386E-02
   15.0000  3.6805199E-02  1.9473819E-02  3.6016125E-02
   15.2500  3.7464663E-02  1.9117536E-02  3.5859487E-02
   15.5000  3.8154120E-02  1.8847291E-02  3.5791461E-02
   15.7500  3.8854413E-02  1.8654446E-02  3.5791470E-02
   16.0000  3.9543628E-02  1.8531754E-02  3.5836201E-02
   16.2500  4.0198227E-02  1.8473140E-02  3.5901489E-02
   16.5000  4.0794457E-02  1.8473500E-02  3.5964236E-02
   16.7500  4.1309995E-02  1.8528535E-02  3.6004195E-02
   17.0000  4.1725712E-02  1.8634596E-02  3.6005451E-02
   17.2500  4.2027338E-02  1.8788534E-02  3.5957346E-02
   17.5000  4.2206771E-02  1.8987579E-02  3.5854763E-02
   17.7500  4.2262812E-02  1.9229225E-02  3.5697740E-02
   18.0000  4.2201196E-02  1.9511142E-02  3.5490579E-02
   18.2500  4.2033890E-02  1.9831107E-02  3.5240653E-02
   18.5000  4.1777784E-02  2.0186958E-02  3.4957138E-02
   18.7500  4.1452976E-02  2.0576584E-02  3.4649871E-02
   19.0000  4.1080887E-02  2.0997941E-02  3.4328411E-02
   19.2500  4.0682428E-02  2.1449113E-02  3.4001360E-02
   19.5000  4.0276419E-02  2.1928388E-02  3.3675919E-02
   19.7500  3.9878430E-02  2.2434272E-02  3.3357677E-02
   20.0000  3.9500243E-02  2.2965271E-02  3.3050703E-02
   21.0000  3.8307719E-02  2.5290880E-02  3.1984057E-02
   22.0000  3.7603484E-02  2.7795768E-02  3.1207186E-02
   23.0000  3.6975386E-02  3.0268627E-02  3.0653346E-02
   24.0000  3.5951086E-02  3.2432386E-02  3.0216860E-02
   25.0000  3.4349119E-02  3.3993167E-02  2.9809969E-02
   26.0000  3.2360952E-02  3.4764531E-02  2.9388521E-02
   27.0000  3.0362120E-02  3.4751108E-02  2.8960786E-02
   28.0000  2.8659536E-02  3.4116873E-02  2.8576395E-02
   29.0000  2.7378181E-02  3.3097546E-02  2.8299923E-02
   30.0000  2.6490944E-02  3.1917274E-02  2.8173450E-02
   31.0000  2.5900357E-02  3.0717410E-02  2.8184022E-02
   32.0000  2.5501327E-02  2.9558542E-02  2.8277867E-02
   33.0000  2.5207880E-02  2.8450373E-02  2.8387156E-02
   34.0000  2.4959584E-02  2.7377558E-02  2.8447435E-02
   35.0000  2.4720506E-02  2.6321113E-02  2.8407659E-02
   36.0000  2.4474049E-02  2.5273709E-02  2.8236941E-02
   37.0000  2.4215362E-02  2.4247477E-02  2.7930325E-02
   38.0000  2.3946567E-02  2.3275713E-02  2.7513964E-02
   39.0000  2.3681065E-02  2.2412661E-02  2.7050330E-02
   40.0000  2.3450435E-02  2.1726626E-02  2.6635428E-02
