    Energy   (100,001)      (010,001)      (001,110)   
  -25.0000  1.6899292E-04  1.8946631E-04  1.8231662E-04
  -24.0000  1.7502617E-04  1.9651750E-04  1.8878241E-04
  -23.0000  1.8146037E-04  2.0407195E-04  1.9568415E-04
  -22.0000  1.8833551E-04  2.1218439E-04  2.0306645E-04
  -21.0000  1.9569696E-04  2.2091767E-04  2.1098014E-04
  -20.0000  2.0359646E-04  2.3034429E-04  2.1948345E-04
  -19.0000  2.1209323E-04  2.4054840E-04  2.2864330E-04
  -18.0000  2.2125541E-04  2.5162811E-04  2.3853711E-04
  -17.0000  2.3116177E-04  2.6369854E-04  2.4925481E-04
  -16.0000  2.4190386E-04  2.7689562E-04  2.6090160E-04
  -15.0000  2.5358875E-04  2.9138098E-04  2.7360123E-04
  -14.0000  2.6634238E-04  3.0734822E-04  2.8750033E-04
  -13.0000  2.8031402E-04  3.2503117E-04  3.0277400E-04
  -12.0000  2.9568185E-04  3.4471479E-04  3.1963305E-04
  -11.0000  3.1266045E-04  3.6674978E-04  3.3833372E-04
  -10.0000  3.3151060E-04  3.9157249E-04  3.5919065E-04
  -9.00000  3.5255256E-04  4.1973245E-04  3.8259483E-04
  -8.00000  3.7618432E-04  4.5193124E-04  4.0903850E-04
  -7.00000  4.0290714E-04  4.8907840E-04  4.3915095E-04
  -6.00000  4.3336209E-04  5.3237394E-04  4.7375085E-04
  -5.00000  4.6838388E-04  5.8343347E-04  5.1392549E-04
  -4.00000  5.0908268E-04  6.4448417E-04  5.6115497E-04
  -3.00000  5.5697321E-04  7.1868411E-04  6.1751548E-04
  -2.00000  6.1418845E-04  8.1066759E-04  6.8603058E-04
  -1.00000  6.8385522E-04  9.2753392E-04  7.7132081E-04
   0.00000  7.7080796E-04  1.0807847E-03  8.8091591E-04
   1.00000  8.8309821E-04  1.2905405E-03  1.0282395E-03
   2.00000  1.0357135E-03  1.5962155E-03  1.2406247E-03
   3.00000  1.2621386E-03  2.0905647E-03  1.5868272E-03
   4.00000  1.6663797E-03  3.0768805E-03  2.3143491E-03
   5.00000  2.6955973E-03  5.8866218E-03  4.5853491E-03
   5.20000  3.0130064E-03  6.7472153E-03  5.2698981E-03
   5.40000  3.3327490E-03  7.5797042E-03  5.8926649E-03
   5.60000  3.6455078E-03  8.3571374E-03  6.4190070E-03
   5.80000  3.9532434E-03  9.0957868E-03  6.8534326E-03
   6.00000  4.2615654E-03  9.8267254E-03  7.2124495E-03
   6.20000  4.5766616E-03  1.0582504E-02  7.5136629E-03
   6.40000  4.9050407E-03  1.1394160E-02  7.7750257E-03
   6.60000  5.2537760E-03  1.2291032E-02  8.0162463E-03
   6.80000  5.6305910E-03  1.3300915E-02  8.2601421E-03
   7.00000  6.0437836E-03  1.4450245E-02  8.5335327E-03
   7.20000  6.5020503E-03  1.5764281E-02  8.8666230E-03
   7.40000  7.0142074E-03  1.7267233E-02  9.2902429E-03
   7.60000  7.5887555E-03  1.8982090E-02  9.8322239E-03
   7.80000  8.2331983E-03  2.0929751E-02  1.0514829E-02
   8.00000  8.9530286E-03  2.3127059E-02  1.1353628E-02
   8.20000  9.7503398E-03  2.5583660E-02  1.2356670E-02
   8.40000  1.0622214E-02  2.8297764E-02  1.3522749E-02
   8.60000  1.1559402E-02  3.1251258E-02  1.4838528E-02
   8.80000  1.2546219E-02  3.4405940E-02  1.6275513E-02
   9.00000  1.3562671E-02  3.7703442E-02  1.7789030E-02
   9.20000  1.4589105E-02  4.1070278E-02  1.9321704E-02
   9.40000  1.5612003E-02  4.4426358E-02  2.0812363E-02
   9.60000  1.6628064E-02  4.7691747E-02  2.2207966E-02
   9.80000  1.7643969E-02  5.0786408E-02  2.3473619E-02
   10.0000  1.8671564E-02  5.3622518E-02  2.4596402E-02
   10.2500  1.9986952E-02  5.6642626E-02  2.5809399E-02
   10.5000  2.1336976E-02  5.8852841E-02  2.6846784E-02
   10.7500  2.2698660E-02  6.0016009E-02  2.7758825E-02
   11.0000  2.4031623E-02  5.9976938E-02  2.8595703E-02
   11.2500  2.5292623E-02  5.8730786E-02  2.9398306E-02
   11.5000  2.6449148E-02  5.6439059E-02  3.0193861E-02
   11.7500  2.7485690E-02  5.3383265E-02  3.0995192E-02
   12.0000  2.8402440E-02  4.9885754E-02  3.1802247E-02
   12.2500  2.9210773E-02  4.6238605E-02  3.2606084E-02
   12.5000  2.9928803E-02  4.2663851E-02  3.3394265E-02
   12.7500  3.0577105E-02  3.9306859E-02  3.4154484E-02
   13.0000  3.1175333E-02  3.6249929E-02  3.4874738E-02
   13.2500  3.1741105E-02  3.3529395E-02  3.5543062E-02
   13.5000  3.2290025E-02  3.1149320E-02  3.6149941E-02
   13.7500  3.2835366E-02  2.9092676E-02  3.6691180E-02
   14.0000  3.3387348E-02  2.7330711E-02  3.7168600E-02
   14.2500  3.3952417E-02  2.5829937E-02  3.7588714E-02
   14.5000  3.4532810E-02  2.4556681E-02  3.7960479E-02
   14.7500  3.5126536E-02  2.3479649E-02  3.8292985E-02
   15.0000  3.5727762E-02  2.2571139E-02  3.8593580E-02
   15.2500  3.6327512E-02  2.1807399E-02  3.8866659E-02
   15.5000  3.6914567E-02  2.1168504E-02  3.9113182E-02
   15.7500  3.7476489E-02  2.0637988E-02  3.9330859E-02
   16.0000  3.8000707E-02  2.0202370E-02  3.9514867E-02
   16.2500  3.8475590E-02  1.9850667E-02  3.9658931E-02
   16.5000  3.8891422E-02  1.9573939E-02  3.9756572E-02
   16.7500  3.9241206E-02  1.9364880E-02  3.9802319E-02
   17.0000  3.9521185E-02  1.9217481E-02  3.9792697E-02
   17.2500  3.9731067E-02  1.9126744E-02  3.9726847E-02
   17.5000  3.9873910E-02  1.9088465E-02  3.9606691E-02
   17.7500  3.9955727E-02  1.9099055E-02  3.9436682E-02
   18.0000  3.9984861E-02  1.9155418E-02  3.9223229E-02
   18.2500  3.9971240E-02  1.9254856E-02  3.8973949E-02
   18.5000  3.9925604E-02  1.9395013E-02  3.8696915E-02
   18.7500  3.9858788E-02  1.9573844E-02  3.8400011E-02
   19.0000  3.9781119E-02  1.9789607E-02  3.8090450E-02
   19.2500  3.9701948E-02  2.0040877E-02  3.7774472E-02
   19.5000  3.9629322E-02  2.0326569E-02  3.7457175E-02
   19.7500  3.9569792E-02  2.0645908E-02  3.7142509E-02
   20.0000  3.9528398E-02  2.0998254E-02  3.6833458E-02
   21.0000  3.9602596E-02  2.2716202E-02  3.5698252E-02
   22.0000  4.0077620E-02  2.4866611E-02  3.4777524E-02
   23.0000  4.0750035E-02  2.7339092E-02  3.4032264E-02
   24.0000  4.1167639E-02  2.9924349E-02  3.3346441E-02
   25.0000  4.0784584E-02  3.2307685E-02  3.2597940E-02
   26.0000  3.9276550E-02  3.4159065E-02  3.1720091E-02
   27.0000  3.6802636E-02  3.5272950E-02  3.0734172E-02
   28.0000  3.3916695E-02  3.5645590E-02  2.9735182E-02
   29.0000  3.1194150E-02  3.5430883E-02  2.8839935E-02
   30.0000  2.8961845E-02  3.4832969E-02  2.8134356E-02
   31.0000  2.7290234E-02  3.4033915E-02  2.7651521E-02
   32.0000  2.6103422E-02  3.3166338E-02  2.7374776E-02
   33.0000  2.5276604E-02  3.2289608E-02  2.7248459E-02
   34.0000  2.4692591E-02  3.1417438E-02  2.7201892E-02
   35.0000  2.4259324E-02  3.0549699E-02  2.7167455E-02
   36.0000  2.3910049E-02  2.9686666E-02  2.7090685E-02
   37.0000  2.3600956E-02  2.8837175E-02  2.6938060E-02
   38.0000  2.3309865E-02  2.8024576E-02  2.6703856E-02
   39.0000  2.3037053E-02  2.7292557E-02  2.6417737E-02
   40.0000  2.2803991E-02  2.6704662E-02  2.6146044E-02
