    Energy   (100,001)      (010,001)      (001,110)   
  -25.0000  1.6113658E-04  1.7644999E-04  1.6542603E-04
  -24.0000  1.6725520E-04  1.8344712E-04  1.7171008E-04
  -23.0000  1.7380027E-04  1.9096541E-04  1.7843595E-04
  -22.0000  1.8081598E-04  1.9906328E-04  1.8565000E-04
  -21.0000  1.8835270E-04  2.0780807E-04  1.9340518E-04
  -20.0000  1.9646810E-04  2.1727775E-04  2.0176222E-04
  -19.0000  2.0522848E-04  2.2756308E-04  2.1079107E-04
  -18.0000  2.1471046E-04  2.3877030E-04  2.2057276E-04
  -17.0000  2.2500301E-04  2.5102457E-04  2.3120160E-04
  -16.0000  2.3621005E-04  2.6447426E-04  2.4278800E-04
  -15.0000  2.4845369E-04  2.7929651E-04  2.5546206E-04
  -14.0000  2.6187832E-04  2.9570452E-04  2.6937808E-04
  -13.0000  2.7665599E-04  3.1395697E-04  2.8472044E-04
  -12.0000  2.9299318E-04  3.3437070E-04  3.0171123E-04
  -11.0000  3.1113998E-04  3.5733773E-04  3.2062036E-04
  -10.0000  3.3140207E-04  3.8334858E-04  3.4177909E-04
  -9.00000  3.5415710E-04  4.1302469E-04  3.6559846E-04
  -8.00000  3.7987720E-04  4.4716454E-04  3.9259477E-04
  -7.00000  4.0916059E-04  4.8681024E-04  4.2342564E-04
  -6.00000  4.4277692E-04  5.3334658E-04  4.5894213E-04
  -5.00000  4.8173410E-04  5.8865192E-04  5.0026600E-04
  -4.00000  5.2737973E-04  6.5533585E-04  5.4890813E-04
  -3.00000  5.8156073E-04  7.3712802E-04  6.0695670E-04
  -2.00000  6.4688610E-04  8.3954371E-04  6.7739037E-04
  -1.00000  7.2718410E-04  9.7108998E-04  7.6463069E-04
   0.00000  8.2835802E-04  1.1456155E-03  8.7559301E-04
   1.00000  9.6015556E-04  1.3873558E-03  1.0219043E-03
   2.00000  1.1403899E-03  1.7433680E-03  1.2253377E-03
   3.00000  1.4075002E-03  2.3214051E-03  1.5345766E-03
   4.00000  1.8741182E-03  3.4531417E-03  2.1001761E-03
   5.00000  3.0026702E-03  6.5330962E-03  3.5559042E-03
   5.20000  3.3550589E-03  7.5225285E-03  3.9955292E-03
   5.40000  3.7241995E-03  8.5553972E-03  4.4341273E-03
   5.60000  4.1044186E-03  9.6159609E-03  4.8674173E-03
   5.80000  4.4992625E-03  1.0721150E-02  5.3087631E-03
   6.00000  4.9139963E-03  1.1897543E-02  5.7733793E-03
   6.20000  5.3527495E-03  1.3170895E-02  6.2715978E-03
   6.40000  5.8187914E-03  1.4564622E-02  6.8079058E-03
   6.60000  6.3156251E-03  1.6101051E-02  7.3819371E-03
   6.80000  6.8479503E-03  1.7803246E-02  7.9905177E-03
   7.00000  7.4221900E-03  1.9696928E-02  8.6307919E-03
   7.20000  8.0465477E-03  2.1812253E-02  9.3041540E-03
   7.40000  8.7306492E-03  2.4184717E-02  1.0019955E-02
   7.60000  9.4847935E-03  2.6853768E-02  1.0797444E-02
   7.80000  1.0318898E-02  2.9857678E-02  1.1664897E-02
   8.00000  1.1241409E-02  3.3223912E-02  1.2656189E-02
   8.20000  1.2258767E-02  3.6955953E-02  1.3806241E-02
   8.40000  1.3376167E-02  4.1019824E-02  1.5146676E-02
   8.60000  1.4599635E-02  4.5334373E-02  1.6701822E-02
   8.80000  1.5937746E-02  4.9766416E-02  1.8484284E-02
   9.00000  1.7400598E-02  5.4128059E-02  2.0489919E-02
   9.20000  1.8995341E-02  5.8176814E-02  2.2693434E-02
   9.40000  2.0720106E-02  6.1628049E-02  2.5046360E-02
   9.60000  2.2559068E-02  6.4190867E-02  2.7478683E-02
   9.80000  2.4480664E-02  6.5625755E-02  2.9904376E-02
   10.0000  2.6439050E-02  6.5804369E-02  3.2229725E-02
   10.2500  2.8852070E-02  6.4301181E-02  3.4857320E-02
   10.5000  3.1115393E-02  6.1198407E-02  3.7042615E-02
   10.7500  3.3125508E-02  5.7016798E-02  3.8709245E-02
   11.0000  3.4818058E-02  5.2305947E-02  3.9859661E-02
   11.2500  3.6178209E-02  4.7524661E-02  4.0560209E-02
   11.5000  3.7233284E-02  4.2990931E-02  4.0910649E-02
   11.7500  3.8033847E-02  3.8885919E-02  4.1012382E-02
   12.0000  3.8633174E-02  3.5284103E-02  4.0946945E-02
   12.2500  3.9072929E-02  3.2188704E-02  4.0768052E-02
   12.5000  3.9378133E-02  2.9563227E-02  4.0503182E-02
   12.7500  3.9560629E-02  2.7354951E-02  4.0162570E-02
   13.0000  3.9627172E-02  2.5508317E-02  3.9752928E-02
   13.2500  3.9587171E-02  2.3971005E-02  3.9287856E-02
   13.5000  3.9457447E-02  2.2696763E-02  3.8790445E-02
   13.7500  3.9263015E-02  2.1646423E-02  3.8290144E-02
   14.0000  3.9033959E-02  2.0787467E-02  3.7817844E-02
   14.2500  3.8800355E-02  2.0092964E-02  3.7401305E-02
   14.5000  3.8587551E-02  1.9540563E-02  3.7061605E-02
   14.7500  3.8413047E-02  1.9111690E-02  3.6811075E-02
   15.0000  3.8285183E-02  1.8790936E-02  3.6652749E-02
   15.2500  3.8203333E-02  1.8565541E-02  3.6581017E-02
   15.5000  3.8159166E-02  1.8424969E-02  3.6583097E-02
   15.7500  3.8138610E-02  1.8360530E-02  3.6641000E-02
   16.0000  3.8124256E-02  1.8365038E-02  3.6733811E-02
   16.2500  3.8097950E-02  1.8432515E-02  3.6840081E-02
   16.5000  3.8043342E-02  1.8557917E-02  3.6940085E-02
   16.7500  3.7948072E-02  1.8736904E-02  3.7017662E-02
   17.0000  3.7805314E-02  1.8965641E-02  3.7061370E-02
   17.2500  3.7614460E-02  1.9240640E-02  3.7064824E-02
   17.5000  3.7380900E-02  1.9558647E-02  3.7026281E-02
   17.7500  3.7114991E-02  1.9916555E-02  3.6947689E-02
   18.0000  3.6830509E-02  2.0311359E-02  3.6833483E-02
   18.2500  3.6542870E-02  2.0740121E-02  3.6689424E-02
   18.5000  3.6267438E-02  2.1199968E-02  3.6521642E-02
   18.7500  3.6018142E-02  2.1688102E-02  3.6335965E-02
   19.0000  3.5806484E-02  2.2201840E-02  3.6137498E-02
   19.2500  3.5640984E-02  2.2738683E-02  3.5930411E-02
   19.5000  3.5526974E-02  2.3296398E-02  3.5717841E-02
   19.7500  3.5466634E-02  2.3873002E-02  3.5501907E-02
   20.0000  3.5459135E-02  2.4466506E-02  3.5283833E-02
   21.0000  3.5854732E-02  2.6945416E-02  3.4396571E-02
   22.0000  3.6530518E-02  2.9406122E-02  3.3459820E-02
   23.0000  3.6850181E-02  3.1601074E-02  3.2408708E-02
   24.0000  3.6299367E-02  3.3275176E-02  3.1221726E-02
   25.0000  3.4775204E-02  3.4232101E-02  2.9959366E-02
   26.0000  3.2628296E-02  3.4443161E-02  2.8729339E-02
   27.0000  3.0392256E-02  3.4017851E-02  2.7653167E-02
   28.0000  2.8464716E-02  3.3132150E-02  2.6820314E-02
   29.0000  2.6993602E-02  3.1973739E-02  2.6249893E-02
   30.0000  2.5939951E-02  3.0704103E-02  2.5890443E-02
   31.0000  2.5182676E-02  2.9438346E-02  2.5649834E-02
   32.0000  2.4592428E-02  2.8242587E-02  2.5430123E-02
   33.0000  2.4064713E-02  2.7143694E-02  2.5150792E-02
   34.0000  2.3527699E-02  2.6143307E-02  2.4758934E-02
   35.0000  2.2940979E-02  2.5230263E-02  2.4232650E-02
   36.0000  2.2294344E-02  2.4389773E-02  2.3582791E-02
   37.0000  2.1606917E-02  2.3610887E-02  2.2851882E-02
   38.0000  2.0922792E-02  2.2894854E-02  2.2107061E-02
   39.0000  2.0301987E-02  2.2264003E-02  2.1427734E-02
   40.0000  1.9805566E-02  2.1760706E-02  2.0887843E-02
