    Energy   (100,001)      (010,001)      (001,110)   
  -25.0000  1.6487340E-04  1.8352069E-04  1.8043996E-04
  -24.0000  1.7068291E-04  1.9041484E-04  1.8673500E-04
  -23.0000  1.7687484E-04  1.9780236E-04  1.9345052E-04
  -22.0000  1.8348704E-04  2.0573686E-04  2.0062931E-04
  -21.0000  1.9056246E-04  2.1427989E-04  2.0832015E-04
  -20.0000  1.9815001E-04  2.2350251E-04  2.1657885E-04
  -19.0000  2.0630569E-04  2.3348711E-04  2.2546960E-04
  -18.0000  2.1509385E-04  2.4432975E-04  2.3506656E-04
  -17.0000  2.2458887E-04  2.5614316E-04  2.4545590E-04
  -16.0000  2.3487712E-04  2.6906039E-04  2.5673836E-04
  -15.0000  2.4605957E-04  2.8323965E-04  2.6903240E-04
  -14.0000  2.5825497E-04  2.9887041E-04  2.8247834E-04
  -13.0000  2.7160400E-04  3.1618151E-04  2.9724365E-04
  -12.0000  2.8627455E-04  3.3545183E-04  3.1352989E-04
  -11.0000  3.0246884E-04  3.5702462E-04  3.3158189E-04
  -10.0000  3.2043268E-04  3.8132705E-04  3.5170010E-04
  -9.00000  3.4046815E-04  4.0889731E-04  3.7425757E-04
  -8.00000  3.6295106E-04  4.4042282E-04  3.9972352E-04
  -7.00000  3.8835557E-04  4.7679555E-04  4.2869701E-04
  -6.00000  4.1728965E-04  5.1919366E-04  4.6195614E-04
  -5.00000  4.5054801E-04  5.6920592E-04  5.0053201E-04
  -4.00000  4.8919342E-04  6.2902744E-04  5.4582402E-04
  -3.00000  5.3468743E-04  7.0178045E-04  5.9978710E-04
  -2.00000  5.8911156E-04  7.9206617E-04  6.6525194E-04
  -1.00000  6.5556720E-04  9.0697474E-04  7.4650985E-04
   0.00000  7.3896368E-04  1.0580865E-03  8.5047612E-04
   1.00000  8.4776267E-04  1.2658891E-03  9.8928914E-04
   2.00000  9.9852512E-04  1.5711394E-03  1.1871578E-03
   3.00000  1.2310215E-03  2.0717101E-03  1.5034528E-03
   4.00000  1.6812429E-03  3.0949583E-03  2.1466735E-03
   5.00000  2.9668872E-03  6.1087305E-03  4.0833891E-03
   5.20000  3.3542047E-03  7.0487999E-03  4.6586937E-03
   5.40000  3.7203667E-03  7.9648485E-03  5.1699061E-03
   5.60000  4.0527502E-03  8.8228254E-03  5.5794795E-03
   5.80000  4.3579949E-03  9.6322863E-03  5.8930008E-03
   6.00000  4.6467725E-03  1.0417230E-02  6.1407651E-03
   6.20000  4.9279501E-03  1.1203041E-02  6.3628801E-03
   6.40000  5.2085967E-03  1.2014435E-02  6.5988765E-03
   6.60000  5.4950587E-03  1.2876057E-02  6.8821166E-03
   6.80000  5.7935428E-03  1.3812592E-02  7.2389394E-03
   7.00000  6.1102102E-03  1.4847880E-02  7.6904925E-03
   7.20000  6.4510307E-03  1.6003429E-02  8.2550110E-03
   7.40000  6.8215582E-03  1.7296993E-02  8.9493317E-03
   7.60000  7.2267072E-03  1.8741854E-02  9.7893062E-03
   7.80000  7.6705181E-03  2.0347155E-02  1.0789009E-02
   8.00000  8.1558678E-03  2.2119227E-02  1.1958548E-02
   8.20000  8.6841610E-03  2.4063570E-02  1.3300398E-02
   8.40000  9.2551369E-03  2.6186777E-02  1.4804497E-02
   8.60000  9.8669748E-03  2.8497312E-02  1.6443193E-02
   8.80000  1.0516843E-02  3.1004028E-02  1.8168171E-02
   9.00000  1.1201885E-02  3.3711802E-02  1.9911993E-02
   9.20000  1.1920377E-02  3.6614311E-02  2.1596133E-02
   9.40000  1.2672623E-02  3.9684624E-02  2.3145178E-02
   9.60000  1.3461172E-02  4.2865145E-02  2.4502927E-02
   9.80000  1.4290260E-02  4.6059536E-02  2.5643564E-02
   10.0000  1.5164592E-02  4.9129973E-02  2.6572987E-02
   10.2500  1.6326207E-02  5.2528373E-02  2.7483715E-02
   10.5000  1.7563769E-02  5.5099082E-02  2.8188140E-02
   10.7500  1.8865958E-02  5.6544127E-02  2.8754362E-02
   11.0000  2.0207307E-02  5.6728627E-02  2.9223085E-02
   11.2500  2.1548409E-02  5.5721875E-02  2.9607110E-02
   11.5000  2.2841958E-02  5.3753519E-02  2.9902791E-02
   11.7500  2.4044219E-02  5.1122161E-02  3.0103525E-02
   12.0000  2.5126122E-02  4.8118943E-02  3.0208858E-02
   12.2500  2.6078859E-02  4.4986089E-02  3.0228455E-02
   12.5000  2.6912862E-02  4.1902317E-02  3.0181757E-02
   12.7500  2.7652212E-02  3.8985095E-02  3.0094598E-02
   13.0000  2.8326936E-02  3.6301333E-02  2.9994956E-02
   13.2500  2.8964601E-02  3.3880763E-02  2.9909819E-02
   13.5000  2.9584025E-02  3.1728459E-02  2.9863326E-02
   13.7500  3.0194147E-02  2.9834528E-02  2.9875543E-02
   14.0000  3.0796902E-02  2.8180883E-02  2.9962051E-02
   14.2500  3.1391252E-02  2.6745835E-02  3.0134285E-02
   14.5000  3.1976678E-02  2.5507113E-02  3.0400122E-02
   14.7500  3.2555130E-02  2.4443621E-02  3.0764409E-02
   15.0000  3.3130850E-02  2.3536236E-02  3.1229300E-02
   15.2500  3.3708983E-02  2.2768005E-02  3.1794284E-02
   15.5000  3.4294407E-02  2.2124119E-02  3.2455809E-02
   15.7500  3.4890901E-02  2.1591788E-02  3.3206544E-02
   16.0000  3.5500296E-02  2.1160018E-02  3.4034430E-02
   16.2500  3.6121684E-02  2.0819356E-02  3.4921782E-02
   16.5000  3.6750969E-02  2.0561636E-02  3.5844725E-02
   16.7500  3.7380964E-02  2.0379758E-02  3.6773313E-02
   17.0000  3.8002068E-02  2.0267507E-02  3.7672637E-02
   17.2500  3.8603390E-02  2.0219402E-02  3.8505081E-02
   17.5000  3.9174134E-02  2.0230576E-02  3.9233613E-02
   17.7500  3.9704965E-02  2.0296677E-02  3.9825644E-02
   18.0000  4.0189075E-02  2.0413773E-02  4.0256721E-02
   18.2500  4.0622765E-02  2.0578289E-02  4.0513228E-02
   18.5000  4.1005464E-02  2.0786937E-02  4.0593490E-02
   18.7500  4.1339261E-02  2.1036689E-02  4.0507076E-02
   19.0000  4.1628123E-02  2.1324763E-02  4.0272570E-02
   19.2500  4.1877016E-02  2.1648649E-02  3.9914387E-02
   19.5000  4.2091089E-02  2.2006150E-02  3.9459357E-02
   19.7500  4.2275005E-02  2.2395370E-02  3.8933771E-02
   20.0000  4.2432447E-02  2.2814520E-02  3.8361590E-02
   21.0000  4.2823784E-02  2.4741677E-02  3.5993679E-02
   22.0000  4.2762792E-02  2.6942629E-02  3.4041378E-02
   23.0000  4.2034489E-02  2.9243733E-02  3.2659616E-02
   24.0000  4.0483071E-02  3.1423225E-02  3.1707016E-02
   25.0000  3.8208278E-02  3.3225278E-02  3.1000020E-02
   26.0000  3.5564307E-02  3.4435779E-02  3.0393514E-02
   27.0000  3.2960619E-02  3.4968748E-02  2.9799662E-02
   28.0000  3.0664176E-02  3.4891842E-02  2.9192738E-02
   29.0000  2.8764368E-02  3.4372366E-02  2.8601282E-02
   30.0000  2.7251679E-02  3.3593882E-02  2.8078859E-02
   31.0000  2.6086312E-02  3.2699173E-02  2.7666194E-02
   32.0000  2.5220465E-02  3.1774476E-02  2.7370344E-02
   33.0000  2.4600444E-02  3.0858602E-02  2.7169072E-02
   34.0000  2.4168030E-02  2.9960059E-02  2.7027335E-02
   35.0000  2.3860150E-02  2.9079217E-02  2.6911695E-02
   36.0000  2.3614609E-02  2.8220829E-02  2.6799822E-02
   37.0000  2.3388792E-02  2.7384053E-02  2.6685252E-02
   38.0000  2.3163685E-02  2.6576040E-02  2.6575131E-02
   39.0000  2.2943431E-02  2.5832890E-02  2.6482253E-02
   40.0000  2.2751866E-02  2.5224337E-02  2.6414209E-02
