    Energy   (100,001)      (010,001)      (001,110)   
  -25.0000  1.6631851E-04  1.7582720E-04  1.7734978E-04
  -24.0000  1.7231500E-04  1.8277628E-04  1.8378055E-04
  -23.0000  1.7871275E-04  1.9023995E-04  1.9065012E-04
  -22.0000  1.8555197E-04  1.9827553E-04  1.9800366E-04
  -21.0000  1.9287835E-04  2.0694900E-04  2.0589266E-04
  -20.0000  2.0074402E-04  2.1633669E-04  2.1437610E-04
  -19.0000  2.0920870E-04  2.2652739E-04  2.2352183E-04
  -18.0000  2.1834113E-04  2.3762490E-04  2.3340830E-04
  -17.0000  2.2822088E-04  2.4975136E-04  2.4412672E-04
  -16.0000  2.3894051E-04  2.6305139E-04  2.5578375E-04
  -15.0000  2.5060834E-04  2.7769748E-04  2.6850488E-04
  -14.0000  2.6335200E-04  2.9389688E-04  2.8243886E-04
  -13.0000  2.7732292E-04  3.1190077E-04  2.9776325E-04
  -12.0000  2.9270216E-04  3.3201630E-04  3.1469184E-04
  -11.0000  3.0970813E-04  3.5462295E-04  3.3348437E-04
  -10.0000  3.2860683E-04  3.8019472E-04  3.5445972E-04
  -9.00000  3.4972576E-04  4.0933117E-04  3.7801383E-04
  -8.00000  3.7347309E-04  4.4280128E-04  4.0464478E-04
  -7.00000  4.0036477E-04  4.8160692E-04  4.3498849E-04
  -6.00000  4.3106366E-04  5.2707706E-04  4.6987079E-04
  -5.00000  4.6643780E-04  5.8101138E-04  5.1038576E-04
  -4.00000  5.0765014E-04  6.4590651E-04  5.5801747E-04
  -3.00000  5.5630269E-04  7.2532679E-04  6.1483726E-04
  -2.00000  6.1468035E-04  8.2454094E-04  6.8383958E-04
  -1.00000  6.8619117E-04  9.5168206E-04  7.6955107E-04
   0.00000  7.7623184E-04  1.1200278E-03  8.7922781E-04
   1.00000  8.9409537E-04  1.3529660E-03  1.0254784E-03
   2.00000  1.0579069E-03  1.6965052E-03  1.2329525E-03
   3.00000  1.3108188E-03  2.2586693E-03  1.5597355E-03
   4.00000  1.7977068E-03  3.3871610E-03  2.1950140E-03
   5.00000  3.1744062E-03  6.5950567E-03  3.9877621E-03
   5.20000  3.6042159E-03  7.6067672E-03  4.5740604E-03
   5.40000  4.0303210E-03  8.6227358E-03  5.1804656E-03
   5.60000  4.4412072E-03  9.6162558E-03  5.7839305E-03
   5.80000  4.8407446E-03  1.0601699E-02  6.3749390E-03
   6.00000  5.2319505E-03  1.1606183E-02  6.9467426E-03
   6.20000  5.6107171E-03  1.2657163E-02  7.4948919E-03
   6.40000  5.9682073E-03  1.3781042E-02  8.0229577E-03
   6.60000  6.2970075E-03  1.5004736E-02  8.5462681E-03
   6.80000  6.5964952E-03  1.6356984E-02  9.0896314E-03
   7.00000  6.8747134E-03  1.7868516E-02  9.6808398E-03
   7.20000  7.1469419E-03  1.9571061E-02  1.0344198E-02
   7.40000  7.4326613E-03  2.1495618E-02  1.1096389E-02
   7.60000  7.7522694E-03  2.3670362E-02  1.1944399E-02
   7.80000  8.1241380E-03  2.6118360E-02  1.2884563E-02
   8.00000  8.5623073E-03  2.8854893E-02  1.3902502E-02
   8.20000  9.0751435E-03  3.1884004E-02  1.4974496E-02
   8.40000  9.6652498E-03  3.5194183E-02  1.6070929E-02
   8.60000  1.0330706E-02  3.8753621E-02  1.7161703E-02
   8.80000  1.1067310E-02  4.2505535E-02  1.8222211E-02
   9.00000  1.1871016E-02  4.6363527E-02  1.9237584E-02
   9.20000  1.2739468E-02  5.0206491E-02  2.0203581E-02
   9.40000  1.3671891E-02  5.3873690E-02  2.1124372E-02
   9.60000  1.4667767E-02  5.7163324E-02  2.2009031E-02
   9.80000  1.5725737E-02  5.9841839E-02  2.2868260E-02
   10.0000  1.6842751E-02  6.1674787E-02  2.3712183E-02
   10.2500  1.8311718E-02  6.2510517E-02  2.4757419E-02
   10.5000  1.9838770E-02  6.1644872E-02  2.5797145E-02
   10.7500  2.1388971E-02  5.9293471E-02  2.6822731E-02
   11.0000  2.2920483E-02  5.5895112E-02  2.7811912E-02
   11.2500  2.4389837E-02  5.1943710E-02  2.8738259E-02
   11.5000  2.5759037E-02  4.7858548E-02  2.9584241E-02
   11.7500  2.7004192E-02  4.3930393E-02  3.0347676E-02
   12.0000  2.8118942E-02  4.0324841E-02  3.1038140E-02
   12.2500  2.9111142E-02  3.7112684E-02  3.1670758E-02
   12.5000  2.9999601E-02  3.4305113E-02  3.2262813E-02
   12.7500  3.0810933E-02  3.1881552E-02  3.2831754E-02
   13.0000  3.1574751E-02  2.9807404E-02  3.3392106E-02
   13.2500  3.2318609E-02  2.8043956E-02  3.3952959E-02
   13.5000  3.3064238E-02  2.6553294E-02  3.4519724E-02
   13.7500  3.3825697E-02  2.5300414E-02  3.5098235E-02
   14.0000  3.4609474E-02  2.4253873E-02  3.5696274E-02
   14.2500  3.5415736E-02  2.3385800E-02  3.6322341E-02
   14.5000  3.6239803E-02  2.2671713E-02  3.6983837E-02
   14.7500  3.7073358E-02  2.2090306E-02  3.7685530E-02
   15.0000  3.7905283E-02  2.1623203E-02  3.8428389E-02
   15.2500  3.8722168E-02  2.1254700E-02  3.9208739E-02
   15.5000  3.9508691E-02  2.0971478E-02  4.0017756E-02
   15.7500  4.0248088E-02  2.0762316E-02  4.0841298E-02
   16.0000  4.0922914E-02  2.0617829E-02  4.1660049E-02
   16.2500  4.1516165E-02  2.0530241E-02  4.2450029E-02
   16.5000  4.2012661E-02  2.0493206E-02  4.3183546E-02
   16.7500  4.2400475E-02  2.0501677E-02  4.3830695E-02
   17.0000  4.2672126E-02  2.0551802E-02  4.4361450E-02
   17.2500  4.2825313E-02  2.0640793E-02  4.4748318E-02
   17.5000  4.2863079E-02  2.0766778E-02  4.4969235E-02
   17.7500  4.2793438E-02  2.0928585E-02  4.5010277E-02
   18.0000  4.2628552E-02  2.1125493E-02  4.4867605E-02
   18.2500  4.2383655E-02  2.1356958E-02  4.4548155E-02
   18.5000  4.2075868E-02  2.1622365E-02  4.4068887E-02
   18.7500  4.1723026E-02  2.1920846E-02  4.3454690E-02
   19.0000  4.1342610E-02  2.2251189E-02  4.2735381E-02
   19.2500  4.0950806E-02  2.2611852E-02  4.1942363E-02
   19.5000  4.0561733E-02  2.3001055E-02  4.1105497E-02
   19.7500  4.0186900E-02  2.3416856E-02  4.0250762E-02
   20.0000  3.9835051E-02  2.3857038E-02  3.9399201E-02
   21.0000  3.8756545E-02  2.5794653E-02  3.6307247E-02
   22.0000  3.8216469E-02  2.7838167E-02  3.3999301E-02
   23.0000  3.7914377E-02  2.9778900E-02  3.2377247E-02
   24.0000  3.7419758E-02  3.1431390E-02  3.1190882E-02
   25.0000  3.6449876E-02  3.2642075E-02  3.0251386E-02
   26.0000  3.5024734E-02  3.3316840E-02  2.9466605E-02
   27.0000  3.3373075E-02  3.3459749E-02  2.8812636E-02
   28.0000  3.1747614E-02  3.3158655E-02  2.8300355E-02
   29.0000  3.0303390E-02  3.2540448E-02  2.7940694E-02
   30.0000  2.9090991E-02  3.1725702E-02  2.7721282E-02
   31.0000  2.8097843E-02  3.0802887E-02  2.7604238E-02
   32.0000  2.7280092E-02  2.9824533E-02  2.7538233E-02
   33.0000  2.6582249E-02  2.8815446E-02  2.7471466E-02
   34.0000  2.5950932E-02  2.7784503E-02  2.7358253E-02
   35.0000  2.5343803E-02  2.6735723E-02  2.7160324E-02
   36.0000  2.4734412E-02  2.5677331E-02  2.6848343E-02
   37.0000  2.4114499E-02  2.4628864E-02  2.6407894E-02
   38.0000  2.3496534E-02  2.3627246E-02  2.5852212E-02
   39.0000  2.2918214E-02  2.2731617E-02  2.5241678E-02
   40.0000  2.2439915E-02  2.2017544E-02  2.4691727E-02
