    Energy   (100,001)      (010,001)      (001,110)   
  -25.0000  1.6628010E-04  1.8853475E-04  1.6941333E-04
  -24.0000  1.7250228E-04  1.9541219E-04  1.7577672E-04
  -23.0000  1.7915421E-04  2.0277310E-04  1.8258388E-04
  -22.0000  1.8628015E-04  2.1066942E-04  1.8988112E-04
  -21.0000  1.9393049E-04  2.1916072E-04  1.9772126E-04
  -20.0000  2.0216291E-04  2.2831563E-04  2.0616486E-04
  -19.0000  2.1104370E-04  2.3821367E-04  2.1528165E-04
  -18.0000  2.2064936E-04  2.4894744E-04  2.2515235E-04
  -17.0000  2.3106871E-04  2.6062542E-04  2.3587086E-04
  -16.0000  2.4240541E-04  2.7337548E-04  2.4754707E-04
  -15.0000  2.5478115E-04  2.8734940E-04  2.6031041E-04
  -14.0000  2.6833977E-04  3.0272864E-04  2.7431432E-04
  -13.0000  2.8325248E-04  3.1973197E-04  2.8974211E-04
  -12.0000  2.9972462E-04  3.3862544E-04  3.0681452E-04
  -11.0000  3.1800469E-04  3.5973574E-04  3.2579985E-04
  -10.0000  3.3839618E-04  3.8346845E-04  3.4702738E-04
  -9.00000  3.6127373E-04  4.1033306E-04  3.7090585E-04
  -8.00000  3.8710536E-04  4.4097833E-04  3.9794904E-04
  -7.00000  4.1648357E-04  4.7624293E-04  4.2881203E-04
  -6.00000  4.5017018E-04  5.1722995E-04  4.6434392E-04
  -5.00000  4.8916219E-04  5.6541950E-04  5.0566641E-04
  -4.00000  5.3479207E-04  6.2284441E-04  5.5429505E-04
  -3.00000  5.8888576E-04  6.9237507E-04  6.1233343E-04
  -2.00000  6.5402343E-04  7.7820346E-04  6.8279970E-04
  -1.00000  7.3399515E-04  8.8671479E-04  7.7020904E-04
   0.00000  8.3465906E-04  1.0281810E-03  8.8169647E-04
   1.00000  9.6573187E-04  1.2204048E-03  1.0294195E-03
   2.00000  1.1451183E-03  1.4977955E-03  1.2365210E-03
   3.00000  1.4120475E-03  1.9396317E-03  1.5556567E-03
   4.00000  1.8846076E-03  2.7962237E-03  2.1514230E-03
   5.00000  3.0550677E-03  5.1462000E-03  3.7364158E-03
   5.20000  3.4138480E-03  5.8878515E-03  4.2410664E-03
   5.40000  3.7796009E-03  6.6415163E-03  4.7578673E-03
   5.60000  4.1466828E-03  7.3894406E-03  5.2705047E-03
   5.80000  4.5222902E-03  8.1408863E-03  5.7826251E-03
   6.00000  4.9163255E-03  8.9125375E-03  6.3074929E-03
   6.20000  5.3367593E-03  9.7202085E-03  6.8598529E-03
   6.40000  5.7890926E-03  1.0578029E-02  7.4507481E-03
   6.60000  6.2772345E-03  1.1499372E-02  8.0852728E-03
   6.80000  6.8045611E-03  1.2497774E-02  8.7636883E-03
   7.00000  7.3747509E-03  1.3587824E-02  9.4852641E-03
   7.20000  7.9923018E-03  1.4785719E-02  1.0252973E-02
   7.40000  8.6627143E-03  1.6108710E-02  1.1076597E-02
   7.60000  9.3923918E-03  1.7573403E-02  1.1972408E-02
   7.80000  1.0188365E-02  1.9193556E-02  1.2959139E-02
   8.00000  1.1057915E-02  2.0978063E-02  1.4051570E-02
   8.20000  1.2008114E-02  2.2929698E-02  1.5253965E-02
   8.40000  1.3045251E-02  2.5045026E-02  1.6555976E-02
   8.60000  1.4174200E-02  2.7315900E-02  1.7933311E-02
   8.80000  1.5397761E-02  2.9732555E-02  1.9353993E-02
   9.00000  1.6716073E-02  3.2287150E-02  2.0788059E-02
   9.20000  1.8126132E-02  3.4975069E-02  2.2215500E-02
   9.40000  1.9621493E-02  3.7791150E-02  2.3627160E-02
   9.60000  2.1192293E-02  4.0720228E-02  2.5017554E-02
   9.80000  2.2825529E-02  4.3724379E-02  2.6374745E-02
   10.0000  2.4505246E-02  4.6729795E-02  2.7675367E-02
   10.2500  2.6640792E-02  5.0300699E-02  2.9176579E-02
   10.5000  2.8774448E-02  5.3353855E-02  3.0499946E-02
   10.7500  3.0855788E-02  5.5526814E-02  3.1639968E-02
   11.0000  3.2830539E-02  5.6537475E-02  3.2624698E-02
   11.2500  3.4643949E-02  5.6277018E-02  3.3493619E-02
   11.5000  3.6246506E-02  5.4835802E-02  3.4278450E-02
   11.7500  3.7600536E-02  5.2460264E-02  3.4994524E-02
   12.0000  3.8684249E-02  4.9472182E-02  3.5640585E-02
   12.2500  3.9492695E-02  4.6189492E-02  3.6204687E-02
   12.5000  4.0037944E-02  4.2872960E-02  3.6673703E-02
   12.7500  4.0347263E-02  3.9705250E-02  3.7041496E-02
   13.0000  4.0458491E-02  3.6794852E-02  3.7312816E-02
   13.2500  4.0414506E-02  3.4191772E-02  3.7502955E-02
   13.5000  4.0258597E-02  3.1905667E-02  3.7634551E-02
   13.7500  4.0031617E-02  2.9921910E-02  3.7733493E-02
   14.0000  3.9770459E-02  2.8213643E-02  3.7825186E-02
   14.2500  3.9506832E-02  2.6749677E-02  3.7931772E-02
   14.5000  3.9265816E-02  2.5499167E-02  3.8070643E-02
   14.7500  3.9064714E-02  2.4434030E-02  3.8253896E-02
   15.0000  3.8912876E-02  2.3529839E-02  3.8488137E-02
   15.2500  3.8812290E-02  2.2765853E-02  3.8774477E-02
   15.5000  3.8758489E-02  2.2124662E-02  3.9108798E-02
   15.7500  3.8741702E-02  2.1591735E-02  3.9482231E-02
   16.0000  3.8748301E-02  2.1154939E-02  3.9881786E-02
   16.2500  3.8762534E-02  2.0804124E-02  4.0291122E-02
   16.5000  3.8768417E-02  2.0530749E-02  4.0691527E-02
   16.7500  3.8751563E-02  2.0327592E-02  4.1063139E-02
   17.0000  3.8700739E-02  2.0188493E-02  4.1386413E-02
   17.2500  3.8608944E-02  2.0108153E-02  4.1643691E-02
   17.5000  3.8473901E-02  2.0081964E-02  4.1820702E-02
   17.7500  3.8297950E-02  2.0105867E-02  4.1907738E-02
   18.0000  3.8087419E-02  2.0176244E-02  4.1900317E-02
   18.2500  3.7851627E-02  2.0289825E-02  4.1799220E-02
   18.5000  3.7601722E-02  2.0443634E-02  4.1609938E-02
   18.7500  3.7349500E-02  2.0634947E-02  4.1341639E-02
   19.0000  3.7106376E-02  2.0861282E-02  4.1005892E-02
   19.2500  3.6882546E-02  2.1120417E-02  4.0615301E-02
   19.5000  3.6686389E-02  2.1410415E-02  4.0182281E-02
   19.7500  3.6524102E-02  2.1729618E-02  3.9718134E-02
   20.0000  3.6399571E-02  2.2076478E-02  3.9232685E-02
   21.0000  3.6289029E-02  2.3700355E-02  3.7236892E-02
   22.0000  3.6656453E-02  2.5606448E-02  3.5383666E-02
   23.0000  3.7095889E-02  2.7683808E-02  3.3742829E-02
   24.0000  3.7098280E-02  2.9797136E-02  3.2262190E-02
   25.0000  3.6297211E-02  3.1733274E-02  3.0881701E-02
   26.0000  3.4681013E-02  3.3229656E-02  2.9575838E-02
   27.0000  3.2558972E-02  3.4140993E-02  2.8341224E-02
   28.0000  3.0343186E-02  3.4469044E-02  2.7207855E-02
   29.0000  2.8341788E-02  3.4321349E-02  2.6230692E-02
   30.0000  2.6697638E-02  3.3853644E-02  2.5454745E-02
   31.0000  2.5430060E-02  3.3212642E-02  2.4886835E-02
   32.0000  2.4490589E-02  3.2504022E-02  2.4493021E-02
   33.0000  2.3801637E-02  3.1786784E-02  2.4214559E-02
   34.0000  2.3279654E-02  3.1082954E-02  2.3986186E-02
   35.0000  2.2848248E-02  3.0392643E-02  2.3748066E-02
   36.0000  2.2447034E-02  2.9709349E-02  2.3453054E-02
   37.0000  2.2039588E-02  2.9032885E-02  2.3073995E-02
   38.0000  2.1619752E-02  2.8378384E-02  2.2614244E-02
   39.0000  2.1213462E-02  2.7782272E-02  2.2120193E-02
   40.0000  2.0869680E-02  2.7300612E-02  2.1680051E-02
