    Energy   (100,001)      (010,001)      (001,110)   
  -25.0000  1.6575322E-04  1.7572680E-04  1.7430787E-04
  -24.0000  1.7196083E-04  1.8266549E-04  1.8103504E-04
  -23.0000  1.7859876E-04  1.9011841E-04  1.8824733E-04
  -22.0000  1.8571150E-04  1.9814294E-04  1.9599719E-04
  -21.0000  1.9334977E-04  2.0680517E-04  2.0434480E-04
  -20.0000  2.0157165E-04  2.1618156E-04  2.1335948E-04
  -19.0000  2.1044387E-04  2.2636107E-04  2.2312145E-04
  -18.0000  2.2004359E-04  2.3744778E-04  2.3372410E-04
  -17.0000  2.3046036E-04  2.4956418E-04  2.4527673E-04
  -16.0000  2.4179880E-04  2.6285538E-04  2.5790805E-04
  -15.0000  2.5418184E-04  2.7749453E-04  2.7177066E-04
  -14.0000  2.6775484E-04  2.9368978E-04  2.8704680E-04
  -13.0000  2.8269100E-04  3.1169356E-04  3.0395581E-04
  -12.0000  2.9919822E-04  3.3181471E-04  3.2276400E-04
  -11.0000  3.1752832E-04  3.5443505E-04  3.4379783E-04
  -10.0000  3.3798917E-04  3.8003183E-04  3.6746174E-04
  -9.00000  3.6096125E-04  4.0920913E-04  3.9426266E-04
  -8.00000  3.8692044E-04  4.4274233E-04  4.2484455E-04
  -7.00000  4.1647002E-04  4.8164240E-04  4.6003764E-04
  -6.00000  4.5038687E-04  5.2725141E-04  5.0093076E-04
  -5.00000  4.8968953E-04  5.8138807E-04  5.4898015E-04
  -4.00000  5.3574202E-04  6.4657712E-04  6.0617857E-04
  -3.00000  5.9041819E-04  7.2642459E-04  6.7532785E-04
  -2.00000  6.5637384E-04  8.2626143E-04  7.6049817E-04
  -1.00000  7.3752493E-04  9.5431202E-04  8.6784542E-04
   0.00000  8.3995393E-04  1.1239784E-03  1.0071695E-03
   1.00000  9.7381665E-04  1.3587672E-03  1.1951667E-03
   2.00000  1.1580015E-03  1.7045036E-03  1.4631274E-03
   3.00000  1.4344551E-03  2.2667690E-03  1.8789336E-03
   4.00000  1.9318770E-03  3.3728990E-03  2.6327280E-03
   5.00000  3.1955179E-03  6.4122613E-03  4.4633211E-03
   5.20000  3.5834499E-03  7.4010038E-03  5.0733950E-03
   5.40000  3.9743999E-03  8.4434168E-03  5.7648637E-03
   5.60000  4.3595152E-03  9.5250599E-03  6.5460510E-03
   5.80000  4.7450633E-03  1.0661925E-02  7.4371401E-03
   6.00000  5.1419227E-03  1.1877858E-02  8.4618178E-03
   6.20000  5.5606073E-03  1.3193204E-02  9.6415884E-03
   6.40000  6.0102201E-03  1.4621454E-02  1.0991287E-02
   6.60000  6.4985583E-03  1.6168452E-02  1.2514008E-02
   6.80000  7.0323344E-03  1.7832862E-02  1.4195949E-02
   7.00000  7.6172961E-03  1.9608544E-02  1.6003467E-02
   7.20000  8.2582606E-03  2.1489572E-02  1.7885121E-02
   7.40000  8.9591252E-03  2.3477809E-02  1.9779772E-02
   7.60000  9.7228432E-03  2.5590256E-02  2.1629230E-02
   7.80000  1.0551330E-02  2.7860996E-02  2.3391474E-02
   8.00000  1.1445483E-02  3.0334921E-02  2.5048216E-02
   8.20000  1.2405727E-02  3.3054594E-02  2.6602117E-02
   8.40000  1.3433350E-02  3.6045133E-02  2.8065422E-02
   8.60000  1.4532162E-02  3.9302419E-02  2.9447958E-02
   8.80000  1.5709525E-02  4.2786197E-02  3.0751752E-02
   9.00000  1.6976058E-02  4.6415766E-02  3.1972915E-02
   9.20000  1.8343995E-02  5.0066502E-02  3.3106431E-02
   9.40000  1.9824571E-02  5.3569195E-02  3.4149873E-02
   9.60000  2.1424800E-02  5.6717251E-02  3.5104975E-02
   9.80000  2.3143915E-02  5.9286642E-02  3.5977707E-02
   10.0000  2.4969666E-02  6.1069089E-02  3.6776654E-02
   10.2500  2.7358845E-02  6.1965214E-02  3.7682312E-02
   10.5000  2.9782302E-02  6.1298436E-02  3.8484771E-02
   10.7500  3.2119525E-02  5.9214551E-02  3.9165335E-02
   11.0000  3.4238152E-02  5.6051126E-02  3.9692390E-02
   11.2500  3.6021760E-02  5.2227599E-02  4.0037463E-02
   11.5000  3.7395751E-02  4.8139929E-02  4.0190171E-02
   11.7500  3.8341894E-02  4.4097380E-02  4.0163878E-02
   12.0000  3.8897054E-02  4.0304050E-02  3.9991044E-02
   12.2500  3.9135563E-02  3.6869810E-02  3.9712330E-02
   12.5000  3.9144827E-02  3.3835067E-02  3.9366302E-02
   12.7500  3.9008790E-02  3.1196937E-02  3.8984909E-02
   13.0000  3.8801030E-02  2.8929053E-02  3.8593627E-02
   13.2500  3.8582118E-02  2.6994294E-02  3.8213043E-02
   13.5000  3.8398056E-02  2.5353006E-02  3.7860409E-02
   13.7500  3.8279744E-02  2.3967914E-02  3.7550425E-02
   14.0000  3.8244314E-02  2.2805922E-02  3.7294835E-02
   14.2500  3.8297576E-02  2.1838132E-02  3.7101303E-02
   14.5000  3.8436418E-02  2.1039410E-02  3.6972323E-02
   14.7500  3.8650749E-02  2.0387977E-02  3.6904529E-02
   15.0000  3.8925062E-02  1.9865065E-02  3.6888582E-02
   15.2500  3.9239727E-02  1.9454619E-02  3.6909666E-02
   15.5000  3.9572244E-02  1.9143009E-02  3.6948583E-02
   15.7500  3.9898588E-02  1.8918760E-02  3.6983386E-02
   16.0000  4.0194795E-02  1.8772282E-02  3.6991450E-02
   16.2500  4.0438766E-02  1.8695604E-02  3.6951796E-02
   16.5000  4.0612166E-02  1.8682126E-02  3.6847375E-02
   16.7500  4.0702171E-02  1.8726380E-02  3.6666947E-02
   17.0000  4.0702748E-02  1.8823815E-02  3.6406197E-02
   17.2500  4.0615170E-02  1.8970607E-02  3.6067863E-02
   17.5000  4.0447636E-02  1.9163493E-02  3.5660878E-02
   17.7500  4.0214012E-02  1.9399646E-02  3.5198763E-02
   18.0000  3.9931951E-02  1.9676562E-02  3.4697647E-02
   18.2500  3.9620739E-02  1.9991987E-02  3.4174323E-02
   18.5000  3.9299255E-02  2.0343858E-02  3.3644651E-02
   18.7500  3.8984333E-02  2.0730267E-02  3.3122453E-02
   19.0000  3.8689657E-02  2.1149452E-02  3.2618898E-02
   19.2500  3.8425214E-02  2.1599819E-02  3.2142301E-02
   19.5000  3.8197192E-02  2.2079974E-02  3.1698192E-02
   19.7500  3.8008180E-02  2.2588684E-02  3.1289588E-02
   20.0000  3.7857524E-02  2.3124609E-02  3.0917458E-02
   21.0000  3.7540533E-02  2.5488910E-02  2.9775868E-02
   22.0000  3.7288736E-02  2.8043271E-02  2.9090895E-02
   23.0000  3.6491958E-02  3.0536265E-02  2.8687339E-02
   24.0000  3.4795634E-02  3.2643435E-02  2.8403768E-02
   25.0000  3.2418808E-02  3.4045190E-02  2.8123292E-02
   26.0000  2.9929069E-02  3.4614736E-02  2.7788435E-02
   27.0000  2.7806214E-02  3.4438546E-02  2.7401451E-02
   28.0000  2.6227232E-02  3.3733175E-02  2.7007025E-02
   29.0000  2.5137189E-02  3.2737353E-02  2.6658841E-02
   30.0000  2.4400841E-02  3.1633250E-02  2.6386149E-02
   31.0000  2.3890708E-02  3.0525375E-02  2.6180273E-02
   32.0000  2.3509732E-02  2.9456010E-02  2.6003415E-02
   33.0000  2.3188173E-02  2.8429223E-02  2.5805908E-02
   34.0000  2.2878097E-02  2.7431320E-02  2.5540495E-02
   35.0000  2.2551088E-02  2.6445790E-02  2.5171423E-02
   36.0000  2.2197554E-02  2.5463932E-02  2.4680826E-02
   37.0000  2.1825227E-02  2.4492626E-02  2.4075450E-02
   38.0000  2.1455426E-02  2.3560149E-02  2.3394803E-02
   39.0000  2.1118177E-02  2.2720383E-02  2.2717186E-02
   40.0000  2.0845672E-02  2.2046663E-02  2.2147356E-02
