    Energy   (100,001)      (010,001)      (001,110)   
  -25.0000  1.6721404E-04  1.7903811E-04  1.8034586E-04
  -24.0000  1.7325456E-04  1.8600435E-04  1.8678266E-04
  -23.0000  1.7970168E-04  1.9348168E-04  1.9365581E-04
  -22.0000  1.8659652E-04  2.0152668E-04  2.0101016E-04
  -21.0000  1.9398581E-04  2.1020443E-04  2.0889688E-04
  -20.0000  2.0192299E-04  2.1959019E-04  2.1737458E-04
  -19.0000  2.1046933E-04  2.2977140E-04  2.2651071E-04
  -18.0000  2.1969550E-04  2.4085025E-04  2.3638332E-04
  -17.0000  2.2968343E-04  2.5294687E-04  2.4708319E-04
  -16.0000  2.4052858E-04  2.6620343E-04  2.5871656E-04
  -15.0000  2.5234295E-04  2.8078930E-04  2.7140854E-04
  -14.0000  2.6525876E-04  2.9690785E-04  2.8530755E-04
  -13.0000  2.7943325E-04  3.1480532E-04  3.0059101E-04
  -12.0000  2.9505499E-04  3.3478254E-04  3.1747284E-04
  -11.0000  3.1235204E-04  3.5721078E-04  3.3621341E-04
  -10.0000  3.3160306E-04  3.8255332E-04  3.5713299E-04
  -9.00000  3.5315232E-04  4.1139550E-04  3.8063032E-04
  -8.00000  3.7743046E-04  4.4448715E-04  4.0720847E-04
  -7.00000  4.0498401E-04  4.8280397E-04  4.3751214E-04
  -6.00000  4.3651809E-04  5.2763852E-04  4.7238231E-04
  -5.00000  4.7296011E-04  5.8073875E-04  5.1293929E-04
  -4.00000  5.1555812E-04  6.4452608E-04  5.6071304E-04
  -3.00000  5.6603867E-04  7.2245252E-04  6.1785683E-04
  -2.00000  6.2687304E-04  8.1961364E-04  6.8751594E-04
  -1.00000  7.0175522E-04  9.4386549E-04  7.7450595E-04
   0.00000  7.9653145E-04  1.1080217E-03  8.8666746E-04
   1.00000  9.2121541E-04  1.3346471E-03  1.0378800E-03
   2.00000  1.0950844E-03  1.6681760E-03  1.2558488E-03
   3.00000  1.3629536E-03  2.2132681E-03  1.6071849E-03
   4.00000  1.8704114E-03  3.3089188E-03  2.3114859E-03
   5.00000  3.2496286E-03  6.4370948E-03  4.3524375E-03
   5.20000  3.6641904E-03  7.4217545E-03  5.0260414E-03
   5.40000  4.0671898E-03  8.4079578E-03  5.7314841E-03
   5.60000  4.4529187E-03  9.3706322E-03  6.4558372E-03
   5.80000  4.8353581E-03  1.0324722E-02  7.2096871E-03
   6.00000  5.2315291E-03  1.1296193E-02  8.0106135E-03
   6.20000  5.6548144E-03  1.2309253E-02  8.8717740E-03
   6.40000  6.1147617E-03  1.3384540E-02  9.7934234E-03
   6.60000  6.6185707E-03  1.4540507E-02  1.0755109E-02
   6.80000  7.1724327E-03  1.5795068E-02  1.1710788E-02
   7.00000  7.7823674E-03  1.7166544E-02  1.2592165E-02
   7.20000  8.4544543E-03  1.8673902E-02  1.3324935E-02
   7.40000  9.1941773E-03  2.0336930E-02  1.3855391E-02
   7.60000  1.0004750E-02  2.2176970E-02  1.4173915E-02
   7.80000  1.0884879E-02  2.4218261E-02  1.4319660E-02
   8.00000  1.1826839E-02  2.6488836E-02  1.4363771E-02
   8.20000  1.2815423E-02  2.9019405E-02  1.4384067E-02
   8.40000  1.3827993E-02  3.1839070E-02  1.4446168E-02
   8.60000  1.4835928E-02  3.4967610E-02  1.4596498E-02
   8.80000  1.5807653E-02  3.8404284E-02  1.4863863E-02
   9.00000  1.6713064E-02  4.2113710E-02  1.5263991E-02
   9.20000  1.7529138E-02  4.6011687E-02  1.5803300E-02
   9.40000  1.8245704E-02  4.9955864E-02  1.6480764E-02
   9.60000  1.8869193E-02  5.3746692E-02  1.7288467E-02
   9.80000  1.9422157E-02  5.7142838E-02  1.8211923E-02
   10.0000  1.9937905E-02  5.9891614E-02  1.9230869E-02
   10.2500  2.0583834E-02  6.2082672E-02  2.0601339E-02
   10.5000  2.1280684E-02  6.2645807E-02  2.2031586E-02
   10.7500  2.2054893E-02  6.1565477E-02  2.3473088E-02
   11.0000  2.2908072E-02  5.9080784E-02  2.4883887E-02
   11.2500  2.3825048E-02  5.5598768E-02  2.6232488E-02
   11.5000  2.4777676E-02  5.1574231E-02  2.7501205E-02
   11.7500  2.5729397E-02  4.7407368E-02  2.8685737E-02
   12.0000  2.6645410E-02  4.3389032E-02  2.9791545E-02
   12.2500  2.7501376E-02  3.9694117E-02  3.0829686E-02
   12.5000  2.8286063E-02  3.6403446E-02  3.1813386E-02
   12.7500  2.9000088E-02  3.3533979E-02  3.2755761E-02
   13.0000  2.9653047E-02  3.1066042E-02  3.3669107E-02
   13.2500  3.0260168E-02  2.8963080E-02  3.4564952E-02
   13.5000  3.0839202E-02  2.7183306E-02  3.5453427E-02
   13.7500  3.1407875E-02  2.5685582E-02  3.6342137E-02
   14.0000  3.1981907E-02  2.4432197E-02  3.7235229E-02
   14.2500  3.2573559E-02  2.3389993E-02  3.8132739E-02
   14.5000  3.3190613E-02  2.2530576E-02  3.9030076E-02
   14.7500  3.3835769E-02  2.1830023E-02  3.9917683E-02
   15.0000  3.4506404E-02  2.1268353E-02  4.0780989E-02
   15.2500  3.5194732E-02  2.0828906E-02  4.1600871E-02
   15.5000  3.5888359E-02  2.0497728E-02  4.2354764E-02
   15.7500  3.6571259E-02  2.0263015E-02  4.3018452E-02
   16.0000  3.7225129E-02  2.0114640E-02  4.3568394E-02
   16.2500  3.7831102E-02  2.0043769E-02  4.3984265E-02
   16.5000  3.8371677E-02  2.0042567E-02  4.4251292E-02
   16.7500  3.8832679E-02  2.0103988E-02  4.4361971E-02
   17.0000  3.9204989E-02  2.0221623E-02  4.4316835E-02
   17.2500  3.9485743E-02  2.0389613E-02  4.4124183E-02
   17.5000  3.9678776E-02  2.0602588E-02  4.3798878E-02
   17.7500  3.9794187E-02  2.0855640E-02  4.3360508E-02
   18.0000  3.9847096E-02  2.1144305E-02  4.2831298E-02
   18.2500  3.9855817E-02  2.1464550E-02  4.2234105E-02
   18.5000  3.9839795E-02  2.1812752E-02  4.1590757E-02
   18.7500  3.9817637E-02  2.2185692E-02  4.0920854E-02
   19.0000  3.9805531E-02  2.2580540E-02  4.0241033E-02
   19.2500  3.9816181E-02  2.2994866E-02  3.9564614E-02
   19.5000  3.9858264E-02  2.3426655E-02  3.8901544E-02
   19.7500  3.9936313E-02  2.3874256E-02  3.8258602E-02
   20.0000  4.0050821E-02  2.4336136E-02  3.7639969E-02
   21.0000  4.0766225E-02  2.6279830E-02  3.5449363E-02
   22.0000  4.1452909E-02  2.8245954E-02  3.3721151E-02
   23.0000  4.1501596E-02  3.0065619E-02  3.2356405E-02
   24.0000  4.0556807E-02  3.1572700E-02  3.1235412E-02
   25.0000  3.8652029E-02  3.2632150E-02  3.0267631E-02
   26.0000  3.6120959E-02  3.3176853E-02  2.9402466E-02
   27.0000  3.3406612E-02  3.3224977E-02  2.8630370E-02
   28.0000  3.0898121E-02  3.2869863E-02  2.7976321E-02
   29.0000  2.8833524E-02  3.2243376E-02  2.7473543E-02
   30.0000  2.7265478E-02  3.1460913E-02  2.7125022E-02
   31.0000  2.6135681E-02  3.0605003E-02  2.6906354E-02
   32.0000  2.5347471E-02  2.9725758E-02  2.6782244E-02
   33.0000  2.4800455E-02  2.8845174E-02  2.6715769E-02
   34.0000  2.4405296E-02  2.7966391E-02  2.6671272E-02
   35.0000  2.4088278E-02  2.7085061E-02  2.6615232E-02
   36.0000  2.3792122E-02  2.6199885E-02  2.6518182E-02
   37.0000  2.3477074E-02  2.5319973E-02  2.6358611E-02
   38.0000  2.3126250E-02  2.4470226E-02  2.6130386E-02
   39.0000  2.2756703E-02  2.3697884E-02  2.5855582E-02
   40.0000  2.2423947E-02  2.3072774E-02  2.5593701E-02
