    Energy   (100,001)      (010,001)      (001,110)   
  -25.0000  1.7321879E-04  1.8061920E-04  1.7049022E-04
  -24.0000  1.7970542E-04  1.8744223E-04  1.7720789E-04
  -23.0000  1.8664654E-04  1.9475442E-04  1.8441603E-04
  -22.0000  1.9408987E-04  2.0260891E-04  1.9216815E-04
  -21.0000  2.0208993E-04  2.1106668E-04  2.0052562E-04
  -20.0000  2.1070924E-04  2.2019811E-04  2.0955924E-04
  -19.0000  2.2001986E-04  2.3008476E-04  2.1935100E-04
  -18.0000  2.3010524E-04  2.4082172E-04  2.2999645E-04
  -17.0000  2.4106257E-04  2.5252046E-04  2.4160750E-04
  -16.0000  2.5300565E-04  2.6531251E-04  2.5431611E-04
  -15.0000  2.6606855E-04  2.7935412E-04  2.6827888E-04
  -14.0000  2.8041035E-04  2.9483227E-04  2.8368304E-04
  -13.0000  2.9622116E-04  3.1197254E-04  3.0075423E-04
  -12.0000  3.1372998E-04  3.3104950E-04  3.1976680E-04
  -11.0000  3.3321513E-04  3.5240053E-04  3.4105752E-04
  -10.0000  3.5501815E-04  3.7644477E-04  3.6504425E-04
  -9.00000  3.7956275E-04  4.0370905E-04  3.9225172E-04
  -8.00000  4.0738096E-04  4.3486444E-04  4.2334770E-04
  -7.00000  4.3915001E-04  4.7077869E-04  4.5919501E-04
  -6.00000  4.7574545E-04  5.1259307E-04  5.0092789E-04
  -5.00000  5.1831967E-04  5.6183829E-04  5.5006751E-04
  -4.00000  5.6842149E-04  6.2061466E-04  6.0870199E-04
  -3.00000  6.2818475E-04  6.9188285E-04  6.7977807E-04
  -2.00000  7.0063902E-04  7.7995461E-04  7.6759531E-04
  -1.00000  7.9024995E-04  8.9136879E-04  8.7869164E-04
   0.00000  9.0392713E-04  1.0365732E-03  1.0235460E-03
   1.00000  1.0530925E-03  1.2334870E-03  1.2201716E-03
   2.00000  1.2585522E-03  1.5161948E-03  1.5027464E-03
   3.00000  1.5647193E-03  1.9613616E-03  1.9467872E-03
   4.00000  2.0988758E-03  2.8031981E-03  2.7699972E-03
   5.00000  3.3701463E-03  5.0217140E-03  4.8422281E-03
   5.20000  3.7640291E-03  5.7141536E-03  5.5347598E-03
   5.40000  4.1772054E-03  6.4207384E-03  6.3115777E-03
   5.60000  4.6055585E-03  7.1286852E-03  7.1792174E-03
   5.80000  5.0567613E-03  7.8512322E-03  8.1594820E-03
   6.00000  5.5414992E-03  8.6093916E-03  9.2779143E-03
   6.20000  6.0692611E-03  9.4234928E-03  1.0554795E-02
   6.40000  6.6476504E-03  1.0311686E-02  1.1997108E-02
   6.60000  7.2832287E-03  1.1290675E-02  1.3591064E-02
   6.80000  7.9830510E-03  1.2376975E-02  1.5300010E-02
   7.00000  8.7562107E-03  1.3588238E-02  1.7074104E-02
   7.20000  9.6145135E-03  1.4944108E-02  1.8870265E-02
   7.40000  1.0571634E-02  1.6465967E-02  2.0668258E-02
   7.60000  1.1640858E-02  1.8175645E-02  2.2468208E-02
   7.80000  1.2832054E-02  2.0094295E-02  2.4271437E-02
   8.00000  1.4148695E-02  2.2242200E-02  2.6061138E-02
   8.20000  1.5586326E-02  2.4638811E-02  2.7797477E-02
   8.40000  1.7134671E-02  2.7301813E-02  2.9429140E-02
   8.60000  1.8783610E-02  3.0244073E-02  3.0912050E-02
   8.80000  2.0529245E-02  3.3468146E-02  3.2223596E-02
   9.00000  2.2375521E-02  3.6958858E-02  3.3366931E-02
   9.20000  2.4330790E-02  4.0674117E-02  3.4366172E-02
   9.40000  2.6402360E-02  4.4533943E-02  3.5255709E-02
   9.60000  2.8591207E-02  4.8409868E-02  3.6068381E-02
   9.80000  3.0886298E-02  5.2120093E-02  3.6827781E-02
   10.0000  3.3258600E-02  5.5437558E-02  3.7547092E-02
   10.2500  3.6251061E-02  5.8659177E-02  3.8398601E-02
   10.5000  3.9124418E-02  6.0477139E-02  3.9200100E-02
   10.7500  4.1670115E-02  6.0698977E-02  3.9945971E-02
   11.0000  4.3665650E-02  5.9417487E-02  4.0613908E-02
   11.2500  4.4938374E-02  5.6955509E-02  4.1163008E-02
   11.5000  4.5424912E-02  5.3734985E-02  4.1545266E-02
   11.7500  4.5191138E-02  5.0153498E-02  4.1717899E-02
   12.0000  4.4402601E-02  4.6515459E-02  4.1651404E-02
   12.2500  4.3266417E-02  4.3018206E-02  4.1338067E-02
   12.5000  4.1977128E-02  3.9770245E-02  4.0797264E-02
   12.7500  4.0686553E-02  3.6818647E-02  4.0074755E-02
   13.0000  3.9497927E-02  3.4173416E-02  3.9235645E-02
   13.2500  3.8473060E-02  3.1825562E-02  3.8350791E-02
   13.5000  3.7642606E-02  2.9757757E-02  3.7483519E-02
   13.7500  3.7015571E-02  2.7948851E-02  3.6683604E-02
   14.0000  3.6586732E-02  2.6375866E-02  3.5986625E-02
   14.2500  3.6341558E-02  2.5015515E-02  3.5414393E-02
   14.5000  3.6259096E-02  2.3845345E-02  3.4975898E-02
   14.7500  3.6313643E-02  2.2844393E-02  3.4669585E-02
   15.0000  3.6475892E-02  2.1993501E-02  3.4486181E-02
   15.2500  3.6713931E-02  2.1275488E-02  3.4410890E-02
   15.5000  3.6994381E-02  2.0675243E-02  3.4424834E-02
   15.7500  3.7283805E-02  2.0179722E-02  3.4506104E-02
   16.0000  3.7550437E-02  1.9777860E-02  3.4630805E-02
   16.2500  3.7766152E-02  1.9460429E-02  3.4774297E-02
   16.5000  3.7908475E-02  1.9219843E-02  3.4912700E-02
   16.7500  3.7962344E-02  1.9049929E-02  3.5024566E-02
   17.0000  3.7921291E-02  1.8945678E-02  3.5092477E-02
   17.2500  3.7787752E-02  1.8902989E-02  3.5104302E-02
   17.5000  3.7572380E-02  1.8918416E-02  3.5053825E-02
   17.7500  3.7292435E-02  1.8988953E-02  3.4940652E-02
   18.0000  3.6969513E-02  1.9111865E-02  3.4769428E-02
   18.2500  3.6627045E-02  1.9284573E-02  3.4548587E-02
   18.5000  3.6287929E-02  1.9504601E-02  3.4288883E-02
   18.7500  3.5972620E-02  1.9769566E-02  3.4001981E-02
   19.0000  3.5697816E-02  2.0077221E-02  3.3699271E-02
   19.2500  3.5475735E-02  2.0425520E-02  3.3390974E-02
   19.5000  3.5313867E-02  2.0812691E-02  3.3085574E-02
   19.7500  3.5215020E-02  2.1237236E-02  3.2789529E-02
   20.0000  3.5177477E-02  2.1697723E-02  3.2507322E-02
   21.0000  3.5470852E-02  2.3854699E-02  3.1558818E-02
   22.0000  3.5815717E-02  2.6388566E-02  3.0885805E-02
   23.0000  3.5282496E-02  2.9097404E-02  3.0345476E-02
   24.0000  3.3509138E-02  3.1665366E-02  2.9776524E-02
   25.0000  3.0970882E-02  3.3710614E-02  2.9084475E-02
   26.0000  2.8417087E-02  3.5016868E-02  2.8256099E-02
   27.0000  2.6331147E-02  3.5573408E-02  2.7353719E-02
   28.0000  2.4841041E-02  3.5497428E-02  2.6487849E-02
   29.0000  2.3870395E-02  3.4961415E-02  2.5762178E-02
   30.0000  2.3283564E-02  3.4141783E-02  2.5223721E-02
   31.0000  2.2954193E-02  3.3180939E-02  2.4851011E-02
   32.0000  2.2782252E-02  3.2169469E-02  2.4576518E-02
   33.0000  2.2692681E-02  3.1150599E-02  2.4318086E-02
   34.0000  2.2632587E-02  3.0136572E-02  2.4002328E-02
   35.0000  2.2570372E-02  2.9126429E-02  2.3578374E-02
   36.0000  2.2493649E-02  2.8119993E-02  2.3027154E-02
   37.0000  2.2403288E-02  2.7127105E-02  2.2369412E-02
   38.0000  2.2305414E-02  2.6174559E-02  2.1668582E-02
   39.0000  2.2207520E-02  2.5313754E-02  2.1017904E-02
   40.0000  2.2120785E-02  2.4620302E-02  2.0503427E-02
