    Energy   (100,001)      (010,001)      (001,110)   
  -25.0000  1.6565771E-04  1.9299304E-04  1.8055410E-04
  -24.0000  1.7171980E-04  2.0004029E-04  1.8706605E-04
  -23.0000  1.7819265E-04  2.0758582E-04  1.9402423E-04
  -22.0000  1.8511786E-04  2.1568358E-04  2.0147499E-04
  -21.0000  1.9254277E-04  2.2439550E-04  2.0947123E-04
  -20.0000  2.0052146E-04  2.3379306E-04  2.1807365E-04
  -19.0000  2.0911594E-04  2.4395914E-04  2.2735214E-04
  -18.0000  2.1839771E-04  2.5499040E-04  2.3738769E-04
  -17.0000  2.2844960E-04  2.6700021E-04  2.4827460E-04
  -16.0000  2.3936813E-04  2.8012244E-04  2.6012334E-04
  -15.0000  2.5126642E-04  2.9451619E-04  2.7306420E-04
  -14.0000  2.6427796E-04  3.1037206E-04  2.8725186E-04
  -13.0000  2.7856135E-04  3.2792018E-04  3.0287147E-04
  -12.0000  2.9430654E-04  3.4744096E-04  3.2014647E-04
  -11.0000  3.1174304E-04  3.6927946E-04  3.3934912E-04
  -10.0000  3.3115078E-04  3.9386495E-04  3.6081459E-04
  -9.00000  3.5287498E-04  4.2173793E-04  3.8496050E-04
  -8.00000  3.7734646E-04  4.5358833E-04  4.1231407E-04
  -7.00000  4.0511048E-04  4.9031039E-04  4.4355116E-04
  -6.00000  4.3686816E-04  5.3308356E-04  4.7955363E-04
  -5.00000  4.7353783E-04  5.8349508E-04  5.2149614E-04
  -4.00000  5.1634911E-04  6.4373181E-04  5.7098247E-04
  -3.00000  5.6699231E-04  7.1689196E-04  6.3026911E-04
  -2.00000  6.2786796E-04  8.0751612E-04  7.0265207E-04
  -1.00000  7.0252869E-04  9.2254607E-04  7.9318341E-04
   0.00000  7.9652584E-04  1.0731920E-03  9.1012092E-04
   1.00000  9.1921132E-04  1.2789603E-03  1.0682316E-03
   2.00000  1.0881951E-03  1.5777102E-03  1.2976839E-03
   3.00000  1.3431948E-03  2.0570771E-03  1.6746612E-03
   4.00000  1.8079270E-03  2.9954248E-03  2.4748010E-03
   5.00000  3.0161207E-03  5.5969756E-03  4.9819954E-03
   5.20000  3.3956703E-03  6.4164228E-03  5.7222990E-03
   5.40000  3.7824827E-03  7.2436326E-03  6.3866701E-03
   5.60000  4.1641000E-03  8.0556592E-03  6.9492881E-03
   5.80000  4.5406924E-03  8.8593989E-03  7.4295744E-03
   6.00000  4.9182577E-03  9.6712976E-03  7.8559998E-03
   6.20000  5.3060610E-03  1.0509693E-02  8.2510341E-03
   6.40000  5.7155465E-03  1.1394159E-02  8.6279853E-03
   6.60000  6.1587432E-03  1.2345831E-02  8.9918806E-03
   6.80000  6.6467237E-03  1.3387645E-02  9.3438303E-03
   7.00000  7.1887972E-03  1.4544579E-02  9.6876145E-03
   7.20000  7.7924072E-03  1.5843663E-02  1.0034668E-02
   7.40000  8.4633659E-03  1.7313618E-02  1.0404650E-02
   7.60000  9.2060683E-03  1.8984256E-02  1.0822380E-02
   7.80000  1.0023359E-02  2.0885556E-02  1.1313952E-02
   8.00000  1.0915691E-02  2.3045818E-02  1.1903968E-02
   8.20000  1.1879374E-02  2.5488166E-02  1.2614167E-02
   8.40000  1.2904164E-02  2.8225010E-02  1.3462876E-02
   8.60000  1.3971164E-02  3.1250715E-02  1.4464748E-02
   8.80000  1.5052708E-02  3.4533774E-02  1.5630503E-02
   9.00000  1.6115987E-02  3.8011104E-02  1.6966435E-02
   9.20000  1.7130857E-02  4.1587581E-02  1.8473381E-02
   9.40000  1.8079450E-02  4.5142006E-02  2.0145139E-02
   9.60000  1.8962653E-02  4.8536990E-02  2.1966875E-02
   9.80000  1.9799267E-02  5.1628829E-02  2.3914135E-02
   10.0000  2.0618249E-02  5.4276252E-02  2.5952860E-02
   10.2500  2.1661974E-02  5.6768026E-02  2.8564542E-02
   10.5000  2.2768426E-02  5.8183655E-02  3.1158663E-02
   10.7500  2.3953692E-02  5.8444894E-02  3.3642455E-02
   11.0000  2.5198023E-02  5.7592017E-02  3.5933349E-02
   11.2500  2.6457093E-02  5.5779897E-02  3.7960604E-02
   11.5000  2.7680939E-02  5.3243923E-02  3.9665122E-02
   11.7500  2.8825740E-02  5.0243547E-02  4.1001669E-02
   12.0000  2.9857843E-02  4.7015098E-02  4.1941666E-02
   12.2500  3.0755109E-02  4.3748339E-02  4.2474586E-02
   12.5000  3.1508650E-02  4.0581195E-02  4.2611338E-02
   12.7500  3.2123287E-02  3.7604686E-02  4.2389181E-02
   13.0000  3.2614713E-02  3.4871987E-02  4.1871168E-02
   13.2500  3.3005045E-02  3.2407849E-02  4.1136581E-02
   13.5000  3.3318922E-02  3.0216937E-02  4.0268036E-02
   13.7500  3.3580733E-02  2.8290669E-02  3.9341347E-02
   14.0000  3.3812884E-02  2.6612528E-02  3.8419771E-02
   14.2500  3.4034861E-02  2.5161944E-02  3.7551921E-02
   14.5000  3.4262831E-02  2.3916975E-02  3.6772135E-02
   14.7500  3.4509569E-02  2.2856035E-02  3.6102182E-02
   15.0000  3.4784543E-02  2.1958899E-02  3.5553454E-02
   15.2500  3.5094058E-02  2.1207205E-02  3.5129107E-02
   15.5000  3.5441430E-02  2.0584627E-02  3.4825903E-02
   15.7500  3.5827178E-02  2.0076846E-02  3.4635688E-02
   16.0000  3.6249263E-02  1.9671413E-02  3.4546556E-02
   16.2500  3.6703376E-02  1.9357560E-02  3.4543782E-02
   16.5000  3.7183297E-02  1.9126001E-02  3.4610653E-02
   16.7500  3.7681322E-02  1.8968730E-02  3.4729254E-02
   17.0000  3.8188769E-02  1.8878825E-02  3.4881290E-02
   17.2500  3.8696559E-02  1.8850281E-02  3.5048928E-02
   17.5000  3.9195838E-02  1.8877849E-02  3.5215644E-02
   17.7500  3.9678604E-02  1.8956901E-02  3.5366986E-02
   18.0000  4.0138259E-02  1.9083316E-02  3.5491196E-02
   18.2500  4.0570031E-02  1.9253390E-02  3.5579593E-02
   18.5000  4.0971188E-02  1.9463764E-02  3.5626703E-02
   18.7500  4.1341012E-02  1.9711377E-02  3.5630112E-02
   19.0000  4.1680542E-02  1.9993456E-02  3.5590091E-02
   19.2500  4.1992105E-02  2.0307530E-02  3.5509044E-02
   19.5000  4.2278705E-02  2.0651460E-02  3.5390873E-02
   19.7500  4.2543320E-02  2.1023426E-02  3.5240381E-02
   20.0000  4.2788135E-02  2.1421735E-02  3.5062855E-02
   21.0000  4.3554285E-02  2.3233065E-02  3.4195211E-02
   22.0000  4.3757025E-02  2.5277299E-02  3.3287477E-02
   23.0000  4.2972827E-02  2.7409727E-02  3.2464110E-02
   24.0000  4.1031820E-02  2.9475484E-02  3.1708294E-02
   25.0000  3.8220486E-02  3.1314161E-02  3.0940811E-02
   26.0000  3.5045873E-02  3.2774361E-02  3.0100131E-02
   27.0000  3.1988111E-02  3.3741267E-02  2.9203778E-02
   28.0000  2.9397019E-02  3.4183101E-02  2.8346826E-02
   29.0000  2.7389149E-02  3.4179365E-02  2.7622885E-02
   30.0000  2.5928261E-02  3.3863210E-02  2.7084388E-02
   31.0000  2.4918518E-02  3.3361619E-02  2.6740778E-02
   32.0000  2.4245567E-02  3.2768729E-02  2.6567136E-02
   33.0000  2.3799060E-02  3.2141132E-02  2.6513877E-02
   34.0000  2.3482773E-02  3.1505639E-02  2.6517403E-02
   35.0000  2.3217756E-02  3.0871798E-02  2.6512938E-02
   36.0000  2.2944491E-02  3.0243908E-02  2.6446878E-02
   37.0000  2.2627357E-02  2.9629488E-02  2.6286896E-02
   38.0000  2.2261053E-02  2.9044104E-02  2.6030677E-02
   39.0000  2.1876079E-02  2.8516595E-02  2.5714820E-02
   40.0000  2.1534193E-02  2.8092132E-02  2.5415335E-02
