    Energy   (100,001)      (010,001)      (001,110)   
  -25.0000  1.7190043E-04  1.8348020E-04  1.7458029E-04
  -24.0000  1.7843478E-04  1.9035908E-04  1.8140191E-04
  -23.0000  1.8543211E-04  1.9772984E-04  1.8872106E-04
  -22.0000  1.9294156E-04  2.0564594E-04  1.9659211E-04
  -21.0000  2.0101930E-04  2.1416874E-04  2.0507752E-04
  -20.0000  2.0972989E-04  2.2336906E-04  2.1424932E-04
  -19.0000  2.1914783E-04  2.3332904E-04  2.2419102E-04
  -18.0000  2.2935955E-04  2.4414444E-04  2.3499996E-04
  -17.0000  2.4046589E-04  2.5592761E-04  2.4679028E-04
  -16.0000  2.5258516E-04  2.6881114E-04  2.5969663E-04
  -15.0000  2.6585708E-04  2.8295265E-04  2.7387899E-04
  -14.0000  2.8044781E-04  2.9854089E-04  2.8952879E-04
  -13.0000  2.9655644E-04  3.1580372E-04  3.0687703E-04
  -12.0000  3.1442349E-04  3.3501871E-04  3.2620490E-04
  -11.0000  3.3434221E-04  3.5652729E-04  3.4785811E-04
  -10.0000  3.5667376E-04  3.8075401E-04  3.7226634E-04
  -9.00000  3.8186792E-04  4.0823318E-04  3.9997023E-04
  -8.00000  4.1049193E-04  4.3964638E-04  4.3165939E-04
  -7.00000  4.4327139E-04  4.7587632E-04  4.6822740E-04
  -6.00000  4.8114949E-04  5.1808616E-04  5.1085289E-04
  -5.00000  5.2537532E-04  5.6783939E-04  5.6112323E-04
  -4.00000  5.7763931E-04  6.2728696E-04  6.2122894E-04
  -3.00000  6.4028869E-04  6.9947058E-04  6.9428256E-04
  -2.00000  7.1668551E-04  7.8883736E-04  7.8486723E-04
  -1.00000  8.1183503E-04  9.0216469E-04  9.0004041E-04
   0.00000  9.3356810E-04  1.0503504E-03  1.0513205E-03
   1.00000  1.0949876E-03  1.2522441E-03  1.2590559E-03
   2.00000  1.3202655E-03  1.5441167E-03  1.5635773E-03
   3.00000  1.6616116E-03  2.0088697E-03  2.0608477E-03
   4.00000  2.2699001E-03  2.9051331E-03  3.0655390E-03
   5.00000  3.7439335E-03  5.3365955E-03  5.9767683E-03
   5.20000  4.1971907E-03  6.1028393E-03  6.9044302E-03
   5.40000  4.6708861E-03  6.8832051E-03  7.8296158E-03
   5.60000  5.1656593E-03  7.6597031E-03  8.7151689E-03
   5.80000  5.6974004E-03  8.4423090E-03  9.5661614E-03
   6.00000  6.2847516E-03  9.2491239E-03  1.0409177E-02
   6.20000  6.9434022E-03  1.0097501E-02  1.1281269E-02
   6.40000  7.6849679E-03  1.1003013E-02  1.2225917E-02
   6.60000  8.5174659E-03  1.1980801E-02  1.3289237E-02
   6.80000  9.4463101E-03  1.3047112E-02  1.4514386E-02
   7.00000  1.0475406E-02  1.4220393E-02  1.5934839E-02
   7.20000  1.1608100E-02  1.5521862E-02  1.7567577E-02
   7.40000  1.2847967E-02  1.6975618E-02  1.9406730E-02
   7.60000  1.4199538E-02  1.8608358E-02  2.1418787E-02
   7.80000  1.5669052E-02  2.0448688E-02  2.3542099E-02
   8.00000  1.7264940E-02  2.2525902E-02  2.5694422E-02
   8.20000  1.8997422E-02  2.4868325E-02  2.7789619E-02
   8.40000  2.0876554E-02  2.7501551E-02  2.9757618E-02
   8.60000  2.2908438E-02  3.0445795E-02  3.1556308E-02
   8.80000  2.5090252E-02  3.3710385E-02  3.3169170E-02
   9.00000  2.7405265E-02  3.7284499E-02  3.4593924E-02
   9.20000  2.9818147E-02  4.1124648E-02  3.5830760E-02
   9.40000  3.2271890E-02  4.5140690E-02  3.6875441E-02
   9.60000  3.4688643E-02  4.9184069E-02  3.7721047E-02
   9.80000  3.6974625E-02  5.3044541E-02  3.8366802E-02
   10.0000  3.9028333E-02  5.6463006E-02  3.8826465E-02
   10.2500  4.1120887E-02  5.9699206E-02  3.9187941E-02
   10.5000  4.2549746E-02  6.1380566E-02  3.9396808E-02
   10.7500  4.3251348E-02  6.1321373E-02  3.9551674E-02
   11.0000  4.3266667E-02  5.9654828E-02  3.9734886E-02
   11.2500  4.2724869E-02  5.6762450E-02  3.9993019E-02
   11.5000  4.1801972E-02  5.3123173E-02  4.0329490E-02
   11.7500  4.0675992E-02  4.9175732E-02  4.0708767E-02
   12.0000  3.9493343E-02  4.5247854E-02  4.1068044E-02
   12.2500  3.8353833E-02  4.1547421E-02  4.1333278E-02
   12.5000  3.7314725E-02  3.8185222E-02  4.1437783E-02
   12.7500  3.6404146E-02  3.5203276E-02  4.1339988E-02
   13.0000  3.5633450E-02  3.2598784E-02  4.1033736E-02
   13.2500  3.5004155E-02  3.0344300E-02  4.0545099E-02
   13.5000  3.4511013E-02  2.8402878E-02  3.9919960E-02
   13.7500  3.4144206E-02  2.6736288E-02  3.9211914E-02
   14.0000  3.3891395E-02  2.5308463E-02  3.8473671E-02
   14.2500  3.3739257E-02  2.4087012E-02  3.7751208E-02
   14.5000  3.3674401E-02  2.3043878E-02  3.7080364E-02
   14.7500  3.3683769E-02  2.2155373E-02  3.6485572E-02
   15.0000  3.3754665E-02  2.1401811E-02  3.5980138E-02
   15.2500  3.3874553E-02  2.0766925E-02  3.5567425E-02
   15.5000  3.4030839E-02  2.0237255E-02  3.5242509E-02
   15.7500  3.4210810E-02  1.9801579E-02  3.4994046E-02
   16.0000  3.4401871E-02  1.9450445E-02  3.4806252E-02
   16.2500  3.4592128E-02  1.9175814E-02  3.4660923E-02
   16.5000  3.4771249E-02  1.8970786E-02  3.4539432E-02
   16.7500  3.4931415E-02  1.8829409E-02  3.4424571E-02
   17.0000  3.5068114E-02  1.8746534E-02  3.4302069E-02
   17.2500  3.5180530E-02  1.8717708E-02  3.4161608E-02
   17.5000  3.5271416E-02  1.8739090E-02  3.3997234E-02
   17.7500  3.5346424E-02  1.8807374E-02  3.3807169E-02
   18.0000  3.5413058E-02  1.8919732E-02  3.3593137E-02
   18.2500  3.5479458E-02  1.9073758E-02  3.3359405E-02
   18.5000  3.5553242E-02  1.9267421E-02  3.3111755E-02
   18.7500  3.5640573E-02  1.9499041E-02  3.2856526E-02
   19.0000  3.5745553E-02  1.9767269E-02  3.2599854E-02
   19.2500  3.5869949E-02  2.0071096E-02  3.2347117E-02
   19.5000  3.6013207E-02  2.0409860E-02  3.2102591E-02
   19.7500  3.6172608E-02  2.0783206E-02  3.1869279E-02
   20.0000  3.6343406E-02  2.1190877E-02  3.1648946E-02
   21.0000  3.6982432E-02  2.3148086E-02  3.0902764E-02
   22.0000  3.7119245E-02  2.5567271E-02  3.0316373E-02
   23.0000  3.6345628E-02  2.8284913E-02  2.9747052E-02
   24.0000  3.4642214E-02  3.0977944E-02  2.9073455E-02
   25.0000  3.2350425E-02  3.3302197E-02  2.8261411E-02
   26.0000  2.9945573E-02  3.4983660E-02  2.7360407E-02
   27.0000  2.7803240E-02  3.5898858E-02  2.6469687E-02
   28.0000  2.6113353E-02  3.6097618E-02  2.5696859E-02
   29.0000  2.4906427E-02  3.5742727E-02  2.5117693E-02
   30.0000  2.4110360E-02  3.5025453E-02  2.4750999E-02
   31.0000  2.3610411E-02  3.4107404E-02  2.4558581E-02
   32.0000  2.3293605E-02  3.3100053E-02  2.4465218E-02
   33.0000  2.3069138E-02  3.2067751E-02  2.4383977E-02
   34.0000  2.2872997E-02  3.1039783E-02  2.4237004E-02
   35.0000  2.2666576E-02  3.0024186E-02  2.3970338E-02
   36.0000  2.2433812E-02  2.9020752E-02  2.3564637E-02
   37.0000  2.2177138E-02  2.8033415E-02  2.3042344E-02
   38.0000  2.1912272E-02  2.7082670E-02  2.2467133E-02
   39.0000  2.1663379E-02  2.6217724E-02  2.1927507E-02
   40.0000  2.1458054E-02  2.5517354E-02  2.1501054E-02
