    Energy   (100,001)      (010,001)      (001,110)   
  -25.0000  1.6759413E-04  1.7439905E-04  1.6397614E-04
  -24.0000  1.7384443E-04  1.8122332E-04  1.7036844E-04
  -23.0000  1.8052763E-04  1.8854871E-04  1.7721940E-04
  -22.0000  1.8768855E-04  1.9643062E-04  1.8457808E-04
  -21.0000  1.9537824E-04  2.0493279E-04  1.9250062E-04
  -20.0000  2.0365520E-04  2.1412888E-04  2.0105160E-04
  -19.0000  2.1258665E-04  2.2410446E-04  2.1030561E-04
  -18.0000  2.2225028E-04  2.3495952E-04  2.2034933E-04
  -17.0000  2.3273632E-04  2.4681151E-04  2.3128397E-04
  -16.0000  2.4415017E-04  2.5979940E-04  2.4322848E-04
  -15.0000  2.5661565E-04  2.7408866E-04  2.5632359E-04
  -14.0000  2.7027922E-04  2.8987785E-04  2.7073697E-04
  -13.0000  2.8531530E-04  3.0740724E-04  2.8666998E-04
  -12.0000  3.0193327E-04  3.2697012E-04  3.0436655E-04
  -11.0000  3.2038660E-04  3.4892812E-04  3.2412503E-04
  -10.0000  3.4098505E-04  3.7373202E-04  3.4631429E-04
  -9.00000  3.6411109E-04  4.0195058E-04  3.7139584E-04
  -8.00000  3.9024256E-04  4.3431127E-04  3.9995509E-04
  -7.00000  4.1998432E-04  4.7175883E-04  4.3274620E-04
  -6.00000  4.5411356E-04  5.1554177E-04  4.7075839E-04
  -5.00000  4.9364626E-04  5.6734337E-04  5.1531691E-04
  -4.00000  5.3993758E-04  6.2948639E-04  5.6824226E-04
  -3.00000  5.9483883E-04  7.0526558E-04  6.3211279E-04
  -2.00000  6.6095379E-04  7.9951202E-04  7.1072111E-04
  -1.00000  7.4208050E-04  9.1960713E-04  8.0992288E-04
   0.00000  8.4402871E-04  1.0774407E-03  9.3935765E-04
   1.00000  9.7628750E-04  1.2935796E-03  1.1163654E-03
   2.00000  1.1559484E-03  1.6074696E-03  1.3764494E-03
   3.00000  1.4192465E-03  2.1083671E-03  1.8085988E-03
   4.00000  1.8706424E-03  3.0685155E-03  2.7256691E-03
   5.00000  2.9319058E-03  5.6350141E-03  5.6515588E-03
   5.20000  3.2544652E-03  6.4630660E-03  6.6569948E-03
   5.40000  3.5861954E-03  7.3316255E-03  7.6752732E-03
   5.60000  3.9214895E-03  8.2207331E-03  8.6036247E-03
   5.80000  4.2643755E-03  9.1320467E-03  9.3613644E-03
   6.00000  4.6214486E-03  1.0075183E-02  9.9104688E-03
   6.20000  4.9997765E-03  1.1063882E-02  1.0269117E-02
   6.40000  5.4072923E-03  1.2115211E-02  1.0497392E-02
   6.60000  5.8528872E-03  1.3247932E-02  1.0664469E-02
   6.80000  6.3458087E-03  1.4482716E-02  1.0825170E-02
   7.00000  6.8950258E-03  1.5845203E-02  1.1017645E-02
   7.20000  7.5091013E-03  1.7368470E-02  1.1272200E-02
   7.40000  8.1966428E-03  1.9091702E-02  1.1617791E-02
   7.60000  8.9670370E-03  2.1055607E-02  1.2082509E-02
   7.80000  9.8310827E-03  2.3297430E-02  1.2691670E-02
   8.00000  1.0801245E-02  2.5847848E-02  1.3466687E-02
   8.20000  1.1891377E-02  2.8731311E-02  1.4424951E-02
   8.40000  1.3115915E-02  3.1970466E-02  1.5579588E-02
   8.60000  1.4488915E-02  3.5590691E-02  1.6938475E-02
   8.80000  1.6023357E-02  3.9613546E-02  1.8502675E-02
   9.00000  1.7730430E-02  4.4030321E-02  2.0264733E-02
   9.20000  1.9617633E-02  4.8761306E-02  2.2207211E-02
   9.40000  2.1684860E-02  5.3617020E-02  2.4302087E-02
   9.60000  2.3918592E-02  5.8280637E-02  2.6511691E-02
   9.80000  2.6285226E-02  6.2331270E-02  2.8790969E-02
   10.0000  2.8726089E-02  6.5320108E-02  3.1089614E-02
   10.2500  3.1753381E-02  6.7030372E-02  3.3905116E-02
   10.5000  3.4572468E-02  6.6276574E-02  3.6540990E-02
   10.7500  3.6993511E-02  6.3381645E-02  3.8864801E-02
   11.0000  3.8875673E-02  5.9051530E-02  4.0759150E-02
   11.2500  4.0164890E-02  5.4054504E-02  4.2147836E-02
   11.5000  4.0902345E-02  4.8997919E-02  4.3009498E-02
   11.7500  4.1197909E-02  4.4262074E-02  4.3376010E-02
   12.0000  4.1187288E-02  4.0032875E-02  4.3318222E-02
   12.2500  4.0995898E-02  3.6364955E-02  4.2927310E-02
   12.5000  4.0720438E-02  3.3238338E-02  4.2299534E-02
   12.7500  4.0426346E-02  3.0597936E-02  4.1527023E-02
   13.0000  4.0153600E-02  2.8377344E-02  4.0692306E-02
   13.2500  3.9924141E-02  2.6511500E-02  3.9863406E-02
   13.5000  3.9748020E-02  2.4942424E-02  3.9090592E-02
   13.7500  3.9627793E-02  2.3621103E-02  3.8407388E-02
   14.0000  3.9560824E-02  2.2507401E-02  3.7834399E-02
   14.2500  3.9539985E-02  2.1569085E-02  3.7382923E-02
   14.5000  3.9553979E-02  2.0780520E-02  3.7056968E-02
   14.7500  3.9587845E-02  2.0121376E-02  3.6854101E-02
   15.0000  3.9623757E-02  1.9575519E-02  3.6765940E-02
   15.2500  3.9642205E-02  1.9130094E-02  3.6778630E-02
   15.5000  3.9623565E-02  1.8774817E-02  3.6873449E-02
   15.7500  3.9549960E-02  1.8501417E-02  3.7027693E-02
   16.0000  3.9407147E-02  1.8303197E-02  3.7215945E-02
   16.2500  3.9186130E-02  1.8174698E-02  3.7411739E-02
   16.5000  3.8884145E-02  1.8111420E-02  3.7589513E-02
   16.7500  3.8504829E-02  1.8109611E-02  3.7726597E-02
   17.0000  3.8057573E-02  1.8166089E-02  3.7804922E-02
   17.2500  3.7556240E-02  1.8278102E-02  3.7812197E-02
   17.5000  3.7017560E-02  1.8443224E-02  3.7742375E-02
   17.7500  3.6459526E-02  1.8659265E-02  3.7595408E-02
   18.0000  3.5900004E-02  1.8924205E-02  3.7376405E-02
   18.2500  3.5355690E-02  1.9236143E-02  3.7094418E-02
   18.5000  3.4841400E-02  1.9593262E-02  3.6761060E-02
   18.7500  3.4369653E-02  1.9993813E-02  3.6389167E-02
   19.0000  3.3950467E-02  2.0436121E-02  3.5991609E-02
   19.2500  3.3591287E-02  2.0918625E-02  3.5580335E-02
   19.5000  3.3296996E-02  2.1439924E-02  3.5165671E-02
   19.7500  3.3069960E-02  2.1998738E-02  3.4755907E-02
   20.0000  3.2910135E-02  2.2593617E-02  3.4357298E-02
   21.0000  3.2874220E-02  2.5275691E-02  3.2951906E-02
   22.0000  3.3489167E-02  2.8251113E-02  3.1904512E-02
   23.0000  3.4161203E-02  3.1181655E-02  3.1120591E-02
   24.0000  3.4292161E-02  3.3626381E-02  3.0443361E-02
   25.0000  3.3563035E-02  3.5240890E-02  2.9744401E-02
   26.0000  3.2096080E-02  3.5886896E-02  2.8970503E-02
   27.0000  3.0313595E-02  3.5656539E-02  2.8153666E-02
   28.0000  2.8625128E-02  3.4798825E-02  2.7375449E-02
   29.0000  2.7241944E-02  3.3594394E-02  2.6706201E-02
   30.0000  2.6192456E-02  3.2267487E-02  2.6162378E-02
   31.0000  2.5414246E-02  3.0957193E-02  2.5705855E-02
   32.0000  2.4822213E-02  2.9726142E-02  2.5270986E-02
   33.0000  2.4338079E-02  2.8584606E-02  2.4793405E-02
   34.0000  2.3900264E-02  2.7515486E-02  2.4226622E-02
   35.0000  2.3468538E-02  2.6493956E-02  2.3549389E-02
   36.0000  2.3026866E-02  2.5501267E-02  2.2769842E-02
   37.0000  2.2581463E-02  2.4534103E-02  2.1926850E-02
   38.0000  2.2153320E-02  2.3611531E-02  2.1086812E-02
   39.0000  2.1770513E-02  2.2780600E-02  2.0333233E-02
   40.0000  2.1463549E-02  2.2111790E-02  1.9742309E-02
