    Energy   (100,001)      (010,001)      (001,110)   
  -25.0000  1.6711521E-04  1.8233761E-04  1.7566653E-04
  -24.0000  1.7312535E-04  1.8922752E-04  1.8202253E-04
  -23.0000  1.7953638E-04  1.9661259E-04  1.8881192E-04
  -22.0000  1.8638826E-04  2.0454680E-04  1.9607935E-04
  -21.0000  1.9372636E-04  2.1309213E-04  2.0387574E-04
  -20.0000  2.0160241E-04  2.2232014E-04  2.1225939E-04
  -19.0000  2.1007556E-04  2.3231381E-04  2.2129744E-04
  -18.0000  2.1921386E-04  2.4316995E-04  2.3106753E-04
  -17.0000  2.2909592E-04  2.5500214E-04  2.4165999E-04
  -16.0000  2.3981303E-04  2.6794450E-04  2.5318050E-04
  -15.0000  2.5147187E-04  2.8215651E-04  2.6575354E-04
  -14.0000  2.6419780E-04  2.9782918E-04  2.7952674E-04
  -13.0000  2.7813921E-04  3.1519324E-04  2.9467654E-04
  -12.0000  2.9347304E-04  3.3452985E-04  3.1141568E-04
  -11.0000  3.1041197E-04  3.5618504E-04  3.3000306E-04
  -10.0000  3.2921403E-04  3.8058934E-04  3.5075714E-04
  -9.00000  3.5019543E-04  4.0828492E-04  3.7407433E-04
  -8.00000  3.7374811E-04  4.3996397E-04  4.0045484E-04
  -7.00000  4.0036426E-04  4.7652376E-04  4.3053977E-04
  -6.00000  4.3067118E-04  5.1914803E-04  4.6516571E-04
  -5.00000  4.6548242E-04  5.6943019E-04  5.0544792E-04
  -4.00000  5.0587486E-04  6.2956621E-04  5.5291134E-04
  -3.00000  5.5330978E-04  7.0266835E-04  6.0970662E-04
  -2.00000  6.0983177E-04  7.9329959E-04  6.7898615E-04
  -1.00000  6.7841596E-04  9.0843868E-04  7.6560412E-04
   0.00000  7.6362350E-04  1.0593584E-03  8.7753886E-04
   1.00000  8.7297954E-04  1.2656697E-03  1.0291354E-03
   2.00000  1.0203537E-03  1.5653782E-03  1.2497720E-03
   3.00000  1.2364515E-03  2.0460601E-03  1.6130573E-03
   4.00000  1.6161060E-03  2.9829264E-03  2.3768374E-03
   5.00000  2.5639763E-03  5.5550873E-03  4.7912528E-03
   5.20000  2.8516690E-03  6.3700820E-03  5.6263576E-03
   5.40000  3.1393090E-03  7.2034122E-03  6.4879454E-03
   5.60000  3.4206959E-03  8.0380597E-03  7.2991712E-03
   5.80000  3.7013912E-03  8.8867585E-03  7.9894040E-03
   6.00000  3.9897439E-03  9.7706592E-03  8.5095232E-03
   6.20000  4.2922038E-03  1.0709692E-02  8.8542667E-03
   6.40000  4.6125238E-03  1.1720859E-02  9.0655674E-03
   6.60000  4.9528567E-03  1.2818657E-02  9.2119909E-03
   6.80000  5.3151906E-03  1.4015759E-02  9.3630338E-03
   7.00000  5.7021331E-03  1.5323779E-02  9.5735174E-03
   7.20000  6.1168419E-03  1.6754303E-02  9.8790608E-03
   7.40000  6.5624833E-03  1.8320192E-02  1.0297212E-02
   7.60000  7.0417283E-03  2.0036687E-02  1.0830072E-02
   7.80000  7.5566439E-03  2.1921570E-02  1.1467253E-02
   8.00000  8.1091214E-03  2.3993858E-02  1.2189765E-02
   8.20000  8.7017791E-03  2.6270970E-02  1.2975585E-02
   8.40000  9.3390113E-03  2.8764247E-02  1.3806200E-02
   8.60000  1.0027629E-02  3.1472445E-02  1.4671598E-02
   8.80000  1.0776626E-02  3.4373524E-02  1.5570937E-02
   9.00000  1.1596025E-02  3.7417352E-02  1.6508238E-02
   9.20000  1.2495225E-02  4.0524195E-02  1.7485652E-02
   9.40000  1.3481414E-02  4.3593048E-02  1.8498251E-02
   9.60000  1.4558375E-02  4.6517859E-02  1.9532857E-02
   9.80000  1.5725602E-02  4.9202340E-02  2.0570582E-02
   10.0000  1.6977349E-02  5.1564099E-02  2.1591011E-02
   10.2500  1.8641951E-02  5.3949646E-02  2.2816219E-02
   10.5000  2.0381653E-02  5.5575811E-02  2.3969773E-02
   10.7500  2.2145782E-02  5.6316952E-02  2.5054534E-02
   11.0000  2.3876499E-02  5.6093027E-02  2.6084965E-02
   11.2500  2.5516693E-02  5.4912871E-02  2.7076809E-02
   11.5000  2.7019091E-02  5.2893063E-02  2.8043256E-02
   11.7500  2.8355448E-02  5.0237690E-02  2.8994791E-02
   12.0000  2.9521659E-02  4.7191880E-02  2.9939587E-02
   12.2500  3.0534984E-02  4.3991752E-02  3.0882448E-02
   12.5000  3.1426019E-02  4.0829357E-02  3.1823110E-02
   12.7500  3.2231167E-02  3.7838759E-02  3.2757190E-02
   13.0000  3.2986901E-02  3.5099008E-02  3.3678922E-02
   13.2500  3.3724796E-02  3.2645858E-02  3.4583960E-02
   13.5000  3.4467937E-02  3.0485266E-02  3.5470927E-02
   13.7500  3.5229525E-02  2.8605032E-02  3.6340738E-02
   14.0000  3.6013295E-02  2.6983565E-02  3.7195036E-02
   14.2500  3.6815026E-02  2.5595745E-02  3.8034868E-02
   14.5000  3.7624629E-02  2.4416294E-02  3.8859336E-02
   14.7500  3.8428323E-02  2.3421432E-02  3.9664259E-02
   15.0000  3.9210534E-02  2.2589609E-02  4.0441186E-02
   15.2500  3.9955380E-02  2.1901740E-02  4.1177005E-02
   15.5000  4.0647734E-02  2.1341172E-02  4.1854255E-02
   15.7500  4.1273934E-02  2.0893521E-02  4.2452234E-02
   16.0000  4.1822289E-02  2.0546432E-02  4.2948914E-02
   16.2500  4.2283507E-02  2.0289329E-02  4.3323493E-02
   16.5000  4.2651137E-02  2.0113164E-02  4.3559203E-02
   16.7500  4.2922021E-02  2.0010168E-02  4.3645826E-02
   17.0000  4.3096654E-02  1.9973632E-02  4.3581371E-02
   17.2500  4.3179324E-02  1.9997708E-02  4.3372518E-02
   17.5000  4.3177932E-02  2.0077239E-02  4.3033758E-02
   17.7500  4.3103448E-02  2.0207622E-02  4.2585481E-02
   18.0000  4.2969062E-02  2.0384713E-02  4.2051519E-02
   18.2500  4.2789147E-02  2.0604750E-02  4.1456651E-02
   18.5000  4.2578176E-02  2.0864316E-02  4.0824517E-02
   18.7500  4.2349727E-02  2.1160321E-02  4.0176120E-02
   19.0000  4.2115666E-02  2.1490005E-02  3.9528965E-02
   19.2500  4.1885557E-02  2.1850970E-02  3.8896701E-02
   19.5000  4.1666309E-02  2.2241205E-02  3.8289135E-02
   19.7500  4.1462067E-02  2.2659051E-02  3.7712531E-02
   20.0000  4.1274337E-02  2.3102961E-02  3.7170217E-02
   21.0000  4.0651123E-02  2.5092816E-02  3.5356875E-02
   22.0000  4.0036813E-02  2.7289277E-02  3.4045747E-02
   23.0000  3.9158415E-02  2.9483186E-02  3.3052389E-02
   24.0000  3.7865100E-02  3.1421411E-02  3.2202549E-02
   25.0000  3.6145774E-02  3.2879042E-02  3.1384274E-02
   26.0000  3.4133610E-02  3.3746769E-02  3.0552665E-02
   27.0000  3.2081443E-02  3.4055317E-02  2.9720757E-02
   28.0000  3.0210502E-02  3.3929173E-02  2.8927756E-02
   29.0000  2.8650961E-02  3.3507034E-02  2.8223602E-02
   30.0000  2.7440640E-02  3.2900029E-02  2.7648795E-02
   31.0000  2.6545638E-02  3.2183725E-02  2.7214844E-02
   32.0000  2.5894871E-02  3.1403075E-02  2.6901505E-02
   33.0000  2.5407352E-02  3.0581019E-02  2.6667350E-02
   34.0000  2.5007272E-02  2.9727248E-02  2.6463289E-02
   35.0000  2.4631908E-02  2.8847185E-02  2.6242725E-02
   36.0000  2.4237366E-02  2.7950650E-02  2.5968364E-02
   37.0000  2.3803423E-02  2.7057959E-02  2.5618516E-02
   38.0000  2.3337319E-02  2.6202778E-02  2.5195758E-02
   39.0000  2.2876310E-02  2.5435197E-02  2.4739238E-02
   40.0000  2.2482521E-02  2.4820754E-02  2.4329472E-02
