    Energy   (100,001)      (010,001)      (001,110)   
  -25.0000  1.6244044E-04  1.8169320E-04  1.7473607E-04
  -24.0000  1.6848236E-04  1.8863832E-04  1.8115753E-04
  -23.0000  1.7493826E-04  1.9608709E-04  1.8802151E-04
  -22.0000  1.8185042E-04  2.0409479E-04  1.9537383E-04
  -21.0000  1.8926697E-04  2.1272499E-04  2.0326677E-04
  -20.0000  1.9724293E-04  2.2205113E-04  2.1176016E-04
  -19.0000  2.0584147E-04  2.3215846E-04  2.2092289E-04
  -18.0000  2.1513547E-04  2.4314651E-04  2.3083459E-04
  -17.0000  2.2520944E-04  2.5513219E-04  2.4158784E-04
  -16.0000  2.3616196E-04  2.6825370E-04  2.5329086E-04
  -15.0000  2.4810869E-04  2.8267555E-04  2.6607095E-04
  -14.0000  2.6118624E-04  2.9859505E-04  2.8007890E-04
  -13.0000  2.7555716E-04  3.1625081E-04  2.9549453E-04
  -12.0000  2.9141638E-04  3.3593407E-04  3.1253414E-04
  -11.0000  3.0899979E-04  3.5800378E-04  3.3146011E-04
  -10.0000  3.2859561E-04  3.8290735E-04  3.5259390E-04
  -9.00000  3.5055997E-04  4.1120928E-04  3.7633369E-04
  -8.00000  3.7533841E-04  4.4363175E-04  4.0317875E-04
  -7.00000  4.0349638E-04  4.8111320E-04  4.3376393E-04
  -6.00000  4.3576350E-04  5.2489494E-04  4.6890949E-04
  -5.00000  4.7309967E-04  5.7665307E-04  5.0969512E-04
  -4.00000  5.1679725E-04  6.3870575E-04  5.5757351E-04
  -3.00000  5.6864581E-04  7.1435228E-04  6.1455142E-04
  -2.00000  6.3121156E-04  8.0845432E-04  6.8349242E-04
  -1.00000  7.0834273E-04  9.2849359E-04  7.6865438E-04
   0.00000  8.0616351E-04  1.0866494E-03  8.7672122E-04
   1.00000  9.3526057E-04  1.3043233E-03  1.0190050E-03
   2.00000  1.1163152E-03  1.6235463E-03  1.2169113E-03
   3.00000  1.3984597E-03  2.1429311E-03  1.5189818E-03
   4.00000  1.9456291E-03  3.1797275E-03  2.0772598E-03
   5.00000  3.4926713E-03  6.1195765E-03  3.5505761E-03
   5.20000  3.9706622E-03  7.0547754E-03  4.0170770E-03
   5.40000  4.4381971E-03  8.0022944E-03  4.4962812E-03
   5.60000  4.8814893E-03  8.9373582E-03  4.9760606E-03
   5.80000  5.3087427E-03  9.8712126E-03  5.4587829E-03
   6.00000  5.7339648E-03  1.0825982E-02  5.9499162E-03
   6.20000  6.1694545E-03  1.1822770E-02  6.4530302E-03
   6.40000  6.6242616E-03  1.2879235E-02  6.9694815E-03
   6.60000  7.1041954E-03  1.4009984E-02  7.4998001E-03
   6.80000  7.6117110E-03  1.5227500E-02  8.0454916E-03
   7.00000  8.1456512E-03  1.6543542E-02  8.6104494E-03
   7.20000  8.7016710E-03  1.7971236E-02  9.2013460E-03
   7.40000  9.2741474E-03  1.9527457E-02  9.8271331E-03
   7.60000  9.8590674E-03  2.1234347E-02  1.0498522E-02
   7.80000  1.0455784E-02  2.3118683E-02  1.1227908E-02
   8.00000  1.1065988E-02  2.5208728E-02  1.2029292E-02
   8.20000  1.1690795E-02  2.7529369E-02  1.2917688E-02
   8.40000  1.2328515E-02  3.0096605E-02  1.3908069E-02
   8.60000  1.2975137E-02  3.2911930E-02  1.5014112E-02
   8.80000  1.3627754E-02  3.5956808E-02  1.6246821E-02
   9.00000  1.4289252E-02  3.9187486E-02  1.7612888E-02
   9.20000  1.4971245E-02  4.2530698E-02  1.9112664E-02
   9.40000  1.5692857E-02  4.5881384E-02  2.0737805E-02
   9.60000  1.6475651E-02  4.9104381E-02  2.2469220E-02
   9.80000  1.7337459E-02  5.2042319E-02  2.4276395E-02
   10.0000  1.8287809E-02  5.4530633E-02  2.6118947E-02
   10.2500  1.9597954E-02  5.6780965E-02  2.8401165E-02
   10.5000  2.1020476E-02  5.7881863E-02  3.0577725E-02
   10.7500  2.2512202E-02  5.7761211E-02  3.2579158E-02
   11.0000  2.4019880E-02  5.6503347E-02  3.4364079E-02
   11.2500  2.5490712E-02  5.4317422E-02  3.5918330E-02
   11.5000  2.6881980E-02  5.1477983E-02  3.7248868E-02
   11.7500  2.8167704E-02  4.8266644E-02  3.8374868E-02
   12.0000  2.9341019E-02  4.4930000E-02  3.9318888E-02
   12.2500  3.0412031E-02  4.1657838E-02  4.0101281E-02
   12.5000  3.1401592E-02  3.8579794E-02  4.0738311E-02
   12.7500  3.2334693E-02  3.5772570E-02  4.1242689E-02
   13.0000  3.3235381E-02  3.3271198E-02  4.1625110E-02
   13.2500  3.4123227E-02  3.1081032E-02  4.1896024E-02
   13.5000  3.5011655E-02  2.9188363E-02  4.2067377E-02
   13.7500  3.5907702E-02  2.7568854E-02  4.2153568E-02
   14.0000  3.6812369E-02  2.6193921E-02  4.2170894E-02
   14.2500  3.7721325E-02  2.5035009E-02  4.2135965E-02
   14.5000  3.8626180E-02  2.4065705E-02  4.2064055E-02
   14.7500  3.9515979E-02  2.3262416E-02  4.1967812E-02
   15.0000  4.0378452E-02  2.2604484E-02  4.1856340E-02
   15.2500  4.1200773E-02  2.2074087E-02  4.1734713E-02
   15.5000  4.1969889E-02  2.1656037E-02  4.1603981E-02
   15.7500  4.2672589E-02  2.1337502E-02  4.1461648E-02
   16.0000  4.3295552E-02  2.1107669E-02  4.1302509E-02
   16.2500  4.3825592E-02  2.0957410E-02  4.1119748E-02
   16.5000  4.4250265E-02  2.0878928E-02  4.0906145E-02
   16.7500  4.4558872E-02  2.0865451E-02  4.0655258E-02
   17.0000  4.4743708E-02  2.0910960E-02  4.0362445E-02
   17.2500  4.4801333E-02  2.1009966E-02  4.0025577E-02
   17.5000  4.4733556E-02  2.1157352E-02  3.9645381E-02
   17.7500  4.4547876E-02  2.1348266E-02  3.9225388E-02
   18.0000  4.4257255E-02  2.1578068E-02  3.8771532E-02
   18.2500  4.3879220E-02  2.1842316E-02  3.8291503E-02
   18.5000  4.3434453E-02  2.2136788E-02  3.7793982E-02
   18.7500  4.2945106E-02  2.2457527E-02  3.7287873E-02
   19.0000  4.2433084E-02  2.2800906E-02  3.6781615E-02
   19.2500  4.1918490E-02  2.3163715E-02  3.6282632E-02
   19.5000  4.1418395E-02  2.3543246E-02  3.5796935E-02
   19.7500  4.0946025E-02  2.3937309E-02  3.5328929E-02
   20.0000  4.0510540E-02  2.4344058E-02  3.4881525E-02
   21.0000  3.9208724E-02  2.6055378E-02  3.3327917E-02
   22.0000  3.8501071E-02  2.7801262E-02  3.2149962E-02
   23.0000  3.7921339E-02  2.9461556E-02  3.1243024E-02
   24.0000  3.6958264E-02  3.0897930E-02  3.0473077E-02
   25.0000  3.5353026E-02  3.1980584E-02  2.9735817E-02
   26.0000  3.3219577E-02  3.2642094E-02  2.8985614E-02
   27.0000  3.0920779E-02  3.2896594E-02  2.8240068E-02
   28.0000  2.8781553E-02  3.2811151E-02  2.7545758E-02
   29.0000  2.6983382E-02  3.2464249E-02  2.6952746E-02
   30.0000  2.5580426E-02  3.1929845E-02  2.6493961E-02
   31.0000  2.4539910E-02  3.1272912E-02  2.6173111E-02
   32.0000  2.3784788E-02  3.0543018E-02  2.5966451E-02
   33.0000  2.3225766E-02  2.9770722E-02  2.5831297E-02
   34.0000  2.2780458E-02  2.8971430E-02  2.5715468E-02
   35.0000  2.2383625E-02  2.8153072E-02  2.5566082E-02
   36.0000  2.1992165E-02  2.7322141E-02  2.5338345E-02
   37.0000  2.1586259E-02  2.6487835E-02  2.5005512E-02
   38.0000  2.1168254E-02  2.5669129E-02  2.4570854E-02
   39.0000  2.0763390E-02  2.4909247E-02  2.4082182E-02
   40.0000  2.0418534E-02  2.4283955E-02  2.3636174E-02
