    Energy   (100,001)      (010,001)      (001,110)   
  -25.0000  1.6699329E-04  1.7846412E-04  1.8103014E-04
  -24.0000  1.7299829E-04  1.8537186E-04  1.8751416E-04
  -23.0000  1.7940636E-04  1.9278344E-04  1.9444059E-04
  -22.0000  1.8625817E-04  2.0075434E-04  2.0185531E-04
  -21.0000  1.9359997E-04  2.0934829E-04  2.0981069E-04
  -20.0000  2.0148456E-04  2.1863898E-04  2.1836680E-04
  -19.0000  2.0997255E-04  2.2871192E-04  2.2759289E-04
  -18.0000  2.1913376E-04  2.3966700E-04  2.3756917E-04
  -17.0000  2.2904915E-04  2.5162152E-04  2.4838908E-04
  -16.0000  2.3981303E-04  2.6471418E-04  2.6016217E-04
  -15.0000  2.5153601E-04  2.7911005E-04  2.7301768E-04
  -14.0000  2.6434865E-04  2.9500718E-04  2.8710918E-04
  -13.0000  2.7840620E-04  3.1264503E-04  3.0262064E-04
  -12.0000  2.9389477E-04  3.3231588E-04  3.1977434E-04
  -11.0000  3.1103950E-04  3.5437994E-04  3.3884143E-04
  -10.0000  3.3011542E-04  3.7928614E-04  3.6015629E-04
  -9.00000  3.5146237E-04  4.0760081E-04  3.8413627E-04
  -8.00000  3.7550562E-04  4.4004830E-04  4.1130945E-04
  -7.00000  4.0278522E-04  4.7756955E-04  4.4235452E-04
  -6.00000  4.3399864E-04  5.2140864E-04  4.7815973E-04
  -5.00000  4.7006481E-04  5.7324440E-04  5.1991241E-04
  -4.00000  5.1222359E-04  6.3539695E-04  5.6924022E-04
  -3.00000  5.6219698E-04  7.1116489E-04  6.2844358E-04
  -2.00000  6.2246482E-04  8.0540211E-04  7.0089896E-04
  -1.00000  6.9676829E-04  9.2556457E-04  7.9180666E-04
   0.00000  7.9111270E-04  1.0837603E-03  9.0970034E-04
   1.00000  9.1601083E-04  1.3011998E-03  1.0698628E-03
   2.00000  1.0923916E-03  1.6193859E-03  1.3033906E-03
   3.00000  1.3714366E-03  2.1353580E-03  1.6876700E-03
   4.00000  1.9313928E-03  3.1611423E-03  2.4941985E-03
   5.00000  3.5902066E-03  6.0546248E-03  4.9706736E-03
   5.20000  4.0881085E-03  6.9622029E-03  5.7318466E-03
   5.40000  4.5480934E-03  7.8703568E-03  6.4574883E-03
   5.60000  4.9505347E-03  8.7546021E-03  7.1254846E-03
   5.80000  5.3062592E-03  9.6257171E-03  7.7488766E-03
   6.00000  5.6355988E-03  1.0503422E-02  8.3437604E-03
   6.20000  5.9575388E-03  1.1406282E-02  8.9177715E-03
   6.40000  6.2870369E-03  1.2352848E-02  9.4727348E-03
   6.60000  6.6357193E-03  1.3365573E-02  1.0012010E-02
   6.80000  7.0136133E-03  1.4473356E-02  1.0547101E-02
   7.00000  7.4306185E-03  1.5711375E-02  1.1100110E-02
   7.20000  7.8969274E-03  1.7118956E-02  1.1700952E-02
   7.40000  8.4222322E-03  1.8737207E-02  1.2380900E-02
   7.60000  9.0139862E-03  2.0607545E-02  1.3164984E-02
   7.80000  9.6750587E-03  2.2770642E-02  1.4065024E-02
   8.00000  1.0401210E-02  2.5264189E-02  1.5074043E-02
   8.20000  1.1179158E-02  2.8117462E-02  1.6163199E-02
   8.40000  1.1986553E-02  3.1341190E-02  1.7283857E-02
   8.60000  1.2795388E-02  3.4913080E-02  1.8377528E-02
   8.80000  1.3579211E-02  3.8762615E-02  1.9393175E-02
   9.00000  1.4321851E-02  4.2761730E-02  2.0305269E-02
   9.20000  1.5023144E-02  4.6727847E-02  2.1122451E-02
   9.40000  1.5698560E-02  5.0441869E-02  2.1880723E-02
   9.60000  1.6373565E-02  5.3677915E-02  2.2624844E-02
   9.80000  1.7075802E-02  5.6236553E-02  2.3388950E-02
   10.0000  1.7828162E-02  5.7973074E-02  2.4185904E-02
   10.2500  1.8858980E-02  5.8885331E-02  2.5215420E-02
   10.5000  1.9991904E-02  5.8437009E-02  2.6246149E-02
   10.7500  2.1205812E-02  5.6827732E-02  2.7241207E-02
   11.0000  2.2462204E-02  5.4366049E-02  2.8178452E-02
   11.2500  2.3715882E-02  5.1389614E-02  2.9053162E-02
   11.5000  2.4925920E-02  4.8196476E-02  2.9872971E-02
   11.7500  2.6063256E-02  4.5008303E-02  3.0649004E-02
   12.0000  2.7113505E-02  4.1966310E-02  3.1389026E-02
   12.2500  2.8075635E-02  3.9147027E-02  3.2095341E-02
   12.5000  2.8958287E-02  3.6583484E-02  3.2766633E-02
   12.7500  2.9775606E-02  3.4283109E-02  3.3401500E-02
   13.0000  3.0543768E-02  3.2239685E-02  3.4001387E-02
   13.2500  3.1278470E-02  3.0440054E-02  3.4571478E-02
   13.5000  3.1993269E-02  2.8867326E-02  3.5119553E-02
   13.7500  3.2698464E-02  2.7502555E-02  3.5653889E-02
   14.0000  3.3400159E-02  2.6326112E-02  3.6181743E-02
   14.2500  3.4099926E-02  2.5318866E-02  3.6708708E-02
   14.5000  3.4795345E-02  2.4462877E-02  3.7237671E-02
   14.7500  3.5480905E-02  2.3741700E-02  3.7767396E-02
   15.0000  3.6148771E-02  2.3140496E-02  3.8291622E-02
   15.2500  3.6789442E-02  2.2646073E-02  3.8799049E-02
   15.5000  3.7392456E-02  2.2246865E-02  3.9274084E-02
   15.7500  3.7947231E-02  2.1932865E-02  3.9698213E-02
   16.0000  3.8444038E-02  2.1695515E-02  4.0051807E-02
   16.2500  3.8875034E-02  2.1527573E-02  4.0316216E-02
   16.5000  3.9235248E-02  2.1422947E-02  4.0475881E-02
   16.7500  3.9523333E-02  2.1376514E-02  4.0520172E-02
   17.0000  3.9741959E-02  2.1383912E-02  4.0444669E-02
   17.2500  3.9897732E-02  2.1441320E-02  4.0251659E-02
   17.5000  4.0000642E-02  2.1545252E-02  3.9949801E-02
   17.7500  4.0063095E-02  2.1692372E-02  3.9553044E-02
   18.0000  4.0098686E-02  2.1879362E-02  3.9079051E-02
   18.2500  4.0120915E-02  2.2102844E-02  3.8547417E-02
   18.5000  4.0142013E-02  2.2359361E-02  3.7977971E-02
   18.7500  4.0172051E-02  2.2645419E-02  3.7389362E-02
   19.0000  4.0218374E-02  2.2957576E-02  3.6798030E-02
   19.2500  4.0285393E-02  2.3292579E-02  3.6217558E-02
   19.5000  4.0374649E-02  2.3647500E-02  3.5658370E-02
   19.7500  4.0485033E-02  2.4019812E-02  3.5127740E-02
   20.0000  4.0612996E-02  2.4407279E-02  3.4630191E-02
   21.0000  4.1157833E-02  2.6058753E-02  3.3006930E-02
   22.0000  4.1329748E-02  2.7763492E-02  3.1944047E-02
   23.0000  4.0656490E-02  2.9410212E-02  3.1275319E-02
   24.0000  3.8990178E-02  3.0886179E-02  3.0800803E-02
   25.0000  3.6569608E-02  3.2071251E-02  3.0361889E-02
   26.0000  3.3870354E-02  3.2866228E-02  2.9879002E-02
   27.0000  3.1358831E-02  3.3232947E-02  2.9358765E-02
   28.0000  2.9307514E-02  3.3209044E-02  2.8859323E-02
   29.0000  2.7772814E-02  3.2880828E-02  2.8438820E-02
   30.0000  2.6683323E-02  3.2340842E-02  2.8124764E-02
   31.0000  2.5927598E-02  3.1659333E-02  2.7911638E-02
   32.0000  2.5398558E-02  3.0876971E-02  2.7772165E-02
   33.0000  2.5003267E-02  3.0014998E-02  2.7669057E-02
   34.0000  2.4665689E-02  2.9087083E-02  2.7563076E-02
   35.0000  2.4339197E-02  2.8099937E-02  2.7418737E-02
   36.0000  2.4000451E-02  2.7065450E-02  2.7209031E-02
   37.0000  2.3641300E-02  2.6011551E-02  2.6921828E-02
   38.0000  2.3268180E-02  2.4985608E-02  2.6568265E-02
   39.0000  2.2905481E-02  2.4057006E-02  2.6190276E-02
   40.0000  2.2596578E-02  2.3312252E-02  2.5857534E-02
