    Energy   (100,001)      (010,001)      (001,110)   
  -25.0000  1.6448690E-04  1.7942325E-04  1.7196838E-04
  -24.0000  1.7051837E-04  1.8637177E-04  1.7822661E-04
  -23.0000  1.7695863E-04  1.9382830E-04  1.8491033E-04
  -22.0000  1.8384909E-04  2.0184895E-04  1.9206294E-04
  -21.0000  1.9123684E-04  2.1049822E-04  1.9973383E-04
  -20.0000  1.9917569E-04  2.1985069E-04  2.0797947E-04
  -19.0000  2.0772737E-04  2.2999300E-04  2.1686468E-04
  -18.0000  2.1696304E-04  2.4102637E-04  2.2646425E-04
  -17.0000  2.2696514E-04  2.5306977E-04  2.3686490E-04
  -16.0000  2.3782976E-04  2.6626393E-04  2.4816772E-04
  -15.0000  2.4966954E-04  2.8077649E-04  2.6049131E-04
  -14.0000  2.6261743E-04  2.9680870E-04  2.7397568E-04
  -13.0000  2.7683145E-04  3.1460414E-04  2.8878730E-04
  -12.0000  2.9250097E-04  3.3446033E-04  3.0512563E-04
  -11.0000  3.0985489E-04  3.5674435E-04  3.2323172E-04
  -10.0000  3.2917269E-04  3.8191416E-04  3.4339965E-04
  -9.00000  3.5079935E-04  4.1054824E-04  3.6599201E-04
  -8.00000  3.7516610E-04  4.4338741E-04  3.9146118E-04
  -7.00000  4.0281977E-04  4.8139550E-04  4.2037926E-04
  -6.00000  4.3446541E-04  5.2584907E-04  4.5348105E-04
  -5.00000  4.7102997E-04  5.7847404E-04  4.9172748E-04
  -4.00000  5.1376100E-04  6.4166098E-04  5.3640242E-04
  -3.00000  5.6438592E-04  7.1881722E-04  5.8926602E-04
  -2.00000  6.2538331E-04  8.1497133E-04  6.5281013E-04
  -1.00000  7.0047622E-04  9.3787338E-04  7.3071045E-04
   0.00000  7.9561011E-04  1.1001561E-03  8.2869585E-04
   1.00000  9.2112936E-04  1.3240354E-03  9.5641775E-04
   2.00000  1.0974740E-03  1.6531255E-03  1.1321738E-03
   3.00000  1.3741338E-03  2.1894450E-03  1.3981385E-03
   4.00000  1.9208731E-03  3.2584972E-03  1.8922001E-03
   5.00000  3.5193066E-03  6.2780985E-03  3.2252271E-03
   5.20000  4.0168165E-03  7.2522036E-03  3.6247415E-03
   5.40000  4.4972144E-03  8.2543027E-03  4.0058319E-03
   5.60000  4.9380939E-03  9.2567604E-03  4.3549968E-03
   5.80000  5.3390707E-03  1.0263569E-02  4.6790070E-03
   6.00000  5.7069872E-03  1.1289141E-02  4.9905221E-03
   6.20000  6.0502639E-03  1.2350835E-02  5.3012240E-03
   6.40000  6.3787097E-03  1.3469890E-02  5.6204961E-03
   6.60000  6.7035761E-03  1.4672493E-02  5.9558990E-03
   6.80000  7.0365856E-03  1.5987948E-02  6.3138830E-03
   7.00000  7.3885863E-03  1.7444774E-02  6.7004203E-03
   7.20000  7.7684940E-03  1.9066859E-02  7.1217263E-03
   7.40000  8.1826721E-03  2.0871126E-02  7.5851061E-03
   7.60000  8.6346798E-03  2.2866688E-02  8.0995203E-03
   7.80000  9.1254079E-03  2.5054634E-02  8.6754276E-03
   8.00000  9.6536419E-03  2.7427362E-02  9.3239217E-03
   8.20000  1.0216995E-02  2.9967171E-02  1.0055569E-02
   8.40000  1.0813189E-02  3.2645067E-02  1.0879376E-02
   8.60000  1.1441647E-02  3.5421527E-02  1.1802142E-02
   8.80000  1.2105175E-02  3.8250225E-02  1.2828347E-02
   9.00000  1.2811240E-02  4.1083670E-02  1.3960612E-02
   9.20000  1.3572178E-02  4.3877059E-02  1.5200600E-02
   9.40000  1.4403904E-02  4.6586241E-02  1.6549967E-02
   9.60000  1.5323374E-02  4.9159283E-02  1.8010862E-02
   9.80000  1.6345618E-02  5.1526783E-02  1.9585600E-02
   10.0000  1.7481153E-02  5.3598314E-02  2.1275264E-02
   10.2500  1.9065285E-02  5.5611370E-02  2.3544540E-02
   10.5000  2.0822135E-02  5.6800405E-02  2.5969901E-02
   10.7500  2.2717680E-02  5.7028870E-02  2.8510251E-02
   11.0000  2.4688812E-02  5.6263320E-02  3.1095573E-02
   11.2500  2.6642963E-02  5.4584219E-02  3.3626121E-02
   11.5000  2.8469326E-02  5.2167067E-02  3.5983621E-02
   11.7500  3.0063069E-02  4.9242160E-02  3.8052420E-02
   12.0000  3.1353553E-02  4.6047918E-02  3.9742201E-02
   12.2500  3.2320537E-02  4.2794466E-02  4.1003336E-02
   12.5000  3.2991969E-02  3.9644395E-02  4.1831517E-02
   12.7500  3.3430457E-02  3.6707266E-02  4.2263370E-02
   13.0000  3.3715458E-02  3.4044144E-02  4.2365183E-02
   13.2500  3.3926598E-02  3.1678593E-02  4.2218423E-02
   13.5000  3.4132379E-02  2.9609160E-02  4.1906541E-02
   13.7500  3.4385166E-02  2.7819611E-02  4.1505775E-02
   14.0000  3.4720627E-02  2.6286108E-02  4.1080217E-02
   14.2500  3.5159324E-02  2.4981935E-02  4.0680057E-02
   14.5000  3.5708912E-02  2.3880430E-02  4.0341805E-02
   14.7500  3.6366168E-02  2.2956637E-02  4.0089488E-02
   15.0000  3.7118609E-02  2.2188109E-02  3.9936133E-02
   15.2500  3.7945757E-02  2.1555193E-02  3.9885168E-02
   15.5000  3.8820265E-02  2.1041023E-02  3.9931575E-02
   15.7500  3.9709174E-02  2.0631353E-02  4.0062882E-02
   16.0000  4.0575530E-02  2.0314316E-02  4.0260109E-02
   16.2500  4.1380520E-02  2.0080151E-02  4.0498888E-02
   16.5000  4.2086157E-02  1.9920899E-02  4.0750938E-02
   16.7500  4.2658382E-02  1.9830122E-02  4.0986025E-02
   17.0000  4.3070248E-02  1.9802604E-02  4.1174374E-02
   17.2500  4.3304679E-02  1.9834077E-02  4.1289330E-02
   17.5000  4.3356276E-02  1.9920963E-02  4.1309901E-02
   17.7500  4.3231750E-02  2.0060129E-02  4.1222738E-02
   18.0000  4.2948840E-02  2.0248693E-02  4.1023159E-02
   18.2500  4.2533918E-02  2.0483860E-02  4.0715028E-02
   18.5000  4.2018766E-02  2.0762825E-02  4.0309556E-02
   18.7500  4.1437142E-02  2.1082734E-02  3.9823317E-02
   19.0000  4.0821675E-02  2.1440703E-02  3.9275887E-02
   19.2500  4.0201477E-02  2.1833898E-02  3.8687517E-02
   19.5000  3.9600599E-02  2.2259639E-02  3.8077141E-02
   19.7500  3.9037374E-02  2.2715440E-02  3.7460994E-02
   20.0000  3.8524668E-02  2.3198816E-02  3.6852105E-02
   21.0000  3.7108214E-02  2.5339978E-02  3.4665114E-02
   22.0000  3.6739620E-02  2.7633943E-02  3.3047921E-02
   23.0000  3.7107202E-02  2.9850190E-02  3.1902457E-02
   24.0000  3.7612288E-02  3.1750447E-02  3.1000341E-02
   25.0000  3.7542657E-02  3.3128800E-02  3.0163204E-02
   26.0000  3.6450144E-02  3.3876156E-02  2.9335742E-02
   27.0000  3.4484852E-02  3.4014239E-02  2.8576169E-02
   28.0000  3.2199999E-02  3.3669308E-02  2.7969645E-02
   29.0000  3.0103702E-02  3.3002643E-02  2.7565514E-02
   30.0000  2.8427479E-02  3.2158318E-02  2.7356208E-02
   31.0000  2.7170734E-02  3.1240692E-02  2.7286439E-02
   32.0000  2.6228754E-02  3.0309529E-02  2.7277501E-02
   33.0000  2.5482191E-02  2.9386374E-02  2.7249770E-02
   34.0000  2.4835305E-02  2.8468409E-02  2.7135463E-02
   35.0000  2.4224725E-02  2.7545151E-02  2.6883477E-02
   36.0000  2.3617365E-02  2.6613151E-02  2.6463000E-02
   37.0000  2.3006442E-02  2.5685104E-02  2.5871815E-02
   38.0000  2.2408188E-02  2.4793120E-02  2.5149412E-02
   39.0000  2.1859703E-02  2.3989967E-02  2.4388592E-02
   40.0000  2.1412335E-02  2.3345366E-02  2.3726727E-02
