    Energy   (100,001)      (010,001)      (001,110)   
  -25.0000  1.7206976E-04  1.8029300E-04  1.7210539E-04
  -24.0000  1.7836352E-04  1.8719513E-04  1.7855824E-04
  -23.0000  1.8508844E-04  1.9459792E-04  1.8546336E-04
  -22.0000  1.9228891E-04  2.0255635E-04  1.9286836E-04
  -21.0000  2.0001550E-04  2.1113360E-04  2.0082768E-04
  -20.0000  2.0832609E-04  2.2040268E-04  2.0940382E-04
  -19.0000  2.1728723E-04  2.3044835E-04  2.1866888E-04
  -18.0000  2.2697582E-04  2.4136957E-04  2.2870649E-04
  -17.0000  2.3748114E-04  2.5328258E-04  2.3961415E-04
  -16.0000  2.4890746E-04  2.6632479E-04  2.5150629E-04
  -15.0000  2.6137734E-04  2.8065974E-04  2.6451801E-04
  -14.0000  2.7503569E-04  2.9648363E-04  2.7881001E-04
  -13.0000  2.9005518E-04  3.1403368E-04  2.9457491E-04
  -12.0000  3.0664313E-04  3.3359942E-04  3.1204564E-04
  -11.0000  3.2505063E-04  3.5553767E-04  3.3150648E-04
  -10.0000  3.4558472E-04  3.8029311E-04  3.5330822E-04
  -9.00000  3.6862485E-04  4.0842670E-04  3.7788878E-04
  -8.00000  3.9464557E-04  4.4065585E-04  4.0580239E-04
  -7.00000  4.2424844E-04  4.7791241E-04  4.3776135E-04
  -6.00000  4.5820778E-04  5.2142827E-04  4.7469759E-04
  -5.00000  4.9753816E-04  5.7286537E-04  5.1785615E-04
  -4.00000  5.4359687E-04  6.3451972E-04  5.6894216E-04
  -3.00000  5.9824523E-04  7.0965383E-04  6.3036219E-04
  -2.00000  6.6411425E-04  8.0306443E-04  7.0564169E-04
  -1.00000  7.4506732E-04  9.2211024E-04  8.0019608E-04
   0.00000  8.4706744E-04  1.0787174E-03  9.2288072E-04
   1.00000  9.7997561E-04  1.2937109E-03  1.0894785E-03
   2.00000  1.1618679E-03  1.6076289E-03  1.3318834E-03
   3.00000  1.4320508E-03  2.1144466E-03  1.7285929E-03
   4.00000  1.9079457E-03  3.1123303E-03  2.5495841E-03
   5.00000  3.0729541E-03  5.8835956E-03  5.0654289E-03
   5.20000  3.4234101E-03  6.7518280E-03  5.8972623E-03
   5.40000  3.7761479E-03  7.6249610E-03  6.7275919E-03
   5.60000  4.1265659E-03  8.4827741E-03  7.4963876E-03
   5.80000  4.4835232E-03  9.3409605E-03  8.1769109E-03
   6.00000  4.8588582E-03  1.0226619E-02  8.7701956E-03
   6.20000  5.2629899E-03  1.1166898E-02  9.2981877E-03
   6.40000  5.7044164E-03  1.2186760E-02  9.7946057E-03
   6.60000  6.1902607E-03  1.3309491E-02  1.0295096E-02
   6.80000  6.7269068E-03  1.4557658E-02  1.0830036E-02
   7.00000  7.3205504E-03  1.5953899E-02  1.1420931E-02
   7.20000  7.9776349E-03  1.7521135E-02  1.2079359E-02
   7.40000  8.7051656E-03  1.9281968E-02  1.2807086E-02
   7.60000  9.5109512E-03  2.1257159E-02  1.3596642E-02
   7.80000  1.0403669E-02  2.3463161E-02  1.4432583E-02
   8.00000  1.1392447E-02  2.5908982E-02  1.5294214E-02
   8.20000  1.2485841E-02  2.8593534E-02  1.6160460E-02
   8.40000  1.3690378E-02  3.1504916E-02  1.7016612E-02
   8.60000  1.5009129E-02  3.4621866E-02  1.7860987E-02
   8.80000  1.6441007E-02  3.7914706E-02  1.8708001E-02
   9.00000  1.7981041E-02  4.1341148E-02  1.9585006E-02
   9.20000  1.9621143E-02  4.4834776E-02  2.0523823E-02
   9.40000  2.1350763E-02  4.8290697E-02  2.1551470E-02
   9.60000  2.3157577E-02  5.1558196E-02  2.2684990E-02
   9.80000  2.5027856E-02  5.4448989E-02  2.3931817E-02
   10.0000  2.6945221E-02  5.6762658E-02  2.5292000E-02
   10.2500  2.9373483E-02  5.8580656E-02  2.7138207E-02
   10.5000  3.1776561E-02  5.9026706E-02  2.9106795E-02
   10.7500  3.4065643E-02  5.8113874E-02  3.1124664E-02
   11.0000  3.6129943E-02  5.6052287E-02  3.3090928E-02
   11.2500  3.7855366E-02  5.3176826E-02  3.4892372E-02
   11.5000  3.9153977E-02  4.9853951E-02  3.6425913E-02
   11.7500  3.9988804E-02  4.6400985E-02  3.7619933E-02
   12.0000  4.0382454E-02  4.3043662E-02  3.8447563E-02
   12.2500  4.0407592E-02  3.9913624E-02  3.8928000E-02
   12.5000  4.0165819E-02  3.7069391E-02  3.9116872E-02
   12.7500  3.9764739E-02  3.4523008E-02  3.9090498E-02
   13.0000  3.9300508E-02  3.2262188E-02  3.8929528E-02
   13.2500  3.8848164E-02  3.0264806E-02  3.8706267E-02
   13.5000  3.8458692E-02  2.8506486E-02  3.8477206E-02
   13.7500  3.8160915E-02  2.6963686E-02  3.8280229E-02
   14.0000  3.7965641E-02  2.5614867E-02  3.8136986E-02
   14.2500  3.7869701E-02  2.4440928E-02  3.8058513E-02
   14.5000  3.7859359E-02  2.3425022E-02  3.8049372E-02
   14.7500  3.7913418E-02  2.2552063E-02  3.8109313E-02
   15.0000  3.8006175E-02  2.1808394E-02  3.8233986E-02
   15.2500  3.8110169E-02  2.1181671E-02  3.8415438E-02
   15.5000  3.8198679E-02  2.0660858E-02  3.8642466E-02
   15.7500  3.8247882E-02  2.0236217E-02  3.8900905E-02
   16.0000  3.8238569E-02  1.9899255E-02  3.9174048E-02
   16.2500  3.8157320E-02  1.9642621E-02  3.9443351E-02
   16.5000  3.7997061E-02  1.9459979E-02  3.9689505E-02
   16.7500  3.7757037E-02  1.9345862E-02  3.9893801E-02
   17.0000  3.7442262E-02  1.9295528E-02  4.0039629E-02
   17.2500  3.7062577E-02  1.9304825E-02  4.0113867E-02
   17.5000  3.6631472E-02  1.9370067E-02  4.0107931E-02
   17.7500  3.6164790E-02  1.9487934E-02  4.0018303E-02
   18.0000  3.5679460E-02  1.9655386E-02  3.9846486E-02
   18.2500  3.5192332E-02  1.9869602E-02  3.9598420E-02
   18.5000  3.4719188E-02  2.0127933E-02  3.9283515E-02
   18.7500  3.4273965E-02  2.0427883E-02  3.8913461E-02
   19.0000  3.3868201E-02  2.0767112E-02  3.8500994E-02
   19.2500  3.3510694E-02  2.1143472E-02  3.8058747E-02
   19.5000  3.3207346E-02  2.1555046E-02  3.7598298E-02
   19.7500  3.2961177E-02  2.2000123E-02  3.7129512E-02
   20.0000  3.2772488E-02  2.2476960E-02  3.6660374E-02
   21.0000  3.2528562E-02  2.4646657E-02  3.4894668E-02
   22.0000  3.2830679E-02  2.7074426E-02  3.3431530E-02
   23.0000  3.3242811E-02  2.9523420E-02  3.2223477E-02
   24.0000  3.3383761E-02  3.1717896E-02  3.1131265E-02
   25.0000  3.3054401E-02  3.3383053E-02  3.0054526E-02
   26.0000  3.2291531E-02  3.4343433E-02  2.8985257E-02
   27.0000  3.1260203E-02  3.4622681E-02  2.7976207E-02
   28.0000  3.0141134E-02  3.4377974E-02  2.7101317E-02
   29.0000  2.9069833E-02  3.3797520E-02  2.6411521E-02
   30.0000  2.8126825E-02  3.3039456E-02  2.5909882E-02
   31.0000  2.7345120E-02  3.2207793E-02  2.5560973E-02
   32.0000  2.6716745E-02  3.1353829E-02  2.5312664E-02
   33.0000  2.6205537E-02  3.0490394E-02  2.5110891E-02
   34.0000  2.5764121E-02  2.9609563E-02  2.4905661E-02
   35.0000  2.5347717E-02  2.8698134E-02  2.4654321E-02
   36.0000  2.4923107E-02  2.7749416E-02  2.4325992E-02
   37.0000  2.4474756E-02  2.6772428E-02  2.3908252E-02
   38.0000  2.4009768E-02  2.5800089E-02  2.3415955E-02
   39.0000  2.3561540E-02  2.4897719E-02  2.2900838E-02
   40.0000  2.3185242E-02  2.4160442E-02  2.2449852E-02
