    Energy   (100,001)      (010,001)      (001,110)   
  -25.0000  1.6630467E-04  1.8717220E-04  1.7967629E-04
  -24.0000  1.7227561E-04  1.9405410E-04  1.8612431E-04
  -23.0000  1.7864554E-04  2.0142122E-04  1.9301163E-04
  -22.0000  1.8545449E-04  2.0932568E-04  2.0038363E-04
  -21.0000  1.9274791E-04  2.1782727E-04  2.0829209E-04
  -20.0000  2.0057770E-04  2.2699490E-04  2.1679634E-04
  -19.0000  2.0900330E-04  2.3690836E-04  2.2596472E-04
  -18.0000  2.1809318E-04  2.4766055E-04  2.3587634E-04
  -17.0000  2.2792658E-04  2.5936030E-04  2.4662328E-04
  -16.0000  2.3859573E-04  2.7213585E-04  2.5831337E-04
  -15.0000  2.5020860E-04  2.8613940E-04  2.7107366E-04
  -14.0000  2.6289243E-04  3.0155287E-04  2.8505502E-04
  -13.0000  2.7679823E-04  3.1859550E-04  3.0043788E-04
  -12.0000  2.9210663E-04  3.3753384E-04  3.1743998E-04
  -11.0000  3.0903557E-04  3.5869513E-04  3.3632654E-04
  -10.0000  3.2785053E-04  3.8248544E-04  3.5742409E-04
  -9.00000  3.4887837E-04  4.0941473E-04  3.8113948E-04
  -8.00000  3.7252646E-04  4.4013214E-04  4.0798650E-04
  -7.00000  3.9930951E-04  4.7547651E-04  4.3862414E-04
  -6.00000  4.2988829E-04  5.1655083E-04  4.7391294E-04
  -5.00000  4.6512685E-04  5.6483469E-04  5.1500043E-04
  -4.00000  5.0618010E-04  6.2235988E-04  5.6345559E-04
  -3.00000  5.5463306E-04  6.9199553E-04  6.2148978E-04
  -2.00000  6.1273309E-04  7.7793337E-04  6.9233899E-04
  -1.00000  6.8380193E-04  8.8656462E-04  7.8097084E-04
   0.00000  7.7302652E-04  1.0281915E-03  8.9550736E-04
   1.00000  8.8914958E-04  1.2207375E-03  1.0504291E-03
   2.00000  1.0486828E-03  1.4990885E-03  1.2750106E-03
   3.00000  1.2891558E-03  1.9446383E-03  1.6412651E-03
   4.00000  1.7293848E-03  2.8198036E-03  2.3959550E-03
   5.00000  2.8830125E-03  5.2740006E-03  4.6862976E-03
   5.20000  3.2362728E-03  6.0450342E-03  5.4412616E-03
   5.40000  3.5878453E-03  6.8178239E-03  6.2097160E-03
   5.60000  3.9295935E-03  7.5708758E-03  6.9578180E-03
   5.80000  4.2679508E-03  8.3116854E-03  7.6751894E-03
   6.00000  4.6130526E-03  9.0540020E-03  8.3589627E-03
   6.20000  4.9739192E-03  9.8087724E-03  9.0064187E-03
   6.40000  5.3578038E-03  1.0584931E-02  9.6115625E-03
   6.60000  5.7706378E-03  1.1393025E-02  1.0161446E-02
   6.80000  6.2173972E-03  1.2248213E-02  1.0636783E-02
   7.00000  6.7023638E-03  1.3171090E-02  1.1023682E-02
   7.20000  7.2295973E-03  1.4185971E-02  1.1331966E-02
   7.40000  7.8035132E-03  1.5317897E-02  1.1602671E-02
   7.60000  8.4289193E-03  1.6590457E-02  1.1895501E-02
   7.80000  9.1101668E-03  1.8025345E-02  1.2268032E-02
   8.00000  9.8498003E-03  1.9642963E-02  1.2762465E-02
   8.20000  1.0647254E-02  2.1462910E-02  1.3403138E-02
   8.40000  1.1497930E-02  2.3503619E-02  1.4199342E-02
   8.60000  1.2392846E-02  2.5780827E-02  1.5148370E-02
   8.80000  1.3319061E-02  2.8304809E-02  1.6237084E-02
   9.00000  1.4261354E-02  3.1076453E-02  1.7442666E-02
   9.20000  1.5205701E-02  3.4082425E-02  1.8734344E-02
   9.40000  1.6143654E-02  3.7289955E-02  2.0076594E-02
   9.60000  1.7075461E-02  4.0642041E-02  2.1432583E-02
   9.80000  1.8010570E-02  4.4053694E-02  2.2767211E-02
   10.0000  1.8965223E-02  4.7409546E-02  2.4049889E-02
   10.2500  2.0212979E-02  5.1301960E-02  2.5544292E-02
   10.5000  2.1541742E-02  5.4548660E-02  2.6890529E-02
   10.7500  2.2945595E-02  5.6822208E-02  2.8078609E-02
   11.0000  2.4382077E-02  5.7876104E-02  2.9116460E-02
   11.2500  2.5778547E-02  5.7619291E-02  3.0023834E-02
   11.5000  2.7052141E-02  5.6149665E-02  3.0825411E-02
   11.7500  2.8135700E-02  5.3722935E-02  3.1545142E-02
   12.0000  2.8997697E-02  5.0672715E-02  3.2200294E-02
   12.2500  2.9647122E-02  4.7325451E-02  3.2796519E-02
   12.5000  3.0123724E-02  4.3944218E-02  3.3331145E-02
   12.7500  3.0481359E-02  4.0709068E-02  3.3802599E-02
   13.0000  3.0773659E-02  3.7724701E-02  3.4215394E-02
   13.2500  3.1045656E-02  3.5039801E-02  3.4579152E-02
   13.5000  3.1330579E-02  3.2666099E-02  3.4906606E-02
   13.7500  3.1650330E-02  3.0593194E-02  3.5212447E-02
   14.0000  3.2017529E-02  2.8799016E-02  3.5512343E-02
   14.2500  3.2437617E-02  2.7256609E-02  3.5821656E-02
   14.5000  3.2910625E-02  2.5938168E-02  3.6154014E-02
   14.7500  3.3432603E-02  2.4817233E-02  3.6519981E-02
   15.0000  3.3996735E-02  2.3869735E-02  3.6925985E-02
   15.2500  3.4594167E-02  2.3074373E-02  3.7373579E-02
   15.5000  3.5214607E-02  2.2412615E-02  3.7859031E-02
   15.7500  3.5846740E-02  2.1868496E-02  3.8373276E-02
   16.0000  3.6478545E-02  2.1428342E-02  3.8902274E-02
   16.2500  3.7097567E-02  2.1080463E-02  3.9427810E-02
   16.5000  3.7691200E-02  2.0814872E-02  3.9928761E-02
   16.7500  3.8247009E-02  2.0623017E-02  4.0382793E-02
   17.0000  3.8753107E-02  2.0497570E-02  4.0768351E-02
   17.2500  3.9198597E-02  2.0432233E-02  4.1066710E-02
   17.5000  3.9574069E-02  2.0421598E-02  4.1263786E-02
   17.7500  3.9872117E-02  2.0461023E-02  4.1351421E-02
   18.0000  4.0087849E-02  2.0546541E-02  4.1327910E-02
   18.2500  4.0219320E-02  2.0674775E-02  4.1197745E-02
   18.5000  4.0267817E-02  2.0842855E-02  4.0970644E-02
   18.7500  4.0237927E-02  2.1048344E-02  4.0660113E-02
   19.0000  4.0137318E-02  2.1289179E-02  4.0281781E-02
   19.2500  3.9976203E-02  2.1563612E-02  3.9851765E-02
   19.5000  3.9766555E-02  2.1870175E-02  3.9385258E-02
   19.7500  3.9521216E-02  2.2207591E-02  3.8895538E-02
   20.0000  3.9253235E-02  2.2574536E-02  3.8393621E-02
   21.0000  3.8208896E-02  2.4294096E-02  3.6426990E-02
   22.0000  3.7635666E-02  2.6290788E-02  3.4733722E-02
   23.0000  3.7655674E-02  2.8392747E-02  3.3344008E-02
   24.0000  3.7970606E-02  3.0415189E-02  3.2176968E-02
   25.0000  3.8067076E-02  3.2174801E-02  3.1137741E-02
   26.0000  3.7479635E-02  3.3515359E-02  3.0149302E-02
   27.0000  3.6058623E-02  3.4338090E-02  2.9178225E-02
   28.0000  3.4046433E-02  3.4626644E-02  2.8249089E-02
   29.0000  3.1887006E-02  3.4460652E-02  2.7433458E-02
   30.0000  2.9950431E-02  3.3990243E-02  2.6803521E-02
   31.0000  2.8379026E-02  3.3357731E-02  2.6371738E-02
   32.0000  2.7155891E-02  3.2662399E-02  2.6101866E-02
   33.0000  2.6205208E-02  3.1957496E-02  2.5941342E-02
   34.0000  2.5443023E-02  3.1257140E-02  2.5839532E-02
   35.0000  2.4799112E-02  3.0550448E-02  2.5755471E-02
   36.0000  2.4224831E-02  2.9818207E-02  2.5660113E-02
   37.0000  2.3695072E-02  2.9049507E-02  2.5537546E-02
   38.0000  2.3207775E-02  2.8257572E-02  2.5386810E-02
   39.0000  2.2780521E-02  2.7494817E-02  2.5223491E-02
   40.0000  2.2440381E-02  2.6855241E-02  2.5077008E-02
