    Energy   (100,001)      (010,001)      (001,110)   
  -25.0000  1.6620071E-04  1.8520922E-04  1.6623058E-04
  -24.0000  1.7253721E-04  1.9215317E-04  1.7254690E-04
  -23.0000  1.7931970E-04  1.9959523E-04  1.7930612E-04
  -22.0000  1.8659506E-04  2.0758979E-04  1.8655449E-04
  -21.0000  1.9441680E-04  2.1619935E-04  1.9434481E-04
  -20.0000  2.0284631E-04  2.2549608E-04  2.0273755E-04
  -19.0000  2.1195437E-04  2.3556377E-04  2.1180233E-04
  -18.0000  2.2182298E-04  2.4650019E-04  2.2161972E-04
  -17.0000  2.3254764E-04  2.5842019E-04  2.3228336E-04
  -16.0000  2.4424025E-04  2.7145949E-04  2.4390278E-04
  -15.0000  2.5703275E-04  2.8577964E-04  2.5660689E-04
  -14.0000  2.7108182E-04  3.0157438E-04  2.7054834E-04
  -13.0000  2.8657488E-04  3.1907805E-04  2.8590927E-04
  -12.0000  3.0373804E-04  3.3857663E-04  3.0290875E-04
  -11.0000  3.2284661E-04  3.6042273E-04  3.2181252E-04
  -10.0000  3.4423920E-04  3.8505595E-04  3.4294611E-04
  -9.00000  3.6833708E-04  4.1303122E-04  3.6671259E-04
  -8.00000  3.9567118E-04  4.4505890E-04  3.9361714E-04
  -7.00000  4.2692046E-04  4.8206283E-04  4.2430160E-04
  -6.00000  4.6296788E-04  5.2526638E-04  4.5959437E-04
  -5.00000  5.0498450E-04  5.7632375E-04  5.0058421E-04
  -4.00000  5.5455964E-04  6.3752711E-04  5.4873299E-04
  -3.00000  6.1391110E-04  7.1214652E-04  6.0605453E-04
  -2.00000  6.8624112E-04  8.0501563E-04  6.7541156E-04
  -1.00000  7.7637732E-04  9.2360331E-04  7.6103895E-04
   0.00000  8.9202159E-04  1.0801329E-03  8.6953853E-04
   1.00000  1.0464581E-03  1.2962343E-03  1.0119803E-03
   2.00000  1.2653864E-03  1.6147803E-03  1.2090615E-03
   3.00000  1.6086266E-03  2.1375465E-03  1.5070671E-03
   4.00000  2.2695765E-03  3.1964232E-03  2.0493094E-03
   5.00000  4.0917637E-03  6.2563452E-03  3.4492413E-03
   5.20000  4.6506808E-03  7.2346187E-03  3.8820882E-03
   5.40000  5.1980457E-03  8.2240489E-03  4.3180122E-03
   5.60000  5.7195764E-03  9.1955662E-03  4.7448506E-03
   5.80000  6.2306267E-03  1.0157413E-02  5.1667755E-03
   6.00000  6.7581032E-03  1.1130745E-02  5.5935125E-03
   6.20000  7.3287279E-03  1.2139290E-02  6.0351802E-03
   6.40000  7.9629251E-03  1.3207359E-02  6.5007618E-03
   6.60000  8.6728118E-03  1.4358541E-02  6.9977044E-03
   6.80000  9.4636356E-03  1.5613391E-02  7.5322363E-03
   7.00000  1.0336488E-02  1.6987234E-02  8.1102459E-03
   7.20000  1.1289949E-02  1.8489049E-02  8.7382393E-03
   7.40000  1.2319960E-02  2.0121336E-02  9.4240352E-03
   7.60000  1.3418683E-02  2.1880322E-02  1.0177217E-02
   7.80000  1.4573652E-02  2.3756351E-02  1.1009521E-02
   8.00000  1.5768357E-02  2.5734920E-02  1.1935208E-02
   8.20000  1.6984953E-02  2.7799072E-02  1.2971161E-02
   8.40000  1.8208690E-02  2.9933228E-02  1.4136065E-02
   8.60000  1.9432271E-02  3.2127225E-02  1.5447992E-02
   8.80000  2.0657389E-02  3.4377962E-02  1.6920246E-02
   9.00000  2.1891698E-02  3.6686157E-02  1.8556425E-02
   9.20000  2.3142226E-02  3.9048631E-02  2.0346580E-02
   9.40000  2.4408804E-02  4.1449536E-02  2.2266389E-02
   9.60000  2.5680906E-02  4.3853853E-02  2.4280187E-02
   9.80000  2.6938017E-02  4.6203657E-02  2.6346330E-02
   10.0000  2.8150673E-02  4.8415449E-02  2.8421401E-02
   10.2500  2.9548962E-02  5.0819341E-02  3.0961226E-02
   10.5000  3.0754542E-02  5.2598421E-02  3.3363355E-02
   10.7500  3.1726670E-02  5.3539336E-02  3.5553038E-02
   11.0000  3.2462296E-02  5.3517159E-02  3.7470895E-02
   11.2500  3.2993226E-02  5.2535885E-02  3.9075673E-02
   11.5000  3.3375335E-02  5.0728120E-02  4.0344586E-02
   11.7500  3.3675267E-02  4.8313871E-02  4.1273447E-02
   12.0000  3.3957829E-02  4.5540159E-02  4.1877236E-02
   12.2500  3.4276050E-02  4.2629773E-02  4.2189596E-02
   12.5000  3.4665682E-02  3.9754740E-02  4.2258702E-02
   12.7500  3.5143821E-02  3.7032207E-02  4.2140252E-02
   13.0000  3.5710731E-02  3.4531479E-02  4.1890717E-02
   13.2500  3.6354094E-02  3.2285007E-02  4.1562515E-02
   13.5000  3.7054046E-02  3.0299931E-02  4.1200779E-02
   13.7500  3.7787348E-02  2.8567592E-02  4.0841285E-02
   14.0000  3.8530152E-02  2.7070398E-02  4.0509704E-02
   14.2500  3.9259531E-02  2.5786574E-02  4.0222211E-02
   14.5000  3.9954132E-02  2.4693327E-02  3.9987068E-02
   14.7500  4.0594267E-02  2.3768786E-02  3.9806604E-02
   15.0000  4.1161743E-02  2.2993051E-02  3.9679080E-02
   15.2500  4.1639708E-02  2.2348607E-02  3.9600129E-02
   15.5000  4.2012787E-02  2.1820318E-02  3.9563633E-02
   15.7500  4.2267637E-02  2.1395190E-02  3.9562130E-02
   16.0000  4.2393909E-02  2.1062033E-02  3.9586932E-02
   16.2500  4.2385417E-02  2.0811133E-02  3.9628193E-02
   16.5000  4.2241159E-02  2.0633988E-02  3.9675103E-02
   16.7500  4.1965884E-02  2.0523109E-02  3.9716307E-02
   17.0000  4.1570022E-02  2.0471882E-02  3.9740553E-02
   17.2500  4.1068974E-02  2.0474470E-02  3.9737470E-02
   17.5000  4.0481930E-02  2.0525724E-02  3.9698352E-02
   17.7500  3.9830421E-02  2.0621119E-02  3.9616820E-02
   18.0000  3.9136850E-02  2.0756678E-02  3.9489247E-02
   18.2500  3.8423173E-02  2.0928908E-02  3.9314893E-02
   18.5000  3.7709835E-02  2.1134743E-02  3.9095730E-02
   18.7500  3.7015000E-02  2.1371492E-02  3.8836011E-02
   19.0000  3.6354051E-02  2.1636814E-02  3.8541639E-02
   19.2500  3.5739318E-02  2.1928708E-02  3.8219427E-02
   19.5000  3.5179977E-02  2.2245520E-02  3.7876358E-02
   19.7500  3.4682109E-02  2.2585897E-02  3.7518967E-02
   20.0000  3.4249025E-02  2.2948598E-02  3.7153043E-02
   21.0000  3.3169815E-02  2.4586401E-02  3.5698768E-02
   22.0000  3.3011776E-02  2.6423715E-02  3.4378792E-02
   23.0000  3.3411335E-02  2.8326146E-02  3.3165783E-02
   24.0000  3.3870126E-02  3.0145109E-02  3.1941785E-02
   25.0000  3.3885183E-02  3.1723219E-02  3.0635822E-02
   26.0000  3.3154217E-02  3.2923531E-02  2.9286373E-02
   27.0000  3.1740597E-02  3.3692042E-02  2.7992472E-02
   28.0000  2.9990118E-02  3.4034575E-02  2.6854312E-02
   29.0000  2.8275890E-02  3.3992512E-02  2.5927755E-02
   30.0000  2.6818733E-02  3.3634006E-02  2.5211561E-02
   31.0000  2.5672547E-02  3.3039022E-02  2.4665004E-02
   32.0000  2.4793025E-02  3.2283199E-02  2.4230711E-02
   33.0000  2.4102473E-02  3.1427559E-02  2.3850010E-02
   34.0000  2.3524467E-02  3.0517027E-02  2.3471949E-02
   35.0000  2.2996602E-02  2.9585609E-02  2.3059165E-02
   36.0000  2.2475028E-02  2.8663271E-02  2.2592683E-02
   37.0000  2.1938905E-02  2.7779564E-02  2.2075923E-02
   38.0000  2.1395993E-02  2.6963828E-02  2.1537161E-02
   39.0000  2.0884868E-02  2.6249775E-02  2.1028180E-02
   40.0000  2.0463254E-02  2.5683936E-02  2.0611414E-02
