    Energy   (100,001)      (010,001)      (001,110)   
  -25.0000  1.7204230E-04  1.7712560E-04  1.7280738E-04
  -24.0000  1.7852029E-04  1.8403439E-04  1.7943317E-04
  -23.0000  1.8545318E-04  1.9145069E-04  1.8653274E-04
  -22.0000  1.9288880E-04  1.9943071E-04  1.9415686E-04
  -21.0000  2.0088180E-04  2.0803919E-04  2.0236367E-04
  -20.0000  2.0949490E-04  2.1735092E-04  2.1122006E-04
  -19.0000  2.1880038E-04  2.2745289E-04  2.2080339E-04
  -18.0000  2.2888198E-04  2.3844675E-04  2.3120352E-04
  -17.0000  2.3983726E-04  2.5045201E-04  2.4252550E-04
  -16.0000  2.5178048E-04  2.6361015E-04  2.5489283E-04
  -15.0000  2.6484636E-04  2.7808975E-04  2.6845169E-04
  -14.0000  2.7919482E-04  2.9409331E-04  2.8337634E-04
  -13.0000  2.9501706E-04  3.1186602E-04  2.9987617E-04
  -12.0000  3.1254362E-04  3.3170759E-04  3.1820490E-04
  -11.0000  3.3205491E-04  3.5398794E-04  3.3867295E-04
  -10.0000  3.5389544E-04  3.7916883E-04  3.6166411E-04
  -9.00000  3.7849313E-04  4.0783381E-04  3.8765849E-04
  -8.00000  4.0638621E-04  4.4073057E-04  4.1726470E-04
  -7.00000  4.3826117E-04  4.7883225E-04  4.5126595E-04
  -6.00000  4.7500786E-04  5.2342800E-04  4.9068756E-04
  -5.00000  5.1780139E-04  5.7626099E-04  5.3689897E-04
  -4.00000  5.6822798E-04  6.3974515E-04  5.9177260E-04
  -3.00000  6.2848576E-04  7.1731896E-04  6.5794155E-04
  -2.00000  7.0172040E-04  8.1405046E-04  7.3923773E-04
  -1.00000  7.9262003E-04  9.3773285E-04  8.4148247E-04
   0.00000  9.0855355E-04  1.1010208E-03  9.7402617E-04
   1.00000  1.0619859E-03  1.3260302E-03  1.1530669E-03
   2.00000  1.2764192E-03  1.6557468E-03  1.4099025E-03
   3.00000  1.6046945E-03  2.1891559E-03  1.8163760E-03
   4.00000  2.2098213E-03  3.2351632E-03  2.5957423E-03
   5.00000  3.7884022E-03  6.1058215E-03  4.6967354E-03
   5.20000  4.2877378E-03  7.0181930E-03  5.3758247E-03
   5.40000  4.8027578E-03  7.9564580E-03  6.0942713E-03
   5.60000  5.3218652E-03  8.9045582E-03  6.8480699E-03
   5.80000  5.8500124E-03  9.8804538E-03  7.6536151E-03
   6.00000  6.3970593E-03  1.0912637E-02  8.5297977E-03
   6.20000  6.9720275E-03  1.2028920E-02  9.4891255E-03
   6.40000  7.5815749E-03  1.3253754E-02  1.0534889E-02
   6.60000  8.2297088E-03  1.4607864E-02  1.1660293E-02
   6.80000  8.9177623E-03  1.6108125E-02  1.2848730E-02
   7.00000  9.6445577E-03  1.7767529E-02  1.4075878E-02
   7.20000  1.0407032E-02  1.9595633E-02  1.5314174E-02
   7.40000  1.1201798E-02  2.1599941E-02  1.6539042E-02
   7.60000  1.2027756E-02  2.3788203E-02  1.7734553E-02
   7.80000  1.2889188E-02  2.6170718E-02  1.8895393E-02
   8.00000  1.3798445E-02  2.8761366E-02  2.0023777E-02
   8.20000  1.4777124E-02  3.1575845E-02  2.1123732E-02
   8.40000  1.5854570E-02  3.4625783E-02  2.2198008E-02
   8.60000  1.7063293E-02  3.7908243E-02  2.3251069E-02
   8.80000  1.8432437E-02  4.1391695E-02  2.4295764E-02
   9.00000  1.9981780E-02  4.5001457E-02  2.5356783E-02
   9.20000  2.1718629E-02  4.8609851E-02  2.6466281E-02
   9.40000  2.3638088E-02  5.2037673E-02  2.7653670E-02
   9.60000  2.5724792E-02  5.5071803E-02  2.8935581E-02
   9.80000  2.7952896E-02  5.7498573E-02  3.0310635E-02
   10.0000  3.0283278E-02  5.9145070E-02  3.1760168E-02
   10.2500  3.3253224E-02  5.9965312E-02  3.3627409E-02
   10.5000  3.6147285E-02  5.9421905E-02  3.5481159E-02
   10.7500  3.8789996E-02  5.7697357E-02  3.7237501E-02
   11.0000  4.1008310E-02  5.5077221E-02  3.8825436E-02
   11.2500  4.2672855E-02  5.1871959E-02  4.0198536E-02
   11.5000  4.3732750E-02  4.8365210E-02  4.1333134E-02
   11.7500  4.4225659E-02  4.4788771E-02  4.2217243E-02
   12.0000  4.4258354E-02  4.1315274E-02  4.2841149E-02
   12.2500  4.3970384E-02  3.8061011E-02  4.3196555E-02
   12.5000  4.3499382E-02  3.5093984E-02  4.3283397E-02
   12.7500  4.2959030E-02  3.2444299E-02  4.3117900E-02
   13.0000  4.2430473E-02  3.0115270E-02  4.2735536E-02
   13.2500  4.1963505E-02  2.8093526E-02  4.2187262E-02
   13.5000  4.1582914E-02  2.6356608E-02  4.1531458E-02
   13.7500  4.1295813E-02  2.4877816E-02  4.0825267E-02
   14.0000  4.1097844E-02  2.3629148E-02  4.0118346E-02
   14.2500  4.0977637E-02  2.2583191E-02  3.9449629E-02
   14.5000  4.0919703E-02  2.1714397E-02  3.8846308E-02
   14.7500  4.0906224E-02  2.0999842E-02  3.8324207E-02
   15.0000  4.0918187E-02  2.0419574E-02  3.7888937E-02
   15.2500  4.0936121E-02  1.9956641E-02  3.7537423E-02
   15.5000  4.0940618E-02  1.9596915E-02  3.7259587E-02
   15.7500  4.0912789E-02  1.9328778E-02  3.7040153E-02
   16.0000  4.0834818E-02  1.9142751E-02  3.6860583E-02
   16.2500  4.0690723E-02  1.9031119E-02  3.6701166E-02
   16.5000  4.0467328E-02  1.8987577E-02  3.6543134E-02
   16.7500  4.0155345E-02  1.9006913E-02  3.6370602E-02
   17.0000  3.9750334E-02  1.9084737E-02  3.6172062E-02
   17.2500  3.9253322E-02  1.9217265E-02  3.5941196E-02
   17.5000  3.8670894E-02  1.9401139E-02  3.5676922E-02
   17.7500  3.8014673E-02  1.9633291E-02  3.5382730E-02
   18.0000  3.7300276E-02  1.9910845E-02  3.5065526E-02
   18.2500  3.6545912E-02  2.0231038E-02  3.4734257E-02
   18.5000  3.5770849E-02  2.0591181E-02  3.4398574E-02
   18.7500  3.4993958E-02  2.0988638E-02  3.4067726E-02
   19.0000  3.4232484E-02  2.1420843E-02  3.3749744E-02
   19.2500  3.3501123E-02  2.1885356E-02  3.3450951E-02
   19.5000  3.2811418E-02  2.2379931E-02  3.3175717E-02
   19.7500  3.2171519E-02  2.2902513E-02  3.2926425E-02
   20.0000  3.1586429E-02  2.3450994E-02  3.2703624E-02
   21.0000  2.9827277E-02  2.5838394E-02  3.2043604E-02
   22.0000  2.8937196E-02  2.8348754E-02  3.1592591E-02
   23.0000  2.8678038E-02  3.0727912E-02  3.1093995E-02
   24.0000  2.8770853E-02  3.2696622E-02  3.0379349E-02
   25.0000  2.8949754E-02  3.4014951E-02  2.9440085E-02
   26.0000  2.8974166E-02  3.4603283E-02  2.8379952E-02
   27.0000  2.8720566E-02  3.4521911E-02  2.7344558E-02
   28.0000  2.8239012E-02  3.3921247E-02  2.6463345E-02
   29.0000  2.7676338E-02  3.2997116E-02  2.5813558E-02
   30.0000  2.7150142E-02  3.1929913E-02  2.5404478E-02
   31.0000  2.6694558E-02  3.0842315E-02  2.5182910E-02
   32.0000  2.6279928E-02  2.9795058E-02  2.5060603E-02
   33.0000  2.5853825E-02  2.8802833E-02  2.4946036E-02
   34.0000  2.5373414E-02  2.7853779E-02  2.4764540E-02
   35.0000  2.4823066E-02  2.6926892E-02  2.4467139E-02
   36.0000  2.4218520E-02  2.6005849E-02  2.4036012E-02
   37.0000  2.3599664E-02  2.5089371E-02  2.3489671E-02
   38.0000  2.3016855E-02  2.4199181E-02  2.2884194E-02
   39.0000  2.2517752E-02  2.3386355E-02  2.2303633E-02
   40.0000  2.2136441E-02  2.2727245E-02  2.1833068E-02
