    Energy   (100,001)      (010,001)      (001,110)   
  -25.0000  1.7407213E-04  1.8001592E-04  1.8738859E-04
  -24.0000  1.8010710E-04  1.8714340E-04  1.9381211E-04
  -23.0000  1.8653779E-04  1.9480170E-04  2.0066076E-04
  -22.0000  1.9340355E-04  2.0305034E-04  2.0797771E-04
  -21.0000  2.0074910E-04  2.1195793E-04  2.1581216E-04
  -20.0000  2.0862544E-04  2.2160392E-04  2.2422048E-04
  -19.0000  2.1709105E-04  2.3208077E-04  2.3326747E-04
  -18.0000  2.2621326E-04  2.4349676E-04  2.4302811E-04
  -17.0000  2.3607003E-04  2.5597940E-04  2.5358960E-04
  -16.0000  2.4675215E-04  2.6967987E-04  2.6505395E-04
  -15.0000  2.5836597E-04  2.8477871E-04  2.7754136E-04
  -14.0000  2.7103696E-04  3.0149314E-04  2.9119440E-04
  -13.0000  2.8491420E-04  3.2008681E-04  3.0618363E-04
  -12.0000  3.0017630E-04  3.4088261E-04  3.2271480E-04
  -11.0000  3.1703919E-04  3.6428007E-04  3.4103866E-04
  -10.0000  3.3576656E-04  3.9077914E-04  3.6146407E-04
  -9.00000  3.5668408E-04  4.2101332E-04  3.8437633E-04
  -8.00000  3.8019916E-04  4.5579664E-04  4.1026280E-04
  -7.00000  4.0682896E-04  4.9619182E-04  4.3975010E-04
  -6.00000  4.3724119E-04  5.4361147E-04  4.7365920E-04
  -5.00000  4.7231512E-04  5.9997270E-04  5.1308988E-04
  -4.00000  5.1323608E-04  6.6794111E-04  5.5955525E-04
  -3.00000  5.6164791E-04  7.5133101E-04  6.1520583E-04
  -2.00000  6.1991157E-04  8.5579381E-04  6.8322480E-04
  -1.00000  6.9157171E-04  9.9007337E-04  7.6857603E-04
   0.00000  7.8226968E-04  1.1684758E-03  8.7955461E-04
   1.00000  9.0173344E-04  1.4162515E-03  1.0314145E-03
   2.00000  1.0688301E-03  1.7831714E-03  1.2564075E-03
   3.00000  1.3277143E-03  2.3863826E-03  1.6393016E-03
   4.00000  1.8221745E-03  3.6048388E-03  2.4997283E-03
   5.00000  3.1809484E-03  7.0877932E-03  5.3771562E-03
   5.20000  3.5969896E-03  8.1711412E-03  6.2346883E-03
   5.40000  4.0061524E-03  9.2381703E-03  6.9760314E-03
   5.60000  4.4000876E-03  1.0257196E-02  7.5436398E-03
   5.80000  4.7899173E-03  1.1249446E-02  7.9457905E-03
   6.00000  5.1917042E-03  1.2256764E-02  8.2226022E-03
   6.20000  5.6199706E-03  1.3323880E-02  8.4250396E-03
   6.40000  6.0866415E-03  1.4491822E-02  8.6030146E-03
   6.60000  6.6013486E-03  1.5796256E-02  8.7982497E-03
   6.80000  7.1716806E-03  1.7268972E-02  9.0422152E-03
   7.00000  7.8033372E-03  1.8941510E-02  9.3580737E-03
   7.20000  8.5004248E-03  2.0849415E-02  9.7636538E-03
   7.40000  9.2656654E-03  2.3034978E-02  1.0272924E-02
   7.60000  1.0099675E-02  2.5546464E-02  1.0895303E-02
   7.80000  1.0998649E-02  2.8433572E-02  1.1633411E-02
   8.00000  1.1950737E-02  3.1739823E-02  1.2479984E-02
   8.20000  1.2932438E-02  3.5492252E-02  1.3414705E-02
   8.40000  1.3907144E-02  3.9688361E-02  1.4402706E-02
   8.60000  1.4828112E-02  4.4280621E-02  1.5397264E-02
   8.80000  1.5646816E-02  4.9159539E-02  1.6348323E-02
   9.00000  1.6324737E-02  5.4137825E-02  1.7215143E-02
   9.20000  1.6843737E-02  5.8941483E-02  1.7977616E-02
   9.40000  1.7210294E-02  6.3219055E-02  1.8640465E-02
   9.60000  1.7452369E-02  6.6582410E-02  1.9228762E-02
   9.80000  1.7611671E-02  6.8682451E-02  1.9778392E-02
   10.0000  1.7735005E-02  6.9300110E-02  2.0326564E-02
   10.2500  1.7906050E-02  6.7972129E-02  2.1057683E-02
   10.5000  1.8161206E-02  6.4687710E-02  2.1878991E-02
   10.7500  1.8547036E-02  6.0119941E-02  2.2808879E-02
   11.0000  1.9084717E-02  5.4974563E-02  2.3840976E-02
   11.2500  1.9773953E-02  4.9809833E-02  2.4947201E-02
   11.5000  2.0598518E-02  4.4980261E-02  2.6083984E-02
   11.7500  2.1530252E-02  4.0662264E-02  2.7201081E-02
   12.0000  2.2532030E-02  3.6908616E-02  2.8251017E-02
   12.2500  2.3561386E-02  3.3701031E-02  2.9196991E-02
   12.5000  2.4575325E-02  3.0988457E-02  3.0017979E-02
   12.7500  2.5536931E-02  2.8708866E-02  3.0709448E-02
   13.0000  2.6420735E-02  2.6800342E-02  3.1280834E-02
   13.2500  2.7214676E-02  2.5206867E-02  3.1751676E-02
   13.5000  2.7919544E-02  2.3880377E-02  3.2147359E-02
   13.7500  2.8546356E-02  2.2780410E-02  3.2495234E-02
   14.0000  2.9112499E-02  2.1873024E-02  3.2821631E-02
   14.2500  2.9638385E-02  2.1129863E-02  3.3149934E-02
   14.5000  3.0144993E-02  2.0527430E-02  3.3499464E-02
   14.7500  3.0651929E-02  2.0046420E-02  3.3884760E-02
   15.0000  3.1175927E-02  1.9671081E-02  3.4315054E-02
   15.2500  3.1729831E-02  1.9388634E-02  3.4793859E-02
   15.5000  3.2322011E-02  1.9188749E-02  3.5318664E-02
   15.7500  3.2956112E-02  1.9063090E-02  3.5880853E-02
   16.0000  3.3631047E-02  1.9004917E-02  3.6465970E-02
   16.2500  3.4341214E-02  1.9008737E-02  3.7054523E-02
   16.5000  3.5076912E-02  1.9070015E-02  3.7623423E-02
   16.7500  3.5824972E-02  1.9184931E-02  3.8148019E-02
   17.0000  3.6569636E-02  1.9350176E-02  3.8604543E-02
   17.2500  3.7293669E-02  1.9562794E-02  3.8972569E-02
   17.5000  3.7979684E-02  1.9820047E-02  3.9237077E-02
   17.7500  3.8611566E-02  2.0119313E-02  3.9389726E-02
   18.0000  3.9175857E-02  2.0458007E-02  3.9429173E-02
   18.2500  3.9662897E-02  2.0833523E-02  3.9360454E-02
   18.5000  4.0067542E-02  2.1243210E-02  3.9193689E-02
   18.7500  4.0389344E-02  2.1684380E-02  3.8942435E-02
   19.0000  4.0632175E-02  2.2154351E-02  3.8621990E-02
   19.2500  4.0803374E-02  2.2650544E-02  3.8247887E-02
   19.5000  4.0912600E-02  2.3170589E-02  3.7834696E-02
   19.7500  4.0970615E-02  2.3712361E-02  3.7395249E-02
   20.0000  4.0988279E-02  2.4273772E-02  3.6940459E-02
   21.0000  4.0845674E-02  2.6653529E-02  3.5141007E-02
   22.0000  4.0620602E-02  2.9073997E-02  3.3619202E-02
   23.0000  4.0286459E-02  3.1294792E-02  3.2437741E-02
   24.0000  3.9563286E-02  3.3044542E-02  3.1523033E-02
   25.0000  3.8228648E-02  3.4093885E-02  3.0800720E-02
   26.0000  3.6355566E-02  3.4362315E-02  3.0232413E-02
   27.0000  3.4292654E-02  3.3950296E-02  2.9805574E-02
   28.0000  3.2411828E-02  3.3070264E-02  2.9516687E-02
   29.0000  3.0900286E-02  3.1945966E-02  2.9358083E-02
   30.0000  2.9759598E-02  3.0748193E-02  2.9310165E-02
   31.0000  2.8908895E-02  2.9578009E-02  2.9340482E-02
   32.0000  2.8257256E-02  2.8483652E-02  2.9408764E-02
   33.0000  2.7729379E-02  2.7482130E-02  2.9475809E-02
   34.0000  2.7276690E-02  2.6564033E-02  2.9511165E-02
   35.0000  2.6871934E-02  2.5710917E-02  2.9496600E-02
   36.0000  2.6499721E-02  2.4908991E-02  2.9424351E-02
   37.0000  2.6150975E-02  2.4153235E-02  2.9293797E-02
   38.0000  2.5822198E-02  2.3451133E-02  2.9111933E-02
   39.0000  2.5520693E-02  2.2828773E-02  2.8900806E-02
   40.0000  2.5269872E-02  2.2330661E-02  2.8705159E-02
