    Energy   (100,001)      (010,001)      (001,110)   
  -25.0000  1.7147296E-04  1.7638955E-04  1.7133049E-04
  -24.0000  1.7802824E-04  1.8321813E-04  1.7810177E-04
  -23.0000  1.8505032E-04  1.9054472E-04  1.8537004E-04
  -22.0000  1.9258892E-04  1.9842411E-04  1.9318982E-04
  -21.0000  2.0070089E-04  2.0691932E-04  2.0162372E-04
  -20.0000  2.0945158E-04  2.1610312E-04  2.1074396E-04
  -19.0000  2.1891643E-04  2.2606004E-04  2.2063432E-04
  -18.0000  2.2918296E-04  2.3688876E-04  2.3139244E-04
  -17.0000  2.4035329E-04  2.4870516E-04  2.4313284E-04
  -16.0000  2.5254726E-04  2.6164625E-04  2.5599068E-04
  -15.0000  2.6590641E-04  2.7587510E-04  2.7012650E-04
  -14.0000  2.8059901E-04  2.9158725E-04  2.8573249E-04
  -13.0000  2.9682670E-04  3.0901915E-04  3.0304056E-04
  -12.0000  3.1483301E-04  3.2845929E-04  3.2233304E-04
  -11.0000  3.3491480E-04  3.5026308E-04  3.4395707E-04
  -10.0000  3.5743746E-04  3.7487327E-04  3.6834409E-04
  -9.00000  3.8285581E-04  4.0284806E-04  3.9603695E-04
  -8.00000  4.1174300E-04  4.3490084E-04  4.2772802E-04
  -7.00000  4.4483139E-04  4.7195732E-04  4.6431425E-04
  -6.00000  4.8307182E-04  5.1523984E-04  5.0697840E-04
  -5.00000  5.2772150E-04  5.6639486E-04  5.5731264E-04
  -4.00000  5.8047848E-04  6.2769223E-04  6.1751269E-04
  -3.00000  6.4369489E-04  7.0234834E-04  6.9069531E-04
  -2.00000  7.2073002E-04  7.9507429E-04  7.8144297E-04
  -1.00000  8.1656741E-04  9.1305949E-04  8.9679572E-04
   0.00000  9.3897190E-04  1.0678689E-03  1.0482005E-03
   1.00000  1.1008749E-03  1.2794757E-03  1.2557518E-03
   2.00000  1.3260130E-03  1.5861121E-03  1.5588289E-03
   3.00000  1.6654159E-03  2.0740822E-03  2.0491466E-03
   4.00000  2.2660239E-03  3.0060395E-03  3.0154779E-03
   5.00000  3.7181303E-03  5.4782140E-03  5.7113921E-03
   5.20000  4.1726579E-03  6.2633272E-03  6.6047133E-03
   5.40000  4.6518094E-03  7.0793547E-03  7.5510999E-03
   5.60000  5.1500820E-03  7.9142443E-03  8.5269220E-03
   5.80000  5.6745774E-03  8.7821010E-03  9.5340790E-03
   6.00000  6.2356311E-03  9.7042710E-03  1.0586594E-02
   6.20000  6.8428037E-03  1.0700730E-02  1.1703977E-02
   6.40000  7.5046296E-03  1.1788639E-02  1.2907997E-02
   6.60000  8.2293950E-03  1.2982893E-02  1.4218612E-02
   6.80000  9.0258571E-03  1.4296793E-02  1.5648716E-02
   7.00000  9.9037377E-03  1.5742330E-02  1.7198913E-02
   7.20000  1.0874251E-02  1.7330073E-02  1.8854221E-02
   7.40000  1.1950997E-02  1.9069825E-02  2.0585164E-02
   7.60000  1.3151310E-02  2.0974295E-02  2.2354475E-02
   7.80000  1.4497424E-02  2.3067056E-02  2.4126189E-02
   8.00000  1.6016176E-02  2.5391881E-02  2.5870472E-02
   8.20000  1.7736401E-02  2.8015123E-02  2.7561185E-02
   8.40000  1.9684229E-02  3.1012379E-02  2.9170546E-02
   8.60000  2.1877268E-02  3.4443147E-02  3.0667912E-02
   8.80000  2.4318151E-02  3.8326146E-02  3.2025264E-02
   9.00000  2.6986496E-02  4.2617350E-02  3.3225790E-02
   9.20000  2.9829495E-02  4.7187351E-02  3.4270279E-02
   9.40000  3.2754771E-02  5.1803197E-02  3.5178113E-02
   9.60000  3.5631800E-02  5.6130528E-02  3.5982530E-02
   9.80000  3.8307173E-02  5.9774787E-02  3.6722223E-02
   10.0000  4.0632730E-02  6.2365187E-02  3.7432387E-02
   10.2500  4.2881983E-02  6.3760205E-02  3.8315202E-02
   10.5000  4.4316786E-02  6.3061576E-02  3.9208912E-02
   10.7500  4.4971737E-02  6.0616094E-02  4.0101654E-02
   11.0000  4.4972720E-02  5.6992729E-02  4.0956964E-02
   11.2500  4.4492526E-02  5.2771756E-02  4.1722389E-02
   11.5000  4.3711964E-02  4.8417791E-02  4.2339577E-02
   11.7500  4.2789630E-02  4.4240739E-02  4.2755475E-02
   12.0000  4.1845813E-02  4.0411874E-02  4.2933277E-02
   12.2500  4.0960299E-02  3.7003351E-02  4.2860714E-02
   12.5000  4.0179014E-02  3.4027583E-02  4.2553645E-02
   12.7500  3.9523831E-02  3.1463773E-02  4.2053484E-02
   13.0000  3.9001169E-02  2.9274057E-02  4.1417921E-02
   13.2500  3.8607416E-02  2.7414351E-02  4.0708338E-02
   13.5000  3.8332057E-02  2.5840950E-02  3.9980035E-02
   13.7500  3.8160337E-02  2.4513664E-02  3.9277216E-02
   14.0000  3.8075399E-02  2.3397035E-02  3.8631165E-02
   14.2500  3.8059110E-02  2.2460666E-02  3.8060801E-02
   14.5000  3.8092040E-02  2.1679052E-02  3.7574469E-02
   14.7500  3.8153484E-02  2.1031122E-02  3.7171804E-02
   15.0000  3.8221921E-02  2.0499642E-02  3.6845370E-02
   15.2500  3.8275921E-02  2.0070605E-02  3.6582254E-02
   15.5000  3.8295368E-02  1.9732676E-02  3.6365764E-02
   15.7500  3.8262823E-02  1.9476709E-02  3.6177287E-02
   16.0000  3.8164831E-02  1.9295330E-02  3.5998237E-02
   16.2500  3.7992980E-02  1.9182573E-02  3.5811930E-02
   16.5000  3.7744578E-02  1.9133560E-02  3.5605154E-02
   16.7500  3.7422806E-02  1.9144216E-02  3.5369205E-02
   17.0000  3.7036327E-02  1.9211018E-02  3.5100260E-02
   17.2500  3.6598360E-02  1.9330796E-02  3.4799070E-02
   17.5000  3.6125358E-02  1.9500591E-02  3.4470125E-02
   17.7500  3.5635461E-02  1.9717561E-02  3.4120502E-02
   18.0000  3.5146934E-02  1.9978944E-02  3.3758649E-02
   18.2500  3.4676771E-02  2.0282051E-02  3.3393279E-02
   18.5000  3.4239603E-02  2.0624283E-02  3.3032517E-02
   18.7500  3.3846965E-02  2.1003173E-02  3.2683315E-02
   19.0000  3.3506927E-02  2.1416432E-02  3.2351112E-02
   19.2500  3.3224035E-02  2.1862019E-02  3.2039702E-02
   19.5000  3.2999489E-02  2.2338206E-02  3.1751235E-02
   19.7500  3.2831445E-02  2.2843551E-02  3.1486335E-02
   20.0000  3.2715349E-02  2.3376641E-02  3.1244308E-02
   21.0000  3.2609314E-02  2.5735019E-02  3.0463518E-02
   22.0000  3.2620860E-02  2.8268478E-02  2.9845310E-02
   23.0000  3.2229759E-02  3.0675650E-02  2.9210624E-02
   24.0000  3.1205624E-02  3.2687710E-02  2.8465581E-02
   25.0000  2.9682099E-02  3.4099929E-02  2.7616455E-02
   26.0000  2.8005983E-02  3.4809075E-02  2.6734886E-02
   27.0000  2.6508639E-02  3.4843580E-02  2.5914892E-02
   28.0000  2.5364589E-02  3.4340371E-02  2.5235226E-02
   29.0000  2.4580821E-02  3.3486928E-02  2.4730392E-02
   30.0000  2.4069616E-02  3.2460273E-02  2.4378923E-02
   31.0000  2.3724425E-02  3.1386298E-02  2.4117077E-02
   32.0000  2.3460419E-02  3.0330328E-02  2.3867746E-02
   33.0000  2.3223731E-02  2.9310156E-02  2.3565816E-02
   34.0000  2.2985029E-02  2.8316871E-02  2.3171699E-02
   35.0000  2.2729989E-02  2.7334209E-02  2.2676737E-02
   36.0000  2.2453269E-02  2.6352816E-02  2.2105702E-02
   37.0000  2.2157506E-02  2.5379103E-02  2.1514718E-02
   38.0000  2.1855256E-02  2.4440847E-02  2.0977766E-02
   39.0000  2.1570532E-02  2.3591915E-02  2.0557337E-02
   40.0000  2.1335341E-02  2.2908105E-02  2.0269681E-02
