    Energy   (100,001)      (010,001)      (001,110)   
  -25.0000  1.7121166E-04  1.7566131E-04  1.7716531E-04
  -24.0000  1.7758510E-04  1.8269605E-04  1.8389726E-04
  -23.0000  1.8440038E-04  1.9025784E-04  1.9110892E-04
  -22.0000  1.9170337E-04  1.9840600E-04  1.9885171E-04
  -21.0000  1.9954638E-04  2.0720895E-04  2.0718449E-04
  -20.0000  2.0798933E-04  2.1674592E-04  2.1617504E-04
  -19.0000  2.1710118E-04  2.2710921E-04  2.2590170E-04
  -18.0000  2.2696166E-04  2.3840691E-04  2.3645556E-04
  -17.0000  2.3766346E-04  2.5076641E-04  2.4794313E-04
  -16.0000  2.4931497E-04  2.6433884E-04  2.6048967E-04
  -15.0000  2.6204366E-04  2.7930476E-04  2.7424352E-04
  -14.0000  2.7600049E-04  2.9588158E-04  2.8938161E-04
  -13.0000  2.9136553E-04  3.1433334E-04  3.0611664E-04
  -12.0000  3.0835532E-04  3.3498370E-04  3.2470652E-04
  -11.0000  3.2723248E-04  3.5823345E-04  3.4546697E-04
  -10.0000  3.4831870E-04  3.8458459E-04  3.6878865E-04
  -9.00000  3.7201224E-04  4.1467383E-04  3.9516055E-04
  -8.00000  3.9881223E-04  4.4932022E-04  4.2520303E-04
  -7.00000  4.2935280E-04  4.8959427E-04  4.5971487E-04
  -6.00000  4.6445230E-04  5.3692076E-04  4.9974238E-04
  -5.00000  5.0518616E-04  5.9323580E-04  5.4668337E-04
  -4.00000  5.5299785E-04  6.6123508E-04  6.0244881E-04
  -3.00000  6.0987443E-04  7.4478098E-04  6.6972364E-04
  -2.00000  6.7863667E-04  8.4960235E-04  7.5240706E-04
  -1.00000  7.6344606E-04  9.8456792E-04  8.5639819E-04
   0.00000  8.7075687E-04  1.1641793E-03  9.9110047E-04
   1.00000  1.0112862E-03  1.4139528E-03  1.1725830E-03
   2.00000  1.2047007E-03  1.7837574E-03  1.4311448E-03
   3.00000  1.4934335E-03  2.3886298E-03  1.8333267E-03
   4.00000  2.0006597E-03  3.5849468E-03  2.5701962E-03
   5.00000  3.2245391E-03  6.8813224E-03  4.4018621E-03
   5.20000  3.6067762E-03  7.9524672E-03  5.0071461E-03
   5.40000  4.0086969E-03  9.0797980E-03  5.6815526E-03
   5.60000  4.4258865E-03  1.0246725E-02  6.4302272E-03
   5.80000  4.8656129E-03  1.1469568E-02  7.2713010E-03
   6.00000  5.3391009E-03  1.2773495E-02  8.2249195E-03
   6.20000  5.8579109E-03  1.4181540E-02  9.3065847E-03
   6.40000  6.4330300E-03  1.5713392E-02  1.0523683E-02
   6.60000  7.0745692E-03  1.7387660E-02  1.1873070E-02
   6.80000  7.7914246E-03  1.9224907E-02  1.3339717E-02
   7.00000  8.5908306E-03  2.1250134E-02  1.4897847E-02
   7.20000  9.4776728E-03  2.3492713E-02  1.6515938E-02
   7.40000  1.0453195E-02  2.5981506E-02  1.8164928E-02
   7.60000  1.1512860E-02  2.8735565E-02  1.9826260E-02
   7.80000  1.2644114E-02  3.1755882E-02  2.1495609E-02
   8.00000  1.3826328E-02  3.5026080E-02  2.3180328E-02
   8.20000  1.5035515E-02  3.8523537E-02  2.4891521E-02
   8.40000  1.6253145E-02  4.2228435E-02  2.6633366E-02
   8.60000  1.7473560E-02  4.6112803E-02  2.8392639E-02
   8.80000  1.8704449E-02  5.0107500E-02  3.0131152E-02
   9.00000  1.9960968E-02  5.4067392E-02  3.1783450E-02
   9.20000  2.1258737E-02  5.7759630E-02  3.3262499E-02
   9.40000  2.2609671E-02  6.0887899E-02  3.4475721E-02
   9.60000  2.4021005E-02  6.3150022E-02  3.5349591E-02
   9.80000  2.5495663E-02  6.4311860E-02  3.5853969E-02
   10.0000  2.7031030E-02  6.4269708E-02  3.6013925E-02
   10.2500  2.9014139E-02  6.2615193E-02  3.5843313E-02
   10.5000  3.1010398E-02  5.9544088E-02  3.5440901E-02
   10.7500  3.2927178E-02  5.5579535E-02  3.4985640E-02
   11.0000  3.4660933E-02  5.1225305E-02  3.4602193E-02
   11.2500  3.6122695E-02  4.6868451E-02  3.4354089E-02
   11.5000  3.7257074E-02  4.2755904E-02  3.4261180E-02
   11.7500  3.8051058E-02  3.9016332E-02  3.4322499E-02
   12.0000  3.8533501E-02  3.5696977E-02  3.4524992E-02
   12.2500  3.8765179E-02  3.2797174E-02  3.4842076E-02
   12.5000  3.8823121E-02  3.0292075E-02  3.5237487E-02
   12.7500  3.8785096E-02  2.8146485E-02  3.5674201E-02
   13.0000  3.8718431E-02  2.6321797E-02  3.6121540E-02
   13.2500  3.8674438E-02  2.4779615E-02  3.6557679E-02
   13.5000  3.8687197E-02  2.3483895E-02  3.6968964E-02
   13.7500  3.8774957E-02  2.2402090E-02  3.7348169E-02
   14.0000  3.8942652E-02  2.1505479E-02  3.7692827E-02
   14.2500  3.9184183E-02  2.0769129E-02  3.8004134E-02
   14.5000  3.9484248E-02  2.0171765E-02  3.8285731E-02
   14.7500  3.9820368E-02  1.9695478E-02  3.8541355E-02
   15.0000  4.0165220E-02  1.9325334E-02  3.8772127E-02
   15.2500  4.0489092E-02  1.9048983E-02  3.8974813E-02
   15.5000  4.0762380E-02  1.8856319E-02  3.9141441E-02
   15.7500  4.0958109E-02  1.8739177E-02  3.9260181E-02
   16.0000  4.1054349E-02  1.8691062E-02  3.9317215E-02
   16.2500  4.1036280E-02  1.8706902E-02  3.9299218E-02
   16.5000  4.0897617E-02  1.8782782E-02  3.9195944E-02
   16.7500  4.0641145E-02  1.8915678E-02  3.9002341E-02
   17.0000  4.0278231E-02  1.9103167E-02  3.8719711E-02
   17.2500  3.9827394E-02  1.9343144E-02  3.8355718E-02
   17.5000  3.9312161E-02  1.9633572E-02  3.7923322E-02
   17.7500  3.8758584E-02  1.9972281E-02  3.7439004E-02
   18.0000  3.8192804E-02  2.0356839E-02  3.6920750E-02
   18.2500  3.7638982E-02  2.0784478E-02  3.6386202E-02
   18.5000  3.7117788E-02  2.1252087E-02  3.5851251E-02
   18.7500  3.6645493E-02  2.1756252E-02  3.5329149E-02
   19.0000  3.6233623E-02  2.2293339E-02  3.4830109E-02
   19.2500  3.5889034E-02  2.2859633E-02  3.4361269E-02
   19.5000  3.5614273E-02  2.3451489E-02  3.3926887E-02
   19.7500  3.5408071E-02  2.4065399E-02  3.3528692E-02
   20.0000  3.5265845E-02  2.4697762E-02  3.3166383E-02
   21.0000  3.5161395E-02  2.7312572E-02  3.2033089E-02
   22.0000  3.5279989E-02  2.9806056E-02  3.1255463E-02
   23.0000  3.4988404E-02  3.1885862E-02  3.0621054E-02
   24.0000  3.3977984E-02  3.3335199E-02  2.9981466E-02
   25.0000  3.2393288E-02  3.4058803E-02  2.9280575E-02
   26.0000  3.0654882E-02  3.4100006E-02  2.8537628E-02
   27.0000  2.9104239E-02  3.3606541E-02  2.7808292E-02
   28.0000  2.7876842E-02  3.2753519E-02  2.7163549E-02
   29.0000  2.6958885E-02  3.1699880E-02  2.6663356E-02
   30.0000  2.6274741E-02  3.0571967E-02  2.6326801E-02
   31.0000  2.5741682E-02  2.9453289E-02  2.6125284E-02
   32.0000  2.5289996E-02  2.8384128E-02  2.6001143E-02
   33.0000  2.4868066E-02  2.7371217E-02  2.5890937E-02
   34.0000  2.4444200E-02  2.6402098E-02  2.5738868E-02
   35.0000  2.4007012E-02  2.5459279E-02  2.5501145E-02
   36.0000  2.3562496E-02  2.4531861E-02  2.5149668E-02
   37.0000  2.3126871E-02  2.3623763E-02  2.4679335E-02
   38.0000  2.2719129E-02  2.2758980E-02  2.4117443E-02
   39.0000  2.2359644E-02  2.1984807E-02  2.3531636E-02
   40.0000  2.2072507E-02  2.1365508E-02  2.3023542E-02
