    Energy   (100,001)      (010,001)      (001,110)   
  -25.0000  1.6279618E-04  1.7330786E-04  1.7214184E-04
  -24.0000  1.6780060E-04  1.7962285E-04  1.7738523E-04
  -23.0000  1.7309875E-04  1.8637564E-04  1.8293818E-04
  -22.0000  1.7871705E-04  1.9361235E-04  1.8882894E-04
  -21.0000  1.8468516E-04  2.0138572E-04  1.9508931E-04
  -20.0000  1.9103654E-04  2.0975632E-04  2.0175527E-04
  -19.0000  1.9780912E-04  2.1879415E-04  2.0886769E-04
  -18.0000  2.0504603E-04  2.2858042E-04  2.1647315E-04
  -17.0000  2.1279657E-04  2.3920993E-04  2.2462508E-04
  -16.0000  2.2111736E-04  2.5079403E-04  2.3338504E-04
  -15.0000  2.3007379E-04  2.6346433E-04  2.4282435E-04
  -14.0000  2.3974187E-04  2.7737754E-04  2.5302620E-04
  -13.0000  2.5021049E-04  2.9272170E-04  2.6408828E-04
  -12.0000  2.6158439E-04  3.0972438E-04  2.7612618E-04
  -11.0000  2.7398803E-04  3.2866361E-04  2.8927786E-04
  -10.0000  2.8757065E-04  3.4988258E-04  3.0370953E-04
  -9.00000  3.0251311E-04  3.7380997E-04  3.1962369E-04
  -8.00000  3.1903730E-04  4.0098813E-04  3.3727013E-04
  -7.00000  3.3741926E-04  4.3211359E-04  3.5696145E-04
  -6.00000  3.5800822E-04  4.6809602E-04  3.7909564E-04
  -5.00000  3.8125486E-04  5.1014703E-04  4.0418980E-04
  -4.00000  4.0775519E-04  5.5991785E-04  4.3293278E-04
  -3.00000  4.3832167E-04  6.1972167E-04  4.6627103E-04
  -2.00000  4.7410547E-04  6.9290987E-04  5.0555748E-04
  -1.00000  5.1682240E-04  7.8454806E-04  5.5282939E-04
   0.00000  5.6921046E-04  9.0272891E-04  6.1137987E-04
   1.00000  6.3607566E-04  1.0614025E-03  6.8709393E-04
   2.00000  7.2711164E-04  1.2874566E-03  7.9217640E-04
   3.00000  8.6655159E-04  1.6428908E-03  9.5858393E-04
   4.00000  1.1406111E-03  2.3241313E-03  1.3088367E-03
   5.00000  1.9559201E-03  4.1893166E-03  2.4411475E-03
   5.20000  2.2130446E-03  4.7891014E-03  2.7630491E-03
   5.40000  2.4651888E-03  5.4068754E-03  3.0150215E-03
   5.60000  2.7010806E-03  6.0243870E-03  3.1683388E-03
   5.80000  2.9164373E-03  6.6429161E-03  3.2366897E-03
   6.00000  3.1080460E-03  7.2704112E-03  3.2578755E-03
   6.20000  3.2744060E-03  7.9154712E-03  3.2708175E-03
   6.40000  3.4170404E-03  8.5862575E-03  3.3020702E-03
   6.60000  3.5397888E-03  9.2906090E-03  3.3644848E-03
   6.80000  3.6472953E-03  1.0035893E-02  3.4616376E-03
   7.00000  3.7439074E-03  1.0828371E-02  3.5922496E-03
   7.20000  3.8333171E-03  1.1672504E-02  3.7531280E-03
   7.40000  3.9187263E-03  1.2570671E-02  3.9409923E-03
   7.60000  4.0030968E-03  1.3523287E-02  4.1532827E-03
   7.80000  4.0893301E-03  1.4529148E-02  4.3883948E-03
   8.00000  4.1804075E-03  1.5585990E-02  4.6455155E-03
   8.20000  4.2793433E-03  1.6691586E-02  4.9237956E-03
   8.40000  4.3889351E-03  1.7845268E-02  5.2216116E-03
   8.60000  4.5116526E-03  1.9049496E-02  5.5367510E-03
   8.80000  4.6496542E-03  2.0311108E-02  5.8671770E-03
   9.00000  4.8047480E-03  2.1641926E-02  6.2118091E-03
   9.20000  4.9783337E-03  2.3058416E-02  6.5710907E-03
   9.40000  5.1714292E-03  2.4580233E-02  6.9471818E-03
   9.60000  5.3848175E-03  2.6227776E-02  7.3436332E-03
   9.80000  5.6192640E-03  2.8019057E-02  7.7645389E-03
   10.0000  5.8756901E-03  2.9966037E-02  8.2133476E-03
   10.2500  6.2288080E-03  3.2620091E-02  8.8157787E-03
   10.5000  6.6201458E-03  3.5490435E-02  9.4612883E-03
   10.7500  7.0512168E-03  3.8504459E-02  1.0140292E-02
   11.0000  7.5220861E-03  4.1541250E-02  1.0837917E-02
   11.2500  8.0309513E-03  4.4437187E-02  1.1536768E-02
   11.5000  8.5743651E-03  4.7003559E-02  1.2220227E-02
   11.7500  9.1479507E-03  4.9051627E-02  1.2875436E-02
   12.0000  9.7472969E-03  5.0418474E-02  1.3495436E-02
   12.2500  1.0368774E-02  5.0990839E-02  1.4080209E-02
   12.5000  1.1010068E-02  5.0726102E-02  1.4636388E-02
   12.7500  1.1670289E-02  4.9665006E-02  1.5175478E-02
   13.0000  1.2349698E-02  4.7927156E-02  1.5711063E-02
   13.2500  1.3049305E-02  4.5686355E-02  1.6256019E-02
   13.5000  1.3770604E-02  4.3134708E-02  1.6820615E-02
   13.7500  1.4515534E-02  4.0450047E-02  1.7411773E-02
   14.0000  1.5286582E-02  3.7776301E-02  1.8033214E-02
   14.2500  1.6086892E-02  3.5217484E-02  1.8686052E-02
   14.5000  1.6920291E-02  3.2840699E-02  1.9369533E-02
   14.7500  1.7791207E-02  3.0683117E-02  2.0081817E-02
   15.0000  1.8704485E-02  2.8759683E-02  2.0820742E-02
   15.2500  1.9665093E-02  2.7070050E-02  2.1584557E-02
   15.5000  2.0677725E-02  2.5604182E-02  2.2372543E-02
   15.7500  2.1746304E-02  2.4346565E-02  2.3185421E-02
   16.0000  2.2873384E-02  2.3279171E-02  2.4025474E-02
   16.2500  2.4059504E-02  2.2383385E-02  2.4896332E-02
   16.5000  2.5302499E-02  2.1641176E-02  2.5802452E-02
   16.7500  2.6596863E-02  2.1035720E-02  2.6748311E-02
   17.0000  2.7933202E-02  2.0551683E-02  2.7737407E-02
   17.2500  2.9297883E-02  2.0175288E-02  2.8771138E-02
   17.5000  3.0672961E-02  1.9894275E-02  2.9847645E-02
   17.7500  3.2036481E-02  1.9697829E-02  3.0960758E-02
   18.0000  3.3363223E-02  1.9576513E-02  3.2099161E-02
   18.2500  3.4625900E-02  1.9522232E-02  3.3245954E-02
   18.5000  3.5796762E-02  1.9528208E-02  3.4378801E-02
   18.7500  3.6849443E-02  1.9588959E-02  3.5470791E-02
   19.0000  3.7760900E-02  1.9700251E-02  3.6492123E-02
   19.2500  3.8513184E-02  1.9859008E-02  3.7412556E-02
   19.5000  3.9094874E-02  2.0063155E-02  3.8204401E-02
   19.7500  3.9502028E-02  2.0311392E-02  3.8845576E-02
   20.0000  3.9738591E-02  2.0602826E-02  3.9322036E-02
   21.0000  3.9286194E-02  2.2177138E-02  3.9595851E-02
   22.0000  3.7588955E-02  2.4334096E-02  3.7990419E-02
   23.0000  3.5805894E-02  2.6941515E-02  3.5899725E-02
   24.0000  3.4612092E-02  2.9778076E-02  3.4172157E-02
   25.0000  3.4193969E-02  3.2493631E-02  3.2993822E-02
   26.0000  3.4418212E-02  3.4661885E-02  3.2254863E-02
   27.0000  3.5011909E-02  3.5946891E-02  3.1792282E-02
   28.0000  3.5660257E-02  3.6251835E-02  3.1476000E-02
   29.0000  3.6051577E-02  3.5727223E-02  3.1226962E-02
   30.0000  3.5951529E-02  3.4659114E-02  3.1018510E-02
   31.0000  3.5311355E-02  3.3335837E-02  3.0856356E-02
   32.0000  3.4296574E-02  3.1966681E-02  3.0752856E-02
   33.0000  3.3160624E-02  3.0668404E-02  3.0709933E-02
   34.0000  3.2094062E-02  2.9488832E-02  3.0711908E-02
   35.0000  3.1175857E-02  2.8434062E-02  3.0731119E-02
   36.0000  3.0405566E-02  2.7488656E-02  3.0738443E-02
   37.0000  2.9750847E-02  2.6631387E-02  3.0711595E-02
   38.0000  2.9182362E-02  2.5850878E-02  3.0641648E-02
   39.0000  2.8693873E-02  2.5160813E-02  3.0539044E-02
   40.0000  2.8306701E-02  2.4605826E-02  3.0435571E-02
