    Energy   (100,001)      (010,001)      (001,110)   
  -25.0000  1.6882113E-04  1.7764301E-04  1.7411014E-04
  -24.0000  1.7504120E-04  1.8459282E-04  1.8054180E-04
  -23.0000  1.8168994E-04  1.9205536E-04  1.8742037E-04
  -22.0000  1.8881176E-04  2.0008769E-04  1.9479254E-04
  -21.0000  1.9645731E-04  2.0875552E-04  2.0271166E-04
  -20.0000  2.0468463E-04  2.1813488E-04  2.1123887E-04
  -19.0000  2.1356053E-04  2.2831420E-04  2.2044463E-04
  -18.0000  2.2316228E-04  2.3939689E-04  2.3041054E-04
  -17.0000  2.3357978E-04  2.5150466E-04  2.4123155E-04
  -16.0000  2.4491816E-04  2.6478164E-04  2.5301887E-04
  -15.0000  2.5730121E-04  2.7939976E-04  2.6590351E-04
  -14.0000  2.7087564E-04  2.9556570E-04  2.8004088E-04
  -13.0000  2.8581666E-04  3.1352994E-04  2.9561672E-04
  -12.0000  3.0233519E-04  3.3359894E-04  3.1285479E-04
  -11.0000  3.2068752E-04  3.5615137E-04  3.3202710E-04
  -10.0000  3.4118814E-04  3.8166046E-04  3.5346760E-04
  -9.00000  3.6422732E-04  4.1072489E-04  3.7759083E-04
  -8.00000  3.9029553E-04  4.4411282E-04  4.0491780E-04
  -7.00000  4.2001799E-04  4.8282528E-04  4.3611251E-04
  -6.00000  4.5420491E-04  5.2819041E-04  4.7203501E-04
  -5.00000  4.9392626E-04  5.8200686E-04  5.1382007E-04
  -4.00000  5.4062702E-04  6.4676951E-04  5.6299815E-04
  -3.00000  5.9631136E-04  7.2603835E-04  6.2168807E-04
  -2.00000  6.6385131E-04  8.2507009E-04  6.9291899E-04
  -1.00000  7.4753481E-04  9.5196283E-04  7.8120084E-04
   0.00000  8.5411486E-04  1.1198896E-03  8.9361624E-04
   1.00000  9.9503208E-04  1.3519072E-03  1.0421428E-03
   2.00000  1.1918519E-03  1.6928733E-03  1.2494049E-03
   3.00000  1.4928363E-03  2.2460669E-03  1.5666873E-03
   4.00000  2.0450297E-03  3.3331512E-03  2.1561876E-03
   5.00000  3.4661698E-03  6.3158130E-03  3.7058307E-03
   5.20000  3.9135819E-03  7.2640315E-03  4.1618456E-03
   5.40000  4.3770934E-03  8.2416253E-03  4.6007899E-03
   5.60000  4.8489886E-03  9.2337293E-03  5.0175667E-03
   5.80000  5.3361629E-03  1.0259405E-02  5.4293585E-03
   6.00000  5.8496974E-03  1.1347158E-02  5.8571582E-03
   6.20000  6.4005866E-03  1.2524098E-02  6.3188305E-03
   6.40000  6.9996385E-03  1.3814111E-02  6.8291545E-03
   6.60000  7.6583294E-03  1.5238388E-02  7.4013989E-03
   6.80000  8.3891935E-03  1.6816288E-02  8.0483730E-03
   7.00000  9.2051620E-03  1.8566439E-02  8.7824721E-03
   7.20000  1.0117497E-02  2.0507872E-02  9.6146999E-03
   7.40000  1.1132080E-02  2.2660265E-02  1.0552775E-02
   7.60000  1.2244228E-02  2.5042795E-02  1.1598626E-02
   7.80000  1.3433501E-02  2.7671773E-02  1.2746118E-02
   8.00000  1.4662074E-02  3.0557894E-02  1.3980756E-02
   8.20000  1.5881497E-02  3.3704313E-02  1.5283534E-02
   8.40000  1.7049398E-02  3.7105636E-02  1.6639282E-02
   8.60000  1.8148962E-02  4.0744863E-02  1.8045544E-02
   8.80000  1.9197817E-02  4.4583305E-02  1.9515259E-02
   9.00000  2.0238931E-02  4.8541796E-02  2.1069881E-02
   9.20000  2.1319962E-02  5.2479225E-02  2.2726610E-02
   9.40000  2.2474004E-02  5.6180681E-02  2.4486562E-02
   9.60000  2.3709589E-02  5.9368323E-02  2.6328527E-02
   9.80000  2.5010080E-02  6.1742763E-02  2.8209792E-02
   10.0000  2.6339066E-02  6.3049809E-02  3.0073538E-02
   10.2500  2.7966748E-02  6.2984712E-02  3.2288480E-02
   10.5000  2.9465854E-02  6.1114530E-02  3.4288593E-02
   10.7500  3.0755408E-02  5.7839940E-02  3.6020175E-02
   11.0000  3.1786187E-02  5.3717786E-02  3.7468897E-02
   11.2500  3.2544389E-02  4.9274973E-02  3.8644167E-02
   11.5000  3.3046995E-02  4.4903694E-02  3.9564446E-02
   11.7500  3.3334372E-02  4.0842937E-02  4.0250301E-02
   12.0000  3.3463320E-02  3.7208343E-02  4.0721108E-02
   12.2500  3.3499755E-02  3.4033998E-02  4.0992514E-02
   12.5000  3.3509695E-02  3.1306808E-02  4.1079385E-02
   12.7500  3.3549356E-02  2.8989822E-02  4.1003266E-02
   13.0000  3.3658096E-02  2.7036832E-02  4.0796301E-02
   13.2500  3.3857505E-02  2.5400514E-02  4.0497989E-02
   13.5000  3.4154171E-02  2.4036516E-02  4.0148969E-02
   13.7500  3.4542793E-02  2.2905364E-02  3.9786119E-02
   14.0000  3.5008863E-02  2.1973124E-02  3.9439900E-02
   14.2500  3.5531063E-02  2.1211296E-02  3.9133348E-02
   14.5000  3.6083441E-02  2.0596294E-02  3.8882002E-02
   14.7500  3.6637458E-02  2.0108768E-02  3.8694261E-02
   15.0000  3.7163952E-02  1.9732911E-02  3.8571944E-02
   15.2500  3.7635072E-02  1.9455830E-02  3.8510967E-02
   15.5000  3.8026183E-02  1.9267008E-02  3.8502172E-02
   15.7500  3.8317609E-02  1.9157833E-02  3.8532348E-02
   16.0000  3.8496062E-02  1.9121206E-02  3.8585473E-02
   16.2500  3.8555534E-02  1.9151209E-02  3.8644130E-02
   16.5000  3.8497519E-02  1.9242808E-02  3.8690998E-02
   16.7500  3.8330501E-02  1.9391610E-02  3.8710280E-02
   17.0000  3.8068798E-02  1.9593659E-02  3.8688909E-02
   17.2500  3.7730970E-02  1.9845264E-02  3.8617411E-02
   17.5000  3.7338022E-02  2.0142887E-02  3.8490322E-02
   17.7500  3.6911668E-02  2.0483044E-02  3.8306175E-02
   18.0000  3.6472828E-02  2.0862257E-02  3.8067085E-02
   18.2500  3.6040476E-02  2.1277011E-02  3.7778056E-02
   18.5000  3.5630869E-02  2.1723742E-02  3.7446115E-02
   18.7500  3.5257118E-02  2.2198837E-02  3.7079413E-02
   19.0000  3.4929056E-02  2.2698667E-02  3.6686365E-02
   19.2500  3.4653290E-02  2.3219667E-02  3.6274916E-02
   19.5000  3.4433397E-02  2.3758433E-02  3.5851967E-02
   19.7500  3.4270159E-02  2.4311766E-02  3.5423038E-02
   20.0000  3.4161835E-02  2.4876455E-02  3.4992289E-02
   21.0000  3.4176169E-02  2.7163539E-02  3.3307971E-02
   22.0000  3.4560257E-02  2.9289203E-02  3.1750059E-02
   23.0000  3.4824232E-02  3.1058733E-02  3.0322739E-02
   24.0000  3.4622014E-02  3.2359400E-02  2.9023608E-02
   25.0000  3.3853293E-02  3.3143475E-02  2.7872140E-02
   26.0000  3.2631921E-02  3.3417048E-02  2.6908619E-02
   27.0000  3.1179557E-02  3.3230924E-02  2.6179444E-02
   28.0000  2.9718134E-02  3.2672810E-02  2.5702593E-02
   29.0000  2.8405181E-02  3.1859619E-02  2.5441966E-02
   30.0000  2.7314143E-02  3.0914955E-02  2.5320521E-02
   31.0000  2.6445728E-02  2.9928145E-02  2.5256250E-02
   32.0000  2.5759886E-02  2.8947909E-02  2.5186588E-02
   33.0000  2.5201772E-02  2.7994897E-02  2.5071768E-02
   34.0000  2.4716691E-02  2.7074340E-02  2.4890925E-02
   35.0000  2.4260413E-02  2.6186482E-02  2.4640865E-02
   36.0000  2.3807770E-02  2.5333078E-02  2.4336135E-02
   37.0000  2.3357513E-02  2.4520815E-02  2.4005134E-02
   38.0000  2.2929189E-02  2.3765367E-02  2.3681549E-02
   39.0000  2.2552809E-02  2.3098049E-02  2.3396452E-02
   40.0000  2.2256861E-02  2.2566426E-02  2.3174086E-02
