    Energy   (100,001)      (010,001)      (001,110)   
  -25.0000  1.7496010E-04  1.7893041E-04  1.7719379E-04
  -24.0000  1.8134419E-04  1.8597640E-04  1.8383298E-04
  -23.0000  1.8816742E-04  1.9354530E-04  1.9094020E-04
  -22.0000  1.9547532E-04  2.0169566E-04  1.9856517E-04
  -21.0000  2.0331985E-04  2.1049492E-04  2.0676475E-04
  -20.0000  2.1176056E-04  2.2002121E-04  2.1560429E-04
  -19.0000  2.2086600E-04  2.3036544E-04  2.2515932E-04
  -18.0000  2.3071548E-04  2.4163406E-04  2.3551748E-04
  -17.0000  2.4140128E-04  2.5395246E-04  2.4678115E-04
  -16.0000  2.5303134E-04  2.6746929E-04  2.5907053E-04
  -15.0000  2.6573276E-04  2.8236209E-04  2.7252779E-04
  -14.0000  2.7965621E-04  2.9884452E-04  2.8732219E-04
  -13.0000  2.9498159E-04  3.1717590E-04  3.0365686E-04
  -12.0000  3.1192553E-04  3.3767396E-04  3.2177764E-04
  -11.0000  3.3075116E-04  3.6073195E-04  3.4198490E-04
  -10.0000  3.5178130E-04  3.8684212E-04  3.6464945E-04
  -9.00000  3.7541641E-04  4.1662853E-04  3.9023439E-04
  -8.00000  4.0215942E-04  4.5089355E-04  4.1932574E-04
  -7.00000  4.3265088E-04  4.9068536E-04  4.5267605E-04
  -6.00000  4.6771974E-04  5.3739838E-04  4.9126827E-04
  -5.00000  5.0845877E-04  5.9292679E-04  5.3641169E-04
  -4.00000  5.5633990E-04  6.5990699E-04  5.8989089E-04
  -3.00000  6.1339741E-04  7.4211569E-04  6.5420590E-04
  -2.00000  6.8253165E-04  8.4515443E-04  7.3297814E-04
  -1.00000  7.6804118E-04  9.7769606E-04  8.3167733E-04
   0.00000  8.7662285E-04  1.1539273E-03  9.5902366E-04
   1.00000  1.0194360E-03  1.3988244E-03  1.1299749E-03
   2.00000  1.2169704E-03  1.7612257E-03  1.3730423E-03
   3.00000  1.5131294E-03  2.3537365E-03  1.7524104E-03
   4.00000  2.0324396E-03  3.5238928E-03  2.4618688E-03
   5.00000  3.2619765E-03  6.7353447E-03  4.3149589E-03
   5.20000  3.6462534E-03  7.7828138E-03  4.9247598E-03
   5.40000  4.0581795E-03  8.8943420E-03  5.5834605E-03
   5.60000  4.4999900E-03  1.0059850E-02  6.2834455E-03
   5.80000  4.9852843E-03  1.1301694E-02  7.0314845E-03
   6.00000  5.5308058E-03  1.2651201E-02  7.8380709E-03
   6.20000  6.1530139E-03  1.4137610E-02  8.7124344E-03
   6.40000  6.8675018E-03  1.5785568E-02  9.6614946E-03
   6.60000  7.6885628E-03  1.7614653E-02  1.0689426E-02
   6.80000  8.6276001E-03  1.9638036E-02  1.1796199E-02
   7.00000  9.6897623E-03  2.1859094E-02  1.2974476E-02
   7.20000  1.0868775E-02  2.4265766E-02  1.4205256E-02
   7.40000  1.2140939E-02  2.6824255E-02  1.5454404E-02
   7.60000  1.3461342E-02  2.9476723E-02  1.6674566E-02
   7.80000  1.4767917E-02  3.2149933E-02  1.7817772E-02
   8.00000  1.5997500E-02  3.4778413E-02  1.8858734E-02
   8.20000  1.7109175E-02  3.7333304E-02  1.9816781E-02
   8.40000  1.8100590E-02  3.9836060E-02  2.0757880E-02
   8.60000  1.9005952E-02  4.2342241E-02  2.1770882E-02
   8.80000  1.9879225E-02  4.4903783E-02  2.2933555E-02
   9.00000  2.0775192E-02  4.7532690E-02  2.4288926E-02
   9.20000  2.1737005E-02  5.0181538E-02  2.5839237E-02
   9.40000  2.2790991E-02  5.2741015E-02  2.7552387E-02
   9.60000  2.3945919E-02  5.5050357E-02  2.9373748E-02
   9.80000  2.5194391E-02  5.6920295E-02  3.1239032E-02
   10.0000  2.6515530E-02  5.8167697E-02  3.3085223E-02
   10.2500  2.8221665E-02  5.8649143E-02  3.5283030E-02
   10.5000  2.9921312E-02  5.7856027E-02  3.7278880E-02
   10.7500  3.1540980E-02  5.5912591E-02  3.9004232E-02
   11.0000  3.3014651E-02  5.3105621E-02  4.0401370E-02
   11.2500  3.4290361E-02  4.9783706E-02  4.1423761E-02
   11.5000  3.5334791E-02  4.6266826E-02  4.2044551E-02
   11.7500  3.6137540E-02  4.2797751E-02  4.2267275E-02
   12.0000  3.6711289E-02  3.9533417E-02  4.2129359E-02
   12.2500  3.7086167E-02  3.6558089E-02  4.1695619E-02
   12.5000  3.7301450E-02  3.3903183E-02  4.1047445E-02
   12.7500  3.7398826E-02  3.1565823E-02  4.0272571E-02
   13.0000  3.7419507E-02  2.9523698E-02  3.9454639E-02
   13.2500  3.7402435E-02  2.7746786E-02  3.8662007E-02
   13.5000  3.7381094E-02  2.6205189E-02  3.7941377E-02
   13.7500  3.7381305E-02  2.4872149E-02  3.7319559E-02
   14.0000  3.7421025E-02  2.3724235E-02  3.6808903E-02
   14.2500  3.7510921E-02  2.2740972E-02  3.6411934E-02
   14.5000  3.7654923E-02  2.1904541E-02  3.6124360E-02
   14.7500  3.7850617E-02  2.1199513E-02  3.5936992E-02
   15.0000  3.8089564E-02  2.0612567E-02  3.5837038E-02
   15.2500  3.8357652E-02  2.0132198E-02  3.5809066E-02
   15.5000  3.8635646E-02  1.9748442E-02  3.5835789E-02
   15.7500  3.8900109E-02  1.9452609E-02  3.5898845E-02
   16.0000  3.9124880E-02  1.9237063E-02  3.5979641E-02
   16.2500  3.9283167E-02  1.9095018E-02  3.6060314E-02
   16.5000  3.9350176E-02  1.9020392E-02  3.6124731E-02
   16.7500  3.9305992E-02  1.9007692E-02  3.6159439E-02
   17.0000  3.9138255E-02  1.9051942E-02  3.6154404E-02
   17.2500  3.8844073E-02  1.9148646E-02  3.6103422E-02
   17.5000  3.8430697E-02  1.9293760E-02  3.6004143E-02
   17.7500  3.7914764E-02  1.9483677E-02  3.5857717E-02
   18.0000  3.7320242E-02  1.9715193E-02  3.5668158E-02
   18.2500  3.6675537E-02  1.9985470E-02  3.5441525E-02
   18.5000  3.6010362E-02  2.0291987E-02  3.5185084E-02
   18.7500  3.5352946E-02  2.0632495E-02  3.4906512E-02
   19.0000  3.4727936E-02  2.1004989E-02  3.4613243E-02
   19.2500  3.4155127E-02  2.1407715E-02  3.4311946E-02
   19.5000  3.3648932E-02  2.1839191E-02  3.4008172E-02
   19.7500  3.3218456E-02  2.2298166E-02  3.3706164E-02
   20.0000  3.2868023E-02  2.2783383E-02  3.3408910E-02
   21.0000  3.2240174E-02  2.4941948E-02  3.2300539E-02
   22.0000  3.2569162E-02  2.7310941E-02  3.1334175E-02
   23.0000  3.3228295E-02  2.9678237E-02  3.0454651E-02
   24.0000  3.3497232E-02  3.1784322E-02  2.9603316E-02
   25.0000  3.2915570E-02  3.3379116E-02  2.8759946E-02
   26.0000  3.1563805E-02  3.4300920E-02  2.7952704E-02
   27.0000  2.9911802E-02  3.4518554E-02  2.7256298E-02
   28.0000  2.8400601E-02  3.4126632E-02  2.6759523E-02
   29.0000  2.7220581E-02  3.3298200E-02  2.6502260E-02
   30.0000  2.6377223E-02  3.2218365E-02  2.6458246E-02
   31.0000  2.5799827E-02  3.1036163E-02  2.6553112E-02
   32.0000  2.5401685E-02  2.9848304E-02  2.6693689E-02
   33.0000  2.5106267E-02  2.8705503E-02  2.6793505E-02
   34.0000  2.4855611E-02  2.7626861E-02  2.6784975E-02
   35.0000  2.4612911E-02  2.6613686E-02  2.6621686E-02
   36.0000  2.4364458E-02  2.5660412E-02  2.6279295E-02
   37.0000  2.4117931E-02  2.4763682E-02  2.5761313E-02
   38.0000  2.3892728E-02  2.3931790E-02  2.5110167E-02
   39.0000  2.3705955E-02  2.3194923E-02  2.4417595E-02
   40.0000  2.3564986E-02  2.2605946E-02  2.3814767E-02
