    Energy   (100,001)      (010,001)      (001,110)   
  -25.0000  1.7192567E-04  1.7417818E-04  1.8168028E-04
  -24.0000  1.7840117E-04  1.8108684E-04  1.8863830E-04
  -23.0000  1.8533453E-04  1.8850889E-04  1.9610142E-04
  -22.0000  1.9277448E-04  1.9650175E-04  2.0412506E-04
  -21.0000  2.0077682E-04  2.0513152E-04  2.1277288E-04
  -20.0000  2.0940572E-04  2.1447476E-04  2.2211844E-04
  -19.0000  2.1873534E-04  2.2462051E-04  2.3224709E-04
  -18.0000  2.2885182E-04  2.3567301E-04  2.4325850E-04
  -17.0000  2.3985581E-04  2.4775495E-04  2.5526967E-04
  -16.0000  2.5186564E-04  2.6101176E-04  2.6841891E-04
  -15.0000  2.6502132E-04  2.7561701E-04  2.8287082E-04
  -14.0000  2.7948973E-04  2.9177948E-04  2.9882283E-04
  -13.0000  2.9547137E-04  3.0975241E-04  3.1651372E-04
  -12.0000  3.1320924E-04  3.2984586E-04  3.3623493E-04
  -11.0000  3.3300063E-04  3.5244330E-04  3.5834583E-04
  -10.0000  3.5521323E-04  3.7802439E-04  3.8329457E-04
  -9.00000  3.8030718E-04  4.0719666E-04  4.1164705E-04
  -8.00000  4.0886610E-04  4.4074043E-04  4.4412813E-04
  -7.00000  4.4164156E-04  4.7967406E-04  4.8168119E-04
  -6.00000  4.7961848E-04  5.2535063E-04  5.2555684E-04
  -5.00000  5.2411385E-04  5.7960576E-04  5.7744846E-04
  -4.00000  5.7693105E-04  6.4499068E-04  6.3970658E-04
  -3.00000  6.4061047E-04  7.2515435E-04  7.1569151E-04
  -2.00000  7.1885662E-04  8.2549981E-04  8.1038129E-04
  -1.00000  8.1730995E-04  9.5437883E-04  9.3148229E-04
   0.00000  9.4505139E-04  1.1254341E-03  1.0916116E-03
   1.00000  1.1178443E-03  1.3626730E-03  1.3130123E-03
   2.00000  1.3661744E-03  1.7131357E-03  1.6391639E-03
   3.00000  1.7598901E-03  2.2861920E-03  2.1694322E-03
   4.00000  2.5144488E-03  3.4270892E-03  3.1998466E-03
   5.00000  4.5250527E-03  6.6156122E-03  5.9532114E-03
   5.20000  5.1651594E-03  7.6305906E-03  6.9141085E-03
   5.40000  5.8465394E-03  8.6676596E-03  8.0187487E-03
   5.60000  6.5833238E-03  9.7046767E-03  9.2805784E-03
   5.80000  7.4129778E-03  1.0759050E-02  1.0726716E-02
   6.00000  8.3719716E-03  1.1861428E-02  1.2380021E-02
   6.20000  9.4804586E-03  1.3042640E-02  1.4243531E-02
   6.40000  1.0731671E-02  1.4330921E-02  1.6287404E-02
   6.60000  1.2083329E-02  1.5753062E-02  1.8441659E-02
   6.80000  1.3456335E-02  1.7336626E-02  2.0604483E-02
   7.00000  1.4749670E-02  1.9111817E-02  2.2673296E-02
   7.20000  1.5874071E-02  2.1111288E-02  2.4587996E-02
   7.40000  1.6790810E-02  2.3366672E-02  2.6354144E-02
   7.60000  1.7530361E-02  2.5903528E-02  2.8019243E-02
   7.80000  1.8176946E-02  2.8738117E-02  2.9617538E-02
   8.00000  1.8831318E-02  3.1876562E-02  3.1131282E-02
   8.20000  1.9577441E-02  3.5312229E-02  3.2496557E-02
   8.40000  2.0468182E-02  3.9016714E-02  3.3638158E-02
   8.60000  2.1527501E-02  4.2924878E-02  3.4502340E-02
   8.80000  2.2759126E-02  4.6920424E-02  3.5071606E-02
   9.00000  2.4154220E-02  5.0831070E-02  3.5363535E-02
   9.20000  2.5694403E-02  5.4439533E-02  3.5421413E-02
   9.40000  2.7348731E-02  5.7509606E-02  3.5303326E-02
   9.60000  2.9068745E-02  5.9820929E-02  3.5074386E-02
   9.80000  3.0788861E-02  6.1205042E-02  3.4801636E-02
   10.0000  3.2433338E-02  6.1575367E-02  3.4547568E-02
   10.2500  3.4268366E-02  6.0637767E-02  3.4331180E-02
   10.5000  3.5748151E-02  5.8356388E-02  3.4277441E-02
   10.7500  3.6808056E-02  5.5096317E-02  3.4388537E-02
   11.0000  3.7449650E-02  5.1269215E-02  3.4623118E-02
   11.2500  3.7730163E-02  4.7244877E-02  3.4922211E-02
   11.5000  3.7736531E-02  4.3302910E-02  3.5230142E-02
   11.7500  3.7559530E-02  3.9624508E-02  3.5503959E-02
   12.0000  3.7276897E-02  3.6307764E-02  3.5717069E-02
   12.2500  3.6947970E-02  3.3389334E-02  3.5859722E-02
   12.5000  3.6615230E-02  3.0864909E-02  3.5936591E-02
   12.7500  3.6307030E-02  2.8706465E-02  3.5961915E-02
   13.0000  3.6039975E-02  2.6875153E-02  3.5953937E-02
   13.2500  3.5821287E-02  2.5329601E-02  3.5930732E-02
   13.5000  3.5650951E-02  2.4030596E-02  3.5907605E-02
   13.7500  3.5523349E-02  2.2943303E-02  3.5895233E-02
   14.0000  3.5428661E-02  2.2037985E-02  3.5898707E-02
   14.2500  3.5354336E-02  2.1289875E-02  3.5917829E-02
   14.5000  3.5286685E-02  2.0678648E-02  3.5948221E-02
   14.7500  3.5212426E-02  2.0187730E-02  3.5982588E-02
   15.0000  3.5120054E-02  1.9803604E-02  3.6011944E-02
   15.2500  3.5000864E-02  1.9515173E-02  3.6026798E-02
   15.5000  3.4849538E-02  1.9313237E-02  3.6018272E-02
   15.7500  3.4664266E-02  1.9190064E-02  3.5979060E-02
   16.0000  3.4446460E-02  1.9139052E-02  3.5904118E-02
   16.2500  3.4200218E-02  1.9154454E-02  3.5791022E-02
   16.5000  3.3931684E-02  1.9231153E-02  3.5639944E-02
   16.7500  3.3648438E-02  1.9364482E-02  3.5453336E-02
   17.0000  3.3358985E-02  1.9550073E-02  3.5235388E-02
   17.2500  3.3072341E-02  1.9783742E-02  3.4991400E-02
   17.5000  3.2797680E-02  2.0061404E-02  3.4727169E-02
   17.7500  3.2544005E-02  2.0379027E-02  3.4448457E-02
   18.0000  3.2319805E-02  2.0732607E-02  3.4160585E-02
   18.2500  3.2132694E-02  2.1118184E-02  3.3868162E-02
   18.5000  3.1989059E-02  2.1531874E-02  3.3574934E-02
   18.7500  3.1893732E-02  2.1969947E-02  3.3283727E-02
   19.0000  3.1849735E-02  2.2428922E-02  3.2996469E-02
   19.2500  3.1858115E-02  2.2905705E-02  3.2714250E-02
   19.5000  3.1917881E-02  2.3397733E-02  3.2437417E-02
   19.7500  3.2025972E-02  2.3903039E-02  3.2165706E-02
   20.0000  3.2177156E-02  2.4420087E-02  3.1898461E-02
   21.0000  3.3034189E-02  2.6569622E-02  3.0861834E-02
   22.0000  3.3784750E-02  2.8764027E-02  2.9859561E-02
   23.0000  3.3893634E-02  3.0877574E-02  2.8893654E-02
   24.0000  3.3257631E-02  3.2673327E-02  2.8005474E-02
   25.0000  3.2156046E-02  3.3860482E-02  2.7240720E-02
   26.0000  3.0908758E-02  3.4309781E-02  2.6602332E-02
   27.0000  2.9697560E-02  3.4090768E-02  2.6068273E-02
   28.0000  2.8592914E-02  3.3387479E-02  2.5633159E-02
   29.0000  2.7617952E-02  3.2403418E-02  2.5307597E-02
   30.0000  2.6773259E-02  3.1300467E-02  2.5088913E-02
   31.0000  2.6042277E-02  3.0179277E-02  2.4949095E-02
   32.0000  2.5398064E-02  2.9085813E-02  2.4845139E-02
   33.0000  2.4812686E-02  2.8028832E-02  2.4734115E-02
   34.0000  2.4266456E-02  2.6998553E-02  2.4584318E-02
   35.0000  2.3753911E-02  2.5982222E-02  2.4382728E-02
   36.0000  2.3283598E-02  2.4975786E-02  2.4138543E-02
   37.0000  2.2870793E-02  2.3991287E-02  2.3879593E-02
   38.0000  2.2527497E-02  2.3060386E-02  2.3641101E-02
   39.0000  2.2257177E-02  2.2235314E-02  2.3450837E-02
   40.0000  2.2056773E-02  2.1580936E-02  2.3317192E-02
