    Energy   (100,001)      (010,001)      (001,110)   
  -25.0000  1.7025479E-04  1.8439814E-04  1.7698966E-04
  -24.0000  1.7652627E-04  1.9139844E-04  1.8357027E-04
  -23.0000  1.8322837E-04  1.9890448E-04  1.9061050E-04
  -22.0000  1.9040547E-04  2.0697168E-04  1.9815870E-04
  -21.0000  1.9810813E-04  2.1566375E-04  2.0627015E-04
  -20.0000  2.0639424E-04  2.2505425E-04  2.1500832E-04
  -19.0000  2.1533039E-04  2.3522860E-04  2.2444647E-04
  -18.0000  2.2499351E-04  2.4628651E-04  2.3466954E-04
  -17.0000  2.3547298E-04  2.5834509E-04  2.4577663E-04
  -16.0000  2.4687325E-04  2.7154273E-04  2.5788403E-04
  -15.0000  2.5931708E-04  2.8604416E-04  2.7112908E-04
  -14.0000  2.7294980E-04  3.0204694E-04  2.8567520E-04
  -13.0000  2.8794464E-04  3.1978993E-04  3.0171835E-04
  -12.0000  3.0450983E-04  3.3956461E-04  3.1949553E-04
  -11.0000  3.2289779E-04  3.6173019E-04  3.3929616E-04
  -10.0000  3.4341763E-04  3.8673429E-04  3.6147741E-04
  -9.00000  3.6645194E-04  4.1514152E-04  3.8648544E-04
  -8.00000  3.9248015E-04  4.4767404E-04  4.1488500E-04
  -7.00000  4.2211142E-04  4.8526985E-04  4.4740212E-04
  -6.00000  4.5613214E-04  5.2916924E-04  4.8498675E-04
  -5.00000  4.9557642E-04  5.8104598E-04  5.2890764E-04
  -4.00000  5.4183382E-04  6.4321361E-04  5.8090100E-04
  -3.00000  5.9682063E-04  7.1896213E-04  6.4341309E-04
  -2.00000  6.6326468E-04  8.1313475E-04  7.2001599E-04
  -1.00000  7.4520757E-04  9.3317563E-04  8.1616536E-04
   0.00000  8.4895931E-04  1.0911847E-03  9.4069362E-04
   1.00000  9.8510938E-04  1.3083860E-03  1.1090736E-03
   2.00000  1.1734344E-03  1.6263816E-03  1.3516564E-03
   3.00000  1.4579119E-03  2.1426177E-03  1.7394380E-03
   4.00000  1.9728840E-03  3.1705231E-03  2.4973119E-03
   5.00000  3.2827032E-03  6.0782834E-03  4.6057537E-03
   5.20000  3.6855631E-03  6.9996733E-03  5.3090386E-03
   5.40000  4.0944024E-03  7.9304611E-03  6.0648170E-03
   5.60000  4.5025213E-03  8.8461671E-03  6.8629544E-03
   5.80000  4.9184256E-03  9.7569448E-03  7.7093386E-03
   6.00000  5.3545242E-03  1.0682032E-02  8.6101321E-03
   6.20000  5.8219961E-03  1.1638848E-02  9.5640306E-03
   6.40000  6.3297639E-03  1.2642488E-02  1.0561223E-02
   6.60000  6.8845579E-03  1.3708357E-02  1.1586101E-02
   6.80000  7.4912015E-03  1.4854575E-02  1.2622560E-02
   7.00000  8.1532669E-03  1.6102647E-02  1.3660037E-02
   7.20000  8.8742233E-03  1.7476285E-02  1.4696435E-02
   7.40000  9.6586064E-03  1.8999603E-02  1.5734345E-02
   7.60000  1.0512385E-02  2.0696115E-02  1.6771482E-02
   7.80000  1.1442216E-02  2.2588959E-02  1.7791981E-02
   8.00000  1.2454235E-02  2.4701353E-02  1.8766036E-02
   8.20000  1.3553299E-02  2.7055847E-02  1.9659706E-02
   8.40000  1.4742909E-02  2.9672173E-02  2.0449255E-02
   8.60000  1.6025264E-02  3.2564731E-02  2.1131420E-02
   8.80000  1.7400801E-02  3.5739019E-02  2.1724565E-02
   9.00000  1.8866654E-02  3.9183125E-02  2.2261791E-02
   9.20000  2.0413954E-02  4.2852698E-02  2.2780564E-02
   9.40000  2.2024627E-02  4.6654050E-02  2.3313242E-02
   9.60000  2.3669042E-02  5.0432808E-02  2.3881201E-02
   9.80000  2.5306644E-02  5.3976815E-02  2.4493840E-02
   10.0000  2.6891124E-02  5.7038837E-02  2.5152128E-02
   10.2500  2.8730439E-02  5.9822108E-02  2.6036196E-02
   10.5000  3.0351148E-02  6.1120983E-02  2.6985707E-02
   10.7500  3.1715011E-02  6.0811030E-02  2.7999573E-02
   11.0000  3.2816681E-02  5.9030144E-02  2.9077666E-02
   11.2500  3.3680491E-02  5.6118224E-02  3.0217134E-02
   11.5000  3.4349296E-02  5.2503791E-02  3.1405237E-02
   11.7500  3.4868813E-02  4.8594518E-02  3.2613272E-02
   12.0000  3.5277264E-02  4.4708743E-02  3.3796015E-02
   12.2500  3.5606238E-02  4.1055325E-02  3.4898196E-02
   12.5000  3.5883442E-02  3.7747399E-02  3.5866805E-02
   12.7500  3.6132417E-02  3.4828770E-02  3.6664168E-02
   13.0000  3.6371709E-02  3.2298669E-02  3.7276100E-02
   13.2500  3.6615208E-02  3.0130984E-02  3.7712983E-02
   13.5000  3.6872877E-02  2.8288403E-02  3.8004551E-02
   13.7500  3.7150574E-02  2.6731393E-02  3.8191506E-02
   14.0000  3.7449455E-02  2.5422457E-02  3.8317547E-02
   14.2500  3.7765783E-02  2.4327620E-02  3.8423307E-02
   14.5000  3.8091266E-02  2.3416890E-02  3.8542291E-02
   14.7500  3.8413722E-02  2.2664297E-02  3.8698597E-02
   15.0000  3.8717981E-02  2.2047708E-02  3.8906069E-02
   15.2500  3.8987029E-02  2.1548488E-02  3.9168454E-02
   15.5000  3.9203359E-02  2.1151098E-02  3.9480214E-02
   15.7500  3.9350484E-02  2.0842675E-02  3.9827798E-02
   16.0000  3.9414467E-02  2.0612620E-02  4.0191348E-02
   16.2500  3.9385306E-02  2.0452215E-02  4.0546825E-02
   16.5000  3.9257952E-02  2.0354284E-02  4.0868520E-02
   16.7500  3.9032798E-02  2.0312885E-02  4.1131785E-02
   17.0000  3.8715567E-02  2.0323057E-02  4.1315686E-02
   17.2500  3.8316640E-02  2.0380597E-02  4.1405172E-02
   17.5000  3.7849989E-02  2.0481886E-02  4.1392425E-02
   17.7500  3.7331896E-02  2.0623747E-02  4.1277168E-02
   18.0000  3.6779676E-02  2.0803327E-02  4.1065961E-02
   18.2500  3.6210537E-02  2.1018024E-02  4.0770715E-02
   18.5000  3.5640676E-02  2.1265426E-02  4.0406797E-02
   18.7500  3.5084636E-02  2.1543286E-02  3.9991077E-02
   19.0000  3.4554911E-02  2.1849526E-02  3.9540205E-02
   19.2500  3.4061732E-02  2.2182264E-02  3.9069273E-02
   19.5000  3.3613005E-02  2.2539855E-02  3.8590916E-02
   19.7500  3.3214387E-02  2.2920877E-02  3.8114877E-02
   20.0000  3.2869569E-02  2.3323949E-02  3.7648112E-02
   21.0000  3.2063241E-02  2.5114566E-02  3.5950342E-02
   22.0000  3.2161132E-02  2.7073683E-02  3.4558748E-02
   23.0000  3.2958372E-02  2.9045849E-02  3.3356495E-02
   24.0000  3.4033407E-02  3.0860338E-02  3.2192850E-02
   25.0000  3.4806430E-02  3.2351334E-02  3.0977565E-02
   26.0000  3.4786390E-02  3.3389644E-02  2.9721568E-02
   27.0000  3.3901022E-02  3.3918252E-02  2.8526687E-02
   28.0000  3.2493520E-02  3.3979406E-02  2.7499451E-02
   29.0000  3.0995931E-02  3.3674460E-02  2.6701741E-02
   30.0000  2.9670681E-02  3.3121031E-02  2.6135784E-02
   31.0000  2.8590913E-02  3.2424987E-02  2.5755127E-02
   32.0000  2.7724897E-02  3.1660780E-02  2.5492161E-02
   33.0000  2.7003982E-02  3.0866308E-02  2.5282100E-02
   34.0000  2.6356994E-02  3.0050942E-02  2.5075211E-02
   35.0000  2.5726597E-02  2.9209602E-02  2.4839827E-02
   36.0000  2.5078770E-02  2.8337650E-02  2.4561794E-02
   37.0000  2.4408549E-02  2.7443616E-02  2.4243020E-02
   38.0000  2.3741028E-02  2.6558573E-02  2.3900094E-02
   39.0000  2.3126701E-02  2.5742221E-02  2.3564228E-02
   40.0000  2.2628775E-02  2.5078537E-02  2.3279831E-02
