    Energy   (100,001)      (010,001)      (001,110)   
  -25.0000  1.6690429E-04  1.9009723E-04  1.6852112E-04
  -24.0000  1.7330302E-04  1.9703274E-04  1.7502790E-04
  -23.0000  1.8015548E-04  2.0445749E-04  1.8199985E-04
  -22.0000  1.8750968E-04  2.1242429E-04  1.8948660E-04
  -21.0000  1.9542053E-04  2.2099378E-04  1.9754492E-04
  -20.0000  2.0395104E-04  2.3023592E-04  2.0624007E-04
  -19.0000  2.1317393E-04  2.4023179E-04  2.1564741E-04
  -18.0000  2.2317349E-04  2.5107594E-04  2.2585441E-04
  -17.0000  2.3404803E-04  2.6287922E-04  2.3696316E-04
  -16.0000  2.4591278E-04  2.7577248E-04  2.4909352E-04
  -15.0000  2.5890378E-04  2.8991121E-04  2.6238714E-04
  -14.0000  2.7318267E-04  3.0548159E-04  2.7701255E-04
  -13.0000  2.8894300E-04  3.2270839E-04  2.9317187E-04
  -12.0000  3.0641846E-04  3.4186542E-04  3.1110948E-04
  -11.0000  3.2589376E-04  3.6328952E-04  3.3112362E-04
  -10.0000  3.4771935E-04  3.8739966E-04  3.5358206E-04
  -9.00000  3.7233146E-04  4.1472333E-04  3.7894347E-04
  -8.00000  4.0028001E-04  4.4593380E-04  4.0778733E-04
  -7.00000  4.3226836E-04  4.8190371E-04  4.4085654E-04
  -6.00000  4.6921100E-04  5.2378418E-04  4.7911964E-04
  -5.00000  5.1231984E-04  5.7312476E-04  5.2386406E-04
  -4.00000  5.6323739E-04  6.3206119E-04  5.7684088E-04
  -3.00000  6.2425028E-04  7.0362107E-04  6.4049793E-04
  -2.00000  6.9864789E-04  7.9224488E-04  7.1837395E-04
  -1.00000  7.9136121E-04  9.0472755E-04  8.1580533E-04
   0.00000  9.1018996E-04  1.0520520E-03  9.4129410E-04
   1.00000  1.0684131E-03  1.2533376E-03  1.1094401E-03
   2.00000  1.2912101E-03  1.5456527E-03  1.3481938E-03
   3.00000  1.6353605E-03  2.0143503E-03  1.7211001E-03
   4.00000  2.2754930E-03  2.9266310E-03  2.4234162E-03
   5.00000  3.9581640E-03  5.4257792E-03  4.2911528E-03
   5.20000  4.4974778E-03  6.2242218E-03  4.9103503E-03
   5.40000  5.0577177E-03  7.0482522E-03  5.5791847E-03
   5.60000  5.6228994E-03  7.8815793E-03  6.2882630E-03
   5.80000  6.1939052E-03  8.7353999E-03  7.0410358E-03
   6.00000  6.7789160E-03  9.6289842E-03  7.8417525E-03
   6.20000  7.3889768E-03  1.0580859E-02  8.6893696E-03
   6.40000  8.0371964E-03  1.1607174E-02  9.5761705E-03
   6.60000  8.7384628E-03  1.2722006E-02  1.0488546E-02
   6.80000  9.5083886E-03  1.3938049E-02  1.1409143E-02
   7.00000  1.0361409E-02  1.5267483E-02  1.2320137E-02
   7.20000  1.1308545E-02  1.6722616E-02  1.3207296E-02
   7.40000  1.2355400E-02  1.8315623E-02  1.4064275E-02
   7.60000  1.3500854E-02  2.0056708E-02  1.4896127E-02
   7.80000  1.4737120E-02  2.1950415E-02  1.5720568E-02
   8.00000  1.6051765E-02  2.3990816E-02  1.6565857E-02
   8.20000  1.7431697E-02  2.6158155E-02  1.7465505E-02
   8.40000  1.8867744E-02  2.8420833E-02  1.8451581E-02
   8.60000  2.0357300E-02  3.0744673E-02  1.9548904E-02
   8.80000  2.1902879E-02  3.3105297E-02  2.0771729E-02
   9.00000  2.3506758E-02  3.5495025E-02  2.2123330E-02
   9.20000  2.5164529E-02  3.7919351E-02  2.3597954E-02
   9.40000  2.6860861E-02  4.0384580E-02  2.5183632E-02
   9.60000  2.8568390E-02  4.2879491E-02  2.6864218E-02
   9.80000  3.0248726E-02  4.5358475E-02  2.8620930E-02
   10.0000  3.1856070E-02  4.7736526E-02  3.0434437E-02
   10.2500  3.3692771E-02  5.0386759E-02  3.2753510E-02
   10.5000  3.5270188E-02  5.2435059E-02  3.5098104E-02
   10.7500  3.6546200E-02  5.3645068E-02  3.7426487E-02
   11.0000  3.7516808E-02  5.3866702E-02  3.9679678E-02
   11.2500  3.8211306E-02  5.3079808E-02  4.1775133E-02
   11.5000  3.8677845E-02  5.1400811E-02  4.3608809E-02
   11.7500  3.8968843E-02  4.9047488E-02  4.5069297E-02
   12.0000  3.9132353E-02  4.6279381E-02  4.6064371E-02
   12.2500  3.9209160E-02  4.3340335E-02  4.6548870E-02
   12.5000  3.9232739E-02  4.0421590E-02  4.6537490E-02
   12.7500  3.9229526E-02  3.7650623E-02  4.6097815E-02
   13.0000  3.9218777E-02  3.5098805E-02  4.5330802E-02
   13.2500  3.9212614E-02  3.2796485E-02  4.4348905E-02
   13.5000  3.9216629E-02  3.0747764E-02  4.3258172E-02
   13.7500  3.9230993E-02  2.8941993E-02  4.2146903E-02
   14.0000  3.9251914E-02  2.7361546E-02  4.1081015E-02
   14.2500  3.9273182E-02  2.5986523E-02  4.0104448E-02
   14.5000  3.9287498E-02  2.4797279E-02  3.9242379E-02
   14.7500  3.9287331E-02  2.3775579E-02  3.8505395E-02
   15.0000  3.9265265E-02  2.2904985E-02  3.7893518E-02
   15.2500  3.9213978E-02  2.2170829E-02  3.7399595E-02
   15.5000  3.9126169E-02  2.1560021E-02  3.7011928E-02
   15.7500  3.8994714E-02  2.1060828E-02  3.6716272E-02
   16.0000  3.8813231E-02  2.0662677E-02  3.6497332E-02
   16.2500  3.8577024E-02  2.0356007E-02  3.6339906E-02
   16.5000  3.8284179E-02  2.0132152E-02  3.6229732E-02
   16.7500  3.7936510E-02  1.9983246E-02  3.6154087E-02
   17.0000  3.7540028E-02  1.9902141E-02  3.6102142E-02
   17.2500  3.7104761E-02  1.9882328E-02  3.6065078E-02
   17.5000  3.6643920E-02  1.9917861E-02  3.6035994E-02
   17.7500  3.6172595E-02  2.0003280E-02  3.6009665E-02
   18.0000  3.5706258E-02  2.0133544E-02  3.5982209E-02
   18.2500  3.5259374E-02  2.0303972E-02  3.5950741E-02
   18.5000  3.4844341E-02  2.0510209E-02  3.5913045E-02
   18.7500  3.4470842E-02  2.0748208E-02  3.5867314E-02
   19.0000  3.4145619E-02  2.1014254E-02  3.5811965E-02
   19.2500  3.3872571E-02  2.1305016E-02  3.5745513E-02
   19.5000  3.3653057E-02  2.1617633E-02  3.5666515E-02
   19.7500  3.3486292E-02  2.1949758E-02  3.5573558E-02
   20.0000  3.3369737E-02  2.2299451E-02  3.5465293E-02
   21.0000  3.3314875E-02  2.3836696E-02  3.4855977E-02
   22.0000  3.3645428E-02  2.5536953E-02  3.3924180E-02
   23.0000  3.3948215E-02  2.7374342E-02  3.2661356E-02
   24.0000  3.3823832E-02  2.9268286E-02  3.1141448E-02
   25.0000  3.3049625E-02  3.1020018E-02  2.9512371E-02
   26.0000  3.1688465E-02  3.2435887E-02  2.7918189E-02
   27.0000  3.0013684E-02  3.3390703E-02  2.6478354E-02
   28.0000  2.8326255E-02  3.3861795E-02  2.5280324E-02
   29.0000  2.6828566E-02  3.3920726E-02  2.4365817E-02
   30.0000  2.5599871E-02  3.3680413E-02  2.3728160E-02
   31.0000  2.4629976E-02  3.3245848E-02  2.3322715E-02
   32.0000  2.3865236E-02  3.2692340E-02  2.3082985E-02
   33.0000  2.3242569E-02  3.2066298E-02  2.2934699E-02
   34.0000  2.2707229E-02  3.1395002E-02  2.2804780E-02
   35.0000  2.2220048E-02  3.0697564E-02  2.2628329E-02
   36.0000  2.1759713E-02  2.9993508E-02  2.2357900E-02
   37.0000  2.1322028E-02  2.9306348E-02  2.1976564E-02
   38.0000  2.0916922E-02  2.8663000E-02  2.1510527E-02
   39.0000  2.0563977E-02  2.8095265E-02  2.1029662E-02
   40.0000  2.0285275E-02  2.7644644E-02  2.0622047E-02
