    Energy   (100,001)      (010,001)      (001,110)   
  -25.0000  1.6638667E-04  1.8201445E-04  1.7419184E-04
  -24.0000  1.7255902E-04  1.8893638E-04  1.8065657E-04
  -23.0000  1.7915421E-04  1.9635875E-04  1.8757090E-04
  -22.0000  1.8621543E-04  2.0433643E-04  1.9498186E-04
  -21.0000  1.9379186E-04  2.1293252E-04  2.0294315E-04
  -20.0000  2.0193967E-04  2.2221988E-04  2.1151640E-04
  -19.0000  2.1072335E-04  2.3228314E-04  2.2077264E-04
  -18.0000  2.2021728E-04  2.4322110E-04  2.3079418E-04
  -17.0000  2.3050768E-04  2.5514982E-04  2.4167692E-04
  -16.0000  2.4169505E-04  2.6820653E-04  2.5353323E-04
  -15.0000  2.5389721E-04  2.8255461E-04  2.6649570E-04
  -14.0000  2.6725323E-04  2.9839007E-04  2.8072184E-04
  -13.0000  2.8192836E-04  3.1595005E-04  2.9640021E-04
  -12.0000  2.9812052E-04  3.3552407E-04  3.1375855E-04
  -11.0000  3.1606872E-04  3.5746916E-04  3.3307445E-04
  -10.0000  3.3606439E-04  3.8223058E-04  3.5468990E-04
  -9.00000  3.5846653E-04  4.1037055E-04  3.7903126E-04
  -8.00000  3.8372269E-04  4.4260892E-04  4.0663730E-04
  -7.00000  4.1239819E-04  4.7988205E-04  4.3819935E-04
  -6.00000  4.4521821E-04  5.2343008E-04  4.7462059E-04
  -5.00000  4.8312960E-04  5.7493005E-04  5.1710600E-04
  -4.00000  5.2739473E-04  6.3670586E-04  5.6730409E-04
  -3.00000  5.7973962E-04  7.1207269E-04  6.2754032E-04
  -2.00000  6.4259844E-04  8.0593023E-04  7.0122301E-04
  -1.00000  7.1954226E-04  9.2584780E-04  7.9359963E-04
   0.00000  8.1609124E-04  1.0842103E-03  9.1329775E-04
   1.00000  9.4142725E-04  1.3029315E-03  1.0758654E-03
   2.00000  1.1126084E-03  1.6254690E-03  1.3133935E-03
   3.00000  1.3677207E-03  2.1552238E-03  1.7080356E-03
   4.00000  1.8258271E-03  3.2315653E-03  2.5623819E-03
   5.00000  2.9933750E-03  6.3537541E-03  5.2928981E-03
   5.20000  3.3389898E-03  7.3383093E-03  6.0798248E-03
   5.40000  3.6744446E-03  8.3196746E-03  6.7554095E-03
   5.60000  3.9936656E-03  9.2703602E-03  7.2891785E-03
   5.80000  4.3072286E-03  1.0204131E-02  7.7113051E-03
   6.00000  4.6293288E-03  1.1146330E-02  8.0689837E-03
   6.20000  4.9720089E-03  1.2120688E-02  8.4044000E-03
   6.40000  5.3444830E-03  1.3147520E-02  8.7483240E-03
   6.60000  5.7539254E-03  1.4245200E-02  9.1205464E-03
   6.80000  6.2062340E-03  1.5431806E-02  9.5331308E-03
   7.00000  6.7064461E-03  1.6726049E-02  9.9940413E-03
   7.20000  7.2588621E-03  1.8147185E-02  1.0509771E-02
   7.40000  7.8670088E-03  1.9713929E-02  1.1086626E-02
   7.60000  8.5336106E-03  2.1442911E-02  1.1730910E-02
   7.80000  9.2607022E-03  2.3347298E-02  1.2448399E-02
   8.00000  1.0049914E-02  2.5435800E-02  1.3243450E-02
   8.20000  1.0902939E-02  2.7711963E-02  1.4118068E-02
   8.40000  1.1822182E-02  3.0173543E-02  1.5071240E-02
   8.60000  1.2811462E-02  3.2811498E-02  1.6098802E-02
   8.80000  1.3876453E-02  3.5607929E-02  1.7194061E-02
   9.00000  1.5024444E-02  3.8532523E-02  1.8349067E-02
   9.20000  1.6263175E-02  4.1537800E-02  1.9556121E-02
   9.40000  1.7599086E-02  4.4554319E-02  2.0808779E-02
   9.60000  1.9035659E-02  4.7486984E-02  2.2101730E-02
   9.80000  2.0571887E-02  5.0214246E-02  2.3429920E-02
   10.0000  2.2200411E-02  5.2592937E-02  2.4787969E-02
   10.2500  2.4341141E-02  5.4843915E-02  2.6518689E-02
   10.5000  2.6549593E-02  5.6047567E-02  2.8275246E-02
   10.7500  2.8751500E-02  5.6057693E-02  3.0044352E-02
   11.0000  3.0853581E-02  5.4908707E-02  3.1805510E-02
   11.2500  3.2754017E-02  5.2808416E-02  3.3523976E-02
   11.5000  3.4360307E-02  5.0066507E-02  3.5149582E-02
   11.7500  3.5610469E-02  4.7002036E-02  3.6622584E-02
   12.0000  3.6488892E-02  4.3875463E-02  3.7884848E-02
   12.2500  3.7027567E-02  4.0864339E-02  3.8893736E-02
   12.5000  3.7293919E-02  3.8071315E-02  3.9632899E-02
   12.7500  3.7374299E-02  3.5542914E-02  4.0114823E-02
   13.0000  3.7357414E-02  3.3288340E-02  4.0375785E-02
   13.2500  3.7321122E-02  3.1295167E-02  4.0466720E-02
   13.5000  3.7325602E-02  2.9540624E-02  4.0443188E-02
   13.7500  3.7411329E-02  2.7999149E-02  4.0357217E-02
   14.0000  3.7599997E-02  2.6646883E-02  4.0252363E-02
   14.2500  3.7897924E-02  2.5463362E-02  4.0161635E-02
   14.5000  3.8300290E-02  2.4431509E-02  4.0107307E-02
   14.7500  3.8794546E-02  2.3537088E-02  4.0101718E-02
   15.0000  3.9362634E-02  2.2768100E-02  4.0148464E-02
   15.2500  3.9982347E-02  2.2114246E-02  4.0243713E-02
   15.5000  4.0628271E-02  2.1566478E-02  4.0377575E-02
   15.7500  4.1272639E-02  2.1116649E-02  4.0535533E-02
   16.0000  4.1886350E-02  2.0757250E-02  4.0699977E-02
   16.2500  4.2440295E-02  2.0481242E-02  4.0851843E-02
   16.5000  4.2907005E-02  2.0281951E-02  4.0972280E-02
   16.7500  4.3262515E-02  2.0153031E-02  4.1044249E-02
   17.0000  4.3488195E-02  2.0088468E-02  4.1053891E-02
   17.2500  4.3572268E-02  2.0082610E-02  4.0991531E-02
   17.5000  4.3510737E-02  2.0130220E-02  4.0852217E-02
   17.7500  4.3307533E-02  2.0226507E-02  4.0635742E-02
   18.0000  4.2973873E-02  2.0367165E-02  4.0346210E-02
   18.2500  4.2526929E-02  2.0548377E-02  3.9991238E-02
   18.5000  4.1988056E-02  2.0766812E-02  3.9580949E-02
   18.7500  4.1380845E-02  2.1019615E-02  3.9126881E-02
   19.0000  4.0729242E-02  2.1304392E-02  3.8640949E-02
   19.2500  4.0055912E-02  2.1619207E-02  3.8134522E-02
   19.5000  3.9380965E-02  2.1962577E-02  3.7617682E-02
   19.7500  3.8721176E-02  2.2333406E-02  3.7098753E-02
   20.0000  3.8089921E-02  2.2730763E-02  3.6584272E-02
   21.0000  3.6039887E-02  2.4555387E-02  3.4663492E-02
   22.0000  3.4970853E-02  2.6668031E-02  3.3063491E-02
   23.0000  3.4791372E-02  2.8926695E-02  3.1747673E-02
   24.0000  3.5064967E-02  3.1115736E-02  3.0616224E-02
   25.0000  3.5128322E-02  3.2943269E-02  2.9597249E-02
   26.0000  3.4392587E-02  3.4139382E-02  2.8671328E-02
   27.0000  3.2753818E-02  3.4626767E-02  2.7849763E-02
   28.0000  3.0648125E-02  3.4513091E-02  2.7158945E-02
   29.0000  2.8624857E-02  3.3987408E-02  2.6621691E-02
   30.0000  2.6991454E-02  3.3230169E-02  2.6239990E-02
   31.0000  2.5794600E-02  3.2369986E-02  2.5990832E-02
   32.0000  2.4945820E-02  3.1479949E-02  2.5833096E-02
   33.0000  2.4322312E-02  3.0590896E-02  2.5717373E-02
   34.0000  2.3815832E-02  2.9707334E-02  2.5593481E-02
   35.0000  2.3350286E-02  2.8821579E-02  2.5415231E-02
   36.0000  2.2884759E-02  2.7925590E-02  2.5144764E-02
   37.0000  2.2410065E-02  2.7021544E-02  2.4760278E-02
   38.0000  2.1942304E-02  2.6132394E-02  2.4269810E-02
   39.0000  2.1515031E-02  2.5311731E-02  2.3728640E-02
   40.0000  2.1168310E-02  2.4642027E-02  2.3241291E-02
