    Energy   (100,001)      (010,001)      (001,110)   
  -25.0000  1.6632065E-04  1.8602239E-04  1.7617040E-04
  -24.0000  1.7239378E-04  1.9304156E-04  1.8262356E-04
  -23.0000  1.7887768E-04  2.0056667E-04  1.8952169E-04
  -22.0000  1.8581386E-04  2.0865310E-04  1.9691104E-04
  -21.0000  1.9324952E-04  2.1736457E-04  2.0484441E-04
  -20.0000  2.0123852E-04  2.2677463E-04  2.1338232E-04
  -19.0000  2.0984261E-04  2.3696867E-04  2.2259448E-04
  -18.0000  2.1913291E-04  2.4804640E-04  2.3256159E-04
  -17.0000  2.2919175E-04  2.6012490E-04  2.4337755E-04
  -16.0000  2.4011497E-04  2.7334253E-04  2.5515232E-04
  -15.0000  2.5201473E-04  2.8786401E-04  2.6801541E-04
  -14.0000  2.6502322E-04  3.0388682E-04  2.8212049E-04
  -13.0000  2.7929724E-04  3.2164976E-04  2.9765120E-04
  -12.0000  2.9502422E-04  3.4144418E-04  3.1482883E-04
  -11.0000  3.1243011E-04  3.6362909E-04  3.3392254E-04
  -10.0000  3.3178981E-04  3.8865173E-04  3.5526296E-04
  -9.00000  3.5344123E-04  4.1707614E-04  3.7926086E-04
  -8.00000  3.7780458E-04  4.4962336E-04  4.0643316E-04
  -7.00000  4.0540935E-04  4.8722954E-04  4.3743975E-04
  -6.00000  4.3693279E-04  5.3113149E-04  4.7313722E-04
  -5.00000  4.7325648E-04  5.8299670E-04  5.1465919E-04
  -4.00000  5.1555177E-04  6.4512673E-04  5.6354056E-04
  -3.00000  5.6541395E-04  7.2078832E-04  6.2191775E-04
  -2.00000  6.2508271E-04  8.1477738E-04  6.9286722E-04
  -1.00000  6.9782563E-04  9.3443677E-04  7.8101523E-04
   0.00000  7.8865787E-04  1.0916341E-03  8.9372839E-04
   1.00000  9.0583841E-04  1.3070082E-03  1.0437090E-03
   2.00000  1.0644759E-03  1.6204799E-03  1.2556094E-03
   3.00000  1.2974263E-03  2.1236234E-03  1.5873530E-03
   4.00000  1.7027361E-03  3.1019266E-03  2.2294940E-03
   5.00000  2.6889605E-03  5.7686260E-03  4.0302383E-03
   5.20000  2.9934443E-03  6.6110966E-03  4.5890292E-03
   5.40000  3.3066626E-03  7.4715283E-03  5.1403429E-03
   5.60000  3.6224038E-03  8.3320280E-03  5.6701003E-03
   5.80000  3.9445727E-03  9.2069900E-03  6.1882607E-03
   6.00000  4.2803383E-03  1.0122157E-02  6.7066223E-03
   6.20000  4.6369741E-03  1.1105193E-02  7.2281500E-03
   6.40000  5.0211768E-03  1.2184256E-02  7.7475047E-03
   6.60000  5.4389098E-03  1.3388489E-02  8.2573515E-03
   6.80000  5.8950978E-03  1.4747716E-02  8.7558246E-03
   7.00000  6.3931910E-03  1.6290510E-02  9.2513777E-03
   7.20000  6.9348557E-03  1.8040429E-02  9.7630093E-03
   7.40000  7.5201064E-03  2.0010714E-02  1.0316382E-02
   7.60000  8.1481582E-03  2.2198747E-02  1.0938282E-02
   7.80000  8.8189470E-03  2.4582670E-02  1.1652229E-02
   8.00000  9.5346113E-03  2.7122498E-02  1.2476855E-02
   8.20000  1.0299800E-02  2.9765956E-02  1.3426809E-02
   8.40000  1.1120145E-02  3.2456478E-02  1.4514386E-02
   8.60000  1.1999586E-02  3.5140384E-02  1.5750080E-02
   8.80000  1.2938369E-02  3.7772776E-02  1.7141454E-02
   9.00000  1.3933406E-02  4.0323949E-02  1.8690971E-02
   9.20000  1.4981166E-02  4.2786115E-02  2.0393606E-02
   9.40000  1.6081107E-02  4.5175072E-02  2.2234750E-02
   9.60000  1.7236891E-02  4.7520353E-02  2.4188858E-02
   9.80000  1.8454312E-02  4.9844513E-02  2.6219288E-02
   10.0000  1.9737368E-02  5.2139959E-02  2.8279425E-02
   10.2500  2.1430018E-02  5.4878370E-02  3.0814215E-02
   10.5000  2.3198281E-02  5.7244002E-02  3.3204745E-02
   10.7500  2.4994367E-02  5.8883881E-02  3.5362039E-02
   11.0000  2.6753968E-02  5.9429803E-02  3.7228134E-02
   11.2500  2.8408964E-02  5.8645886E-02  3.8774046E-02
   11.5000  2.9901501E-02  5.6542598E-02  3.9988970E-02
   11.7500  3.1196972E-02  5.3380708E-02  4.0872821E-02
   12.0000  3.2289585E-02  4.9567245E-02  4.1435270E-02
   12.2500  3.3198237E-02  4.5519089E-02  4.1697466E-02
   12.5000  3.3956646E-02  4.1565661E-02  4.1692989E-02
   12.7500  3.4603387E-02  3.7914831E-02  4.1466102E-02
   13.0000  3.5175152E-02  3.4666172E-02  4.1067415E-02
   13.2500  3.5703361E-02  3.1843589E-02  4.0549063E-02
   13.5000  3.6213018E-02  2.9427333E-02  3.9960555E-02
   13.7500  3.6722789E-02  2.7377255E-02  3.9345370E-02
   14.0000  3.7245557E-02  2.5647021E-02  3.8739046E-02
   14.2500  3.7788905E-02  2.4191795E-02  3.8168892E-02
   14.5000  3.8355479E-02  2.2971726E-02  3.7654535E-02
   14.7500  3.8943524E-02  2.1952926E-02  3.7208765E-02
   15.0000  3.9547440E-02  2.1107150E-02  3.6838390E-02
   15.2500  4.0158191E-02  2.0411015E-02  3.6544918E-02
   15.5000  4.0763606E-02  1.9845120E-02  3.6325103E-02
   15.7500  4.1348718E-02  1.9393252E-02  3.6171432E-02
   16.0000  4.1896276E-02  1.9041733E-02  3.6072721E-02
   16.2500  4.2387529E-02  1.8778923E-02  3.6014918E-02
   16.5000  4.2803321E-02  1.8594868E-02  3.5982182E-02
   16.7500  4.3125452E-02  1.8481048E-02  3.5958185E-02
   17.0000  4.3338246E-02  1.8430204E-02  3.5927507E-02
   17.2500  4.3430117E-02  1.8436196E-02  3.5876949E-02
   17.5000  4.3394959E-02  1.8493877E-02  3.5796560E-02
   17.7500  4.3233094E-02  1.8598976E-02  3.5680245E-02
   18.0000  4.2951599E-02  1.8747978E-02  3.5525879E-02
   18.2500  4.2563904E-02  1.8938009E-02  3.5334975E-02
   18.5000  4.2088696E-02  1.9166726E-02  3.5112006E-02
   18.7500  4.1548250E-02  1.9432234E-02  3.4863524E-02
   19.0000  4.0966451E-02  1.9733005E-02  3.4597229E-02
   19.2500  4.0366759E-02  2.0067847E-02  3.4321087E-02
   19.5000  3.9770377E-02  2.0435868E-02  3.4042580E-02
   19.7500  3.9194898E-02  2.0836398E-02  3.3768169E-02
   20.0000  3.8653725E-02  2.1268748E-02  3.3503066E-02
   21.0000  3.6981330E-02  2.3284776E-02  3.2605558E-02
   22.0000  3.6132334E-02  2.5658421E-02  3.2023419E-02
   23.0000  3.5755553E-02  2.8231711E-02  3.1667375E-02
   24.0000  3.5353402E-02  3.0782161E-02  3.1375856E-02
   25.0000  3.4571189E-02  3.3002317E-02  3.1016926E-02
   26.0000  3.3352711E-02  3.4574398E-02  3.0537001E-02
   27.0000  3.1870165E-02  3.5356260E-02  2.9955011E-02
   28.0000  3.0365849E-02  3.5405972E-02  2.9339741E-02
   29.0000  2.9017127E-02  3.4903956E-02  2.8770733E-02
   30.0000  2.7893961E-02  3.4060262E-02  2.8301805E-02
   31.0000  2.6986552E-02  3.3048942E-02  2.7945723E-02
   32.0000  2.6246436E-02  3.1986123E-02  2.7677849E-02
   33.0000  2.5616234E-02  3.0936769E-02  2.7450070E-02
   34.0000  2.5045105E-02  2.9931656E-02  2.7207174E-02
   35.0000  2.4494441E-02  2.8984168E-02  2.6900478E-02
   36.0000  2.3940554E-02  2.8101794E-02  2.6497653E-02
   37.0000  2.3378089E-02  2.7291135E-02  2.5989765E-02
   38.0000  2.2823382E-02  2.6560296E-02  2.5398170E-02
   39.0000  2.2314421E-02  2.5926054E-02  2.4784008E-02
   40.0000  2.1901323E-02  2.5422949E-02  2.4248643E-02
