    Energy   (100,001)      (010,001)      (001,110)   
  -25.0000  1.6236369E-04  1.8683756E-04  1.7650245E-04
  -24.0000  1.6832468E-04  1.9393126E-04  1.8286038E-04
  -23.0000  1.7468740E-04  2.0153972E-04  1.8964965E-04
  -22.0000  1.8149210E-04  2.0971969E-04  1.9691436E-04
  -21.0000  1.8878450E-04  2.1853643E-04  2.0470471E-04
  -20.0000  1.9661668E-04  2.2806539E-04  2.1307816E-04
  -19.0000  2.0504829E-04  2.3839423E-04  2.2210069E-04
  -18.0000  2.1414792E-04  2.4962539E-04  2.3184849E-04
  -17.0000  2.2399483E-04  2.6187926E-04  2.4240997E-04
  -16.0000  2.3468110E-04  2.7529832E-04  2.5388832E-04
  -15.0000  2.4631433E-04  2.9005227E-04  2.6640470E-04
  -14.0000  2.5902102E-04  3.0634491E-04  2.8010232E-04
  -13.0000  2.7295092E-04  3.2442293E-04  2.9515168E-04
  -12.0000  2.8828260E-04  3.4458772E-04  3.1175735E-04
  -11.0000  3.0523079E-04  3.6721120E-04  3.3016700E-04
  -10.0000  3.2405601E-04  3.9275745E-04  3.5068333E-04
  -9.00000  3.4507760E-04  4.2181273E-04  3.7368034E-04
  -8.00000  3.6869144E-04  4.5512798E-04  3.9962581E-04
  -7.00000  3.9539478E-04  4.9368017E-04  4.2911303E-04
  -6.00000  4.2582152E-04  5.3876318E-04  4.6290651E-04
  -5.00000  4.6079402E-04  5.9212608E-04  5.0201015E-04
  -4.00000  5.0140128E-04  6.5619053E-04  5.4777178E-04
  -3.00000  5.4912190E-04  7.3440597E-04  6.0205073E-04
  -2.00000  6.0602649E-04  8.3185796E-04  6.6750031E-04
  -1.00000  6.7513215E-04  9.5637247E-04  7.4807665E-04
   0.00000  7.6107448E-04  1.1206776E-03  8.5003882E-04
   1.00000  8.7152920E-04  1.3470860E-03  9.8416524E-04
   2.00000  1.0207314E-03  1.6792114E-03  1.1715807E-03
   3.00000  1.2405360E-03  2.2185018E-03  1.4635196E-03
   4.00000  1.6310541E-03  3.2867407E-03  2.0400560E-03
   5.00000  2.6257404E-03  6.2779910E-03  3.7399427E-03
   5.20000  2.9271925E-03  7.2372398E-03  4.2390001E-03
   5.40000  3.2248383E-03  8.2203592E-03  4.6773776E-03
   5.60000  3.5100001E-03  9.2001079E-03  5.0207627E-03
   5.80000  3.7864448E-03  1.0182234E-02  5.2715714E-03
   6.00000  4.0614328E-03  1.1184756E-02  5.4534675E-03
   6.20000  4.3418080E-03  1.2229128E-02  5.5994533E-03
   6.40000  4.6335619E-03  1.3338013E-02  5.7423823E-03
   6.60000  4.9422228E-03  1.4534182E-02  5.9089560E-03
   6.80000  5.2731147E-03  1.5840244E-02  6.1185997E-03
   7.00000  5.6314380E-03  1.7279556E-02  6.3853977E-03
   7.20000  6.0223009E-03  1.8877497E-02  6.7205107E-03
   7.40000  6.4507583E-03  2.0661851E-02  7.1338903E-03
   7.60000  6.9218570E-03  2.2661629E-02  7.6353252E-03
   7.80000  7.4406508E-03  2.4904318E-02  8.2351386E-03
   8.00000  8.0121187E-03  2.7411777E-02  8.9446282E-03
   8.20000  8.6409276E-03  3.0194967E-02  9.7760971E-03
   8.40000  9.3310077E-03  3.3247811E-02  1.0742252E-02
   8.60000  1.0085000E-02  3.6541211E-02  1.1854835E-02
   8.80000  1.0903803E-02  4.0019261E-02  1.3122596E-02
   9.00000  1.1786625E-02  4.3599761E-02  1.4549147E-02
   9.20000  1.2731880E-02  4.7178924E-02  1.6131547E-02
   9.40000  1.3738711E-02  5.0636861E-02  1.7860159E-02
   9.60000  1.4808153E-02  5.3840445E-02  1.9719412E-02
   9.80000  1.5942781E-02  5.6644663E-02  2.1688625E-02
   10.0000  1.7144551E-02  5.8897888E-02  2.3742367E-02
   10.2500  1.8737975E-02  6.0723221E-02  2.6382152E-02
   10.5000  2.0416269E-02  6.1262114E-02  2.9039841E-02
   10.7500  2.2147265E-02  6.0463034E-02  3.1644711E-02
   11.0000  2.3887652E-02  5.8454144E-02  3.4126698E-02
   11.2500  2.5587620E-02  5.5509544E-02  3.6418751E-02
   11.5000  2.7195508E-02  5.1972659E-02  3.8457357E-02
   11.7500  2.8665343E-02  4.8172898E-02  4.0183695E-02
   12.0000  2.9965528E-02  4.4375072E-02  4.1550356E-02
   12.2500  3.1084810E-02  4.0766861E-02  4.2531316E-02
   12.5000  3.2032580E-02  3.7462750E-02  4.3126963E-02
   12.7500  3.2834736E-02  3.4515804E-02  4.3362942E-02
   13.0000  3.3527331E-02  3.1935022E-02  4.3285571E-02
   13.2500  3.4149663E-02  2.9702653E-02  4.2955446E-02
   13.5000  3.4738621E-02  2.7787628E-02  4.2440444E-02
   13.7500  3.5325264E-02  2.6154350E-02  4.1809265E-02
   14.0000  3.5933219E-02  2.4767741E-02  4.1125946E-02
   14.2500  3.6578039E-02  2.3595745E-02  4.0445295E-02
   14.5000  3.7267183E-02  2.2610268E-02  3.9809875E-02
   14.7500  3.8000663E-02  2.1787255E-02  3.9249284E-02
   15.0000  3.8772039E-02  2.1106346E-02  3.8781154E-02
   15.2500  3.9569386E-02  2.0550396E-02  3.8412840E-02
   15.5000  4.0376215E-02  2.0104996E-02  3.8143226E-02
   15.7500  4.1172420E-02  1.9758038E-02  3.7964470E-02
   16.0000  4.1935361E-02  1.9499336E-02  3.7863650E-02
   16.2500  4.2641171E-02  1.9320294E-02  3.7824338E-02
   16.5000  4.3266301E-02  1.9213629E-02  3.7828109E-02
   16.7500  4.3789308E-02  1.9173120E-02  3.7855985E-02
   17.0000  4.4192737E-02  1.9193396E-02  3.7889790E-02
   17.2500  4.4464892E-02  1.9269763E-02  3.7913330E-02
   17.5000  4.4601217E-02  1.9398047E-02  3.7913298E-02
   17.7500  4.4605005E-02  1.9574478E-02  3.7879853E-02
   18.0000  4.4487267E-02  1.9795590E-02  3.7806812E-02
   18.2500  4.4265694E-02  2.0058152E-02  3.7691499E-02
   18.5000  4.3962889E-02  2.0359122E-02  3.7534306E-02
   18.7500  4.3604129E-02  2.0695623E-02  3.7338067E-02
   19.0000  4.3215012E-02  2.1064957E-02  3.7107340E-02
   19.2500  4.2819311E-02  2.1464641E-02  3.6847666E-02
   19.5000  4.2437269E-02  2.1892466E-02  3.6564890E-02
   19.7500  4.2084480E-02  2.2346482E-02  3.6264625E-02
   20.0000  4.1771512E-02  2.2824779E-02  3.5952002E-02
   21.0000  4.0985110E-02  2.4924614E-02  3.4668045E-02
   22.0000  4.0775955E-02  2.7167411E-02  3.3466642E-02
   23.0000  4.0586621E-02  2.9342109E-02  3.2387274E-02
   24.0000  3.9807831E-02  3.1218014E-02  3.1397811E-02
   25.0000  3.8101669E-02  3.2586611E-02  3.0465360E-02
   26.0000  3.5609615E-02  3.3328207E-02  2.9586659E-02
   27.0000  3.2856655E-02  3.3460541E-02  2.8795959E-02
   28.0000  3.0327571E-02  3.3126532E-02  2.8135619E-02
   29.0000  2.8269323E-02  3.2508089E-02  2.7641391E-02
   30.0000  2.6721185E-02  3.1756499E-02  2.7326536E-02
   31.0000  2.5607504E-02  3.0973308E-02  2.7169738E-02
   32.0000  2.4813191E-02  3.0216050E-02  2.7120172E-02
   33.0000  2.4223327E-02  2.9507746E-02  2.7112907E-02
   34.0000  2.3739914E-02  2.8847203E-02  2.7083501E-02
   35.0000  2.3287940E-02  2.8220745E-02  2.6976726E-02
   36.0000  2.2817883E-02  2.7612193E-02  2.6751548E-02
   37.0000  2.2308008E-02  2.7009124E-02  2.6387645E-02
   38.0000  2.1767167E-02  2.6410203E-02  2.5896978E-02
   39.0000  2.1237480E-02  2.5840144E-02  2.5340337E-02
   40.0000  2.0787521E-02  2.5360425E-02  2.4832242E-02
