    Energy   (100,001)      (010,001)      (001,110)   
  -25.0000  1.7109973E-04  1.8533959E-04  1.6380565E-04
  -24.0000  1.7750366E-04  1.9224737E-04  1.7008535E-04
  -23.0000  1.8435450E-04  1.9964839E-04  1.7680718E-04
  -22.0000  1.9169898E-04  2.0759625E-04  1.8401736E-04
  -21.0000  1.9959044E-04  2.1615254E-04  1.9176868E-04
  -20.0000  2.0809007E-04  2.2538832E-04  2.0012159E-04
  -19.0000  2.1726833E-04  2.3538600E-04  2.0914569E-04
  -18.0000  2.2720682E-04  2.4624173E-04  2.1892149E-04
  -17.0000  2.3800051E-04  2.5806828E-04  2.2954257E-04
  -16.0000  2.4976055E-04  2.7099885E-04  2.4111840E-04
  -15.0000  2.6261791E-04  2.8519176E-04  2.5377770E-04
  -14.0000  2.7672790E-04  3.0083669E-04  2.6767294E-04
  -13.0000  2.9227607E-04  3.1816275E-04  2.8298594E-04
  -12.0000  3.0948596E-04  3.3744910E-04  2.9993527E-04
  -11.0000  3.2862919E-04  3.5903937E-04  3.1878590E-04
  -10.0000  3.5003917E-04  3.8336111E-04  3.3986221E-04
  -9.00000  3.7412962E-04  4.1095281E-04  3.6356543E-04
  -8.00000  4.0142035E-04  4.4250202E-04  3.9039783E-04
  -7.00000  4.3257366E-04  4.7890019E-04  4.2099664E-04
  -6.00000  4.6844701E-04  5.2132360E-04  4.5618274E-04
  -5.00000  5.1017141E-04  5.7135601E-04  4.9703239E-04
  -4.00000  5.5927160E-04  6.3118079E-04  5.4498618E-04
  -3.00000  6.1785769E-04  7.0389358E-04  6.0202049E-04
  -2.00000  6.8894519E-04  7.9403542E-04  6.7092969E-04
  -1.00000  7.7702191E-04  9.0855672E-04  7.5581750E-04
   0.00000  8.8913214E-04  1.0586973E-03  8.6301805E-04
   1.00000  1.0371783E-03  1.2640477E-03  1.0030077E-03
   2.00000  1.2435923E-03  1.5627039E-03  1.1950057E-03
   3.00000  1.5588701E-03  2.0430349E-03  1.4809111E-03
   4.00000  2.1394552E-03  2.9863284E-03  1.9866110E-03
   5.00000  3.6613888E-03  5.6093266E-03  3.2376566E-03
   5.20000  4.1463157E-03  6.4327481E-03  3.6190079E-03
   5.40000  4.6456987E-03  7.2597217E-03  4.0045284E-03
   5.60000  5.1431537E-03  8.0679090E-03  4.3854008E-03
   5.80000  5.6372666E-03  8.8685562E-03  4.7650794E-03
   6.00000  6.1320987E-03  9.6841519E-03  5.1494857E-03
   6.20000  6.6328059E-03  1.0538098E-02  5.5440968E-03
   6.40000  7.1451892E-03  1.1452808E-02  5.9552589E-03
   6.60000  7.6762894E-03  1.2450258E-02  6.3918116E-03
   6.80000  8.2348588E-03  1.3552910E-02  6.8654624E-03
   7.00000  8.8315321E-03  1.4784408E-02  7.3901607E-03
   7.20000  9.4787586E-03  1.6169614E-02  7.9813275E-03
   7.40000  1.0190547E-02  1.7733688E-02  8.6554077E-03
   7.60000  1.0982058E-02  1.9500196E-02  9.4296557E-03
   7.80000  1.1869088E-02  2.1488250E-02  1.0321866E-02
   8.00000  1.2867419E-02  2.3708707E-02  1.1349867E-02
   8.20000  1.3991932E-02  2.6159789E-02  1.2530796E-02
   8.40000  1.5255368E-02  2.8823722E-02  1.3880215E-02
   8.60000  1.6666827E-02  3.1667123E-02  1.5411035E-02
   8.80000  1.8230318E-02  3.4646900E-02  1.7132124E-02
   9.00000  1.9943715E-02  3.7719179E-02  1.9046535E-02
   9.20000  2.1798325E-02  4.0844471E-02  2.1149083E-02
   9.40000  2.3778645E-02  4.3982711E-02  2.3423099E-02
   9.60000  2.5861095E-02  4.7077871E-02  2.5836861E-02
   9.80000  2.8011682E-02  5.0040087E-02  2.8341030E-02
   10.0000  3.0184379E-02  5.2737001E-02  3.0868376E-02
   10.2500  3.2842737E-02  5.5479470E-02  3.3933892E-02
   10.5000  3.5317068E-02  5.7212419E-02  3.6731878E-02
   10.7500  3.7482518E-02  5.7700628E-02  3.9105107E-02
   11.0000  3.9240576E-02  5.6900664E-02  4.0947222E-02
   11.2500  4.0534596E-02  5.4974204E-02  4.2218572E-02
   11.5000  4.1355684E-02  5.2220054E-02  4.2940990E-02
   11.7500  4.1740577E-02  4.8975469E-02  4.3179919E-02
   12.0000  4.1761671E-02  4.5537759E-02  4.3024106E-02
   12.2500  4.1511603E-02  4.2127416E-02  4.2569982E-02
   12.5000  4.1087420E-02  3.8886798E-02  4.1912593E-02
   12.7500  4.0578221E-02  3.5897156E-02  4.1140492E-02
   13.0000  4.0058014E-02  3.3198753E-02  4.0332384E-02
   13.2500  3.9583240E-02  3.0806075E-02  3.9554105E-02
   13.5000  3.9193141E-02  2.8717043E-02  3.8855294E-02
   13.7500  3.8911822E-02  2.6918270E-02  3.8268584E-02
   14.0000  3.8750944E-02  2.5388780E-02  3.7812730E-02
   14.2500  3.8711974E-02  2.4103296E-02  3.7496936E-02
   14.5000  3.8787707E-02  2.3035047E-02  3.7323862E-02
   14.7500  3.8963245E-02  2.2157868E-02  3.7291022E-02
   15.0000  3.9216782E-02  2.1447552E-02  3.7391098E-02
   15.2500  3.9520460E-02  2.0882540E-02  3.7611736E-02
   15.5000  3.9841526E-02  2.0444130E-02  3.7935273E-02
   15.7500  4.0144003E-02  2.0116378E-02  3.8338757E-02
   16.0000  4.0390952E-02  1.9885830E-02  3.8794536E-02
   16.2500  4.0547276E-02  1.9741189E-02  3.9271556E-02
   16.5000  4.0582812E-02  1.9672951E-02  3.9737368E-02
   16.7500  4.0475274E-02  1.9673062E-02  4.0160611E-02
   17.0000  4.0212552E-02  1.9734590E-02  4.0513653E-02
   17.2500  3.9793890E-02  1.9851433E-02  4.0774904E-02
   17.5000  3.9229701E-02  2.0018094E-02  4.0930420E-02
   17.7500  3.8540054E-02  2.0229497E-02  4.0974506E-02
   18.0000  3.7752143E-02  2.0480892E-02  4.0909286E-02
   18.2500  3.6897237E-02  2.0767800E-02  4.0743392E-02
   18.5000  3.6007644E-02  2.1086025E-02  4.0490123E-02
   18.7500  3.5114090E-02  2.1431685E-02  4.0165399E-02
   19.0000  3.4243758E-02  2.1801286E-02  3.9785866E-02
   19.2500  3.3419038E-02  2.2191795E-02  3.9367316E-02
   19.5000  3.2656917E-02  2.2600720E-02  3.8923548E-02
   19.7500  3.1968936E-02  2.3026102E-02  3.8465723E-02
   20.0000  3.1361741E-02  2.3466307E-02  3.8002320E-02
   21.0000  2.9766867E-02  2.5334516E-02  3.6199122E-02
   22.0000  2.9369349E-02  2.7274997E-02  3.4570766E-02
   23.0000  2.9783493E-02  2.9179517E-02  3.3067883E-02
   24.0000  3.0554076E-02  3.0919139E-02  3.1615005E-02
   25.0000  3.1242033E-02  3.2326741E-02  3.0194520E-02
   26.0000  3.1492457E-02  3.3289230E-02  2.8828482E-02
   27.0000  3.1154797E-02  3.3763063E-02  2.7573911E-02
   28.0000  3.0330465E-02  3.3777759E-02  2.6499976E-02
   29.0000  2.9264273E-02  3.3426865E-02  2.5646584E-02
   30.0000  2.8180783E-02  3.2831744E-02  2.5002789E-02
   31.0000  2.7202773E-02  3.2103059E-02  2.4515781E-02
   32.0000  2.6361750E-02  3.1318744E-02  2.4114637E-02
   33.0000  2.5639229E-02  3.0522434E-02  2.3731562E-02
   34.0000  2.4999850E-02  2.9734106E-02  2.3313653E-02
   35.0000  2.4410280E-02  2.8962850E-02  2.2827660E-02
   36.0000  2.3849428E-02  2.8216201E-02  2.2263352E-02
   37.0000  2.3313888E-02  2.7504785E-02  2.1637178E-02
   38.0000  2.2818408E-02  2.6844623E-02  2.0993373E-02
   39.0000  2.2390353E-02  2.6261924E-02  2.0398008E-02
   40.0000  2.2057676E-02  2.5797536E-02  1.9919849E-02
