    Energy   (100,001)      (010,001)      (001,110)   
  -25.0000  1.6547334E-04  1.8730510E-04  1.7350379E-04
  -24.0000  1.7160927E-04  1.9427389E-04  1.7990321E-04
  -23.0000  1.7816556E-04  2.0173866E-04  1.8674430E-04
  -22.0000  1.8518520E-04  2.0975312E-04  1.9407286E-04
  -21.0000  1.9271713E-04  2.1837892E-04  2.0194113E-04
  -20.0000  2.0081731E-04  2.2768718E-04  2.1040898E-04
  -19.0000  2.0954999E-04  2.3776034E-04  2.1954531E-04
  -18.0000  2.1898934E-04  2.4869448E-04  2.2942985E-04
  -17.0000  2.2922136E-04  2.6060224E-04  2.4015531E-04
  -16.0000  2.4034639E-04  2.7361654E-04  2.5183015E-04
  -15.0000  2.5248218E-04  2.8789527E-04  2.6458205E-04
  -14.0000  2.6576782E-04  3.0362737E-04  2.7856235E-04
  -13.0000  2.8036883E-04  3.2104084E-04  2.9395175E-04
  -12.0000  2.9648370E-04  3.4041319E-04  3.1096783E-04
  -11.0000  3.1435259E-04  3.6208553E-04  3.2987495E-04
  -10.0000  3.3426890E-04  3.8648170E-04  3.5099752E-04
  -9.00000  3.5659495E-04  4.1413463E-04  3.7473821E-04
  -8.00000  3.8178373E-04  4.4572356E-04  4.0160321E-04
  -7.00000  4.1040951E-04  4.8212727E-04  4.3223817E-04
  -6.00000  4.4321203E-04  5.2450259E-04  4.6748048E-04
  -5.00000  4.8116216E-04  5.7440285E-04  5.0843773E-04
  -4.00000  5.2556250E-04  6.3396274E-04  5.5660933E-04
  -3.00000  5.7820782E-04  7.0619786E-04  6.1408313E-04
  -2.00000  6.4165338E-04  7.9551325E-04  6.8386999E-04
  -1.00000  7.1969179E-04  9.0861844E-04  7.7051122E-04
   0.00000  8.1826971E-04  1.0563032E-03  8.8127907E-04
   1.00000  9.4744769E-04  1.2572555E-03  1.0288378E-03
   2.00000  1.1262737E-03  1.5475723E-03  1.2381838E-03
   3.00000  1.3980131E-03  2.0104526E-03  1.5697141E-03
   4.00000  1.8985793E-03  2.9096327E-03  2.2308251E-03
   5.00000  3.2146073E-03  5.3834637E-03  4.1641801E-03
   5.20000  3.6261993E-03  6.1558261E-03  4.7463315E-03
   5.40000  4.0452374E-03  6.9292836E-03  5.2924929E-03
   5.60000  4.4626572E-03  7.6830079E-03  5.7835800E-03
   5.80000  4.8837425E-03  8.4279348E-03  6.2318907E-03
   6.00000  5.3170595E-03  9.1854074E-03  6.6570346E-03
   6.20000  5.7697452E-03  9.9772678E-03  7.0750967E-03
   6.40000  6.2470597E-03  1.0823757E-02  7.4965811E-03
   6.60000  6.7530331E-03  1.1743378E-02  7.9268837E-03
   6.80000  7.2910095E-03  1.2752803E-02  8.3675003E-03
   7.00000  7.8637649E-03  1.3866877E-02  8.8182417E-03
   7.20000  8.4732255E-03  1.5099209E-02  9.2808412E-03
   7.40000  9.1200803E-03  1.6463586E-02  9.7631262E-03
   7.60000  9.8036940E-03  1.7975717E-02  1.0281478E-02
   7.80000  1.0522579E-02  1.9654347E-02  1.0859606E-02
   8.00000  1.1275402E-02  2.1521368E-02  1.1524106E-02
   8.20000  1.2062181E-02  2.3601190E-02  1.2299305E-02
   8.40000  1.2885228E-02  2.5919499E-02  1.3203613E-02
   8.60000  1.3749687E-02  2.8501170E-02  1.4247950E-02
   8.80000  1.4663620E-02  3.1367102E-02  1.5435665E-02
   9.00000  1.5637465E-02  3.4529521E-02  1.6763322E-02
   9.20000  1.6682670E-02  3.7984992E-02  1.8222255E-02
   9.40000  1.7809423E-02  4.1704773E-02  1.9800988E-02
   9.60000  1.9023947E-02  4.5623151E-02  2.1487763E-02
   9.80000  2.0326154E-02  4.9625787E-02  2.3271659E-02
   10.0000  2.1708037E-02  5.3541321E-02  2.5141444E-02
   10.2500  2.3520873E-02  5.7961254E-02  2.7576756E-02
   10.5000  2.5379486E-02  6.1363042E-02  3.0080210E-02
   10.7500  2.7217338E-02  6.3258930E-02  3.2588713E-02
   11.0000  2.8962417E-02  6.3362548E-02  3.5019370E-02
   11.2500  3.0544655E-02  6.1707699E-02  3.7275565E-02
   11.5000  3.1902648E-02  5.8637460E-02  3.9256955E-02
   11.7500  3.2993245E-02  5.4668668E-02  4.0871835E-02
   12.0000  3.3800316E-02  5.0321461E-02  4.2051400E-02
   12.2500  3.4337861E-02  4.6002731E-02  4.2763038E-02
   12.5000  3.4645853E-02  4.1970027E-02  4.3017547E-02
   12.7500  3.4780813E-02  3.8351046E-02  4.2866809E-02
   13.0000  3.4805030E-02  3.5183233E-02  4.2393126E-02
   13.2500  3.4777233E-02  3.2451511E-02  4.1694295E-02
   13.5000  3.4745823E-02  3.0116226E-02  4.0868130E-02
   13.7500  3.4745893E-02  2.8130152E-02  4.0000170E-02
   14.0000  3.4800256E-02  2.6446838E-02  3.9157707E-02
   14.2500  3.4922285E-02  2.5023974E-02  3.8389296E-02
   14.5000  3.5118484E-02  2.3824532E-02  3.7726989E-02
   14.7500  3.5390253E-02  2.2816889E-02  3.7189364E-02
   15.0000  3.5734982E-02  2.1974440E-02  3.6784394E-02
   15.2500  3.6146718E-02  2.1274995E-02  3.6511832E-02
   15.5000  3.6616557E-02  2.0700094E-02  3.6365002E-02
   15.7500  3.7132926E-02  2.0234366E-02  3.6332100E-02
   16.0000  3.7681866E-02  1.9864959E-02  3.6397193E-02
   16.2500  3.8247432E-02  1.9581067E-02  3.6541093E-02
   16.5000  3.8812298E-02  1.9373534E-02  3.6742298E-02
   16.7500  3.9358617E-02  1.9234547E-02  3.6978077E-02
   17.0000  3.9869140E-02  1.9157381E-02  3.7225738E-02
   17.2500  4.0328509E-02  1.9136201E-02  3.7463991E-02
   17.5000  4.0724583E-02  1.9165909E-02  3.7674272E-02
   17.7500  4.1049572E-02  1.9242020E-02  3.7841825E-02
   18.0000  4.1300750E-02  1.9360574E-02  3.7956387E-02
   18.2500  4.1480568E-02  1.9518065E-02  3.8012380E-02
   18.5000  4.1596121E-02  1.9711398E-02  3.8008592E-02
   18.7500  4.1658050E-02  1.9937854E-02  3.7947471E-02
   19.0000  4.1679072E-02  2.0195086E-02  3.7834150E-02
   19.2500  4.1672411E-02  2.0481126E-02  3.7675391E-02
   19.5000  4.1650342E-02  2.0794404E-02  3.7478588E-02
   19.7500  4.1623046E-02  2.1133716E-02  3.7250983E-02
   20.0000  4.1597867E-02  2.1498052E-02  3.6999242E-02
   21.0000  4.1563274E-02  2.3177673E-02  3.5864567E-02
   22.0000  4.1481810E-02  2.5145639E-02  3.4699531E-02
   23.0000  4.0910978E-02  2.7325755E-02  3.3579081E-02
   24.0000  3.9468166E-02  2.9616309E-02  3.2487072E-02
   25.0000  3.7097572E-02  3.1850981E-02  3.1383652E-02
   26.0000  3.4148449E-02  3.3774405E-02  3.0255290E-02
   27.0000  3.1202962E-02  3.5118191E-02  2.9149891E-02
   28.0000  2.8676365E-02  3.5778334E-02  2.8150520E-02
   29.0000  2.6718669E-02  3.5823303E-02  2.7345012E-02
   30.0000  2.5300791E-02  3.5414121E-02  2.6782637E-02
   31.0000  2.4314317E-02  3.4725227E-02  2.6448085E-02
   32.0000  2.3639712E-02  3.3891785E-02  2.6274129E-02
   33.0000  2.3174334E-02  3.2994432E-02  2.6172091E-02
   34.0000  2.2836892E-02  3.2068723E-02  2.6057695E-02
   35.0000  2.2563462E-02  3.1123095E-02  2.5864516E-02
   36.0000  2.2303289E-02  3.0156469E-02  2.5549340E-02
   37.0000  2.2018651E-02  2.9173489E-02  2.5096832E-02
   38.0000  2.1691479E-02  2.8198754E-02  2.4528170E-02
   39.0000  2.1337013E-02  2.7291481E-02  2.3912769E-02
   40.0000  2.1011608E-02  2.6547524E-02  2.3366197E-02
