    Energy   (100,001)      (010,001)      (001,110)   
  -25.0000  1.7430758E-04  1.8039767E-04  1.8578961E-04
  -24.0000  1.8047216E-04  1.8741163E-04  1.9238632E-04
  -23.0000  1.8704739E-04  1.9494050E-04  1.9943179E-04
  -22.0000  1.9407463E-04  2.0304140E-04  2.0697262E-04
  -21.0000  2.0160092E-04  2.1178001E-04  2.1506204E-04
  -20.0000  2.0967997E-04  2.2123233E-04  2.2376115E-04
  -19.0000  2.1837345E-04  2.3148669E-04  2.3314045E-04
  -18.0000  2.2775245E-04  2.4264638E-04  2.4328166E-04
  -17.0000  2.3789938E-04  2.5483286E-04  2.5428014E-04
  -16.0000  2.4891032E-04  2.6818993E-04  2.6624777E-04
  -15.0000  2.6089798E-04  2.8288904E-04  2.7931679E-04
  -14.0000  2.7399549E-04  2.9913618E-04  2.9364462E-04
  -13.0000  2.8836121E-04  3.1718093E-04  3.0942023E-04
  -12.0000  3.0418512E-04  3.3732843E-04  3.2687250E-04
  -11.0000  3.2169715E-04  3.5995563E-04  3.4628145E-04
  -10.0000  3.4117841E-04  3.8553337E-04  3.6799359E-04
  -9.00000  3.6297642E-04  4.1465719E-04  3.9244308E-04
  -8.00000  3.8752637E-04  4.4809091E-04  4.2018188E-04
  -7.00000  4.1538112E-04  4.8682987E-04  4.5192331E-04
  -6.00000  4.4725499E-04  5.3219464E-04  4.8860699E-04
  -5.00000  4.8408909E-04  5.8597412E-04  5.3149871E-04
  -4.00000  5.2715268E-04  6.5065113E-04  5.8234952E-04
  -3.00000  5.7820644E-04  7.2977234E-04  6.4366112E-04
  -2.00000  6.3977984E-04  8.2858419E-04  7.1915235E-04
  -1.00000  7.1567257E-04  9.5519216E-04  8.1463618E-04
   0.00000  8.1193976E-04  1.1228403E-03  9.3981460E-04
   1.00000  9.3905555E-04  1.3548725E-03  1.1123889E-03
   2.00000  1.1174730E-03  1.6972081E-03  1.3690580E-03
   3.00000  1.3957065E-03  2.2574363E-03  1.8025351E-03
   4.00000  1.9353262E-03  3.3796764E-03  2.7393115E-03
   5.00000  3.4624579E-03  6.5526575E-03  5.7069467E-03
   5.20000  3.9361021E-03  7.5584667E-03  6.6659495E-03
   5.40000  4.3984563E-03  8.5784516E-03  7.6110779E-03
   5.60000  4.8307496E-03  9.5906626E-03  8.5001269E-03
   5.80000  5.2346966E-03  1.0613383E-02  9.3346971E-03
   6.00000  5.6201253E-03  1.1677255E-02  1.0130640E-02
   6.20000  6.0003029E-03  1.2812155E-02  1.0898133E-02
   6.40000  6.3909256E-03  1.4044107E-02  1.1635751E-02
   6.60000  6.8088142E-03  1.5394831E-02  1.2339246E-02
   6.80000  7.2699140E-03  1.6881795E-02  1.3018339E-02
   7.00000  7.7874246E-03  1.8519136E-02  1.3705538E-02
   7.20000  8.3707051E-03  2.0319595E-02  1.4446452E-02
   7.40000  9.0249423E-03  2.2296716E-02  1.5277777E-02
   7.60000  9.7511338E-03  2.4466588E-02  1.6207255E-02
   7.80000  1.0545845E-02  2.6848590E-02  1.7204282E-02
   8.00000  1.1400393E-02  2.9464108E-02  1.8202608E-02
   8.20000  1.2299826E-02  3.2331848E-02  1.9114599E-02
   8.40000  1.3223183E-02  3.5458339E-02  1.9855245E-02
   8.60000  1.4146664E-02  3.8823947E-02  2.0369287E-02
   8.80000  1.5049547E-02  4.2368497E-02  2.0649649E-02
   9.00000  1.5919885E-02  4.5982319E-02  2.0737060E-02
   9.20000  1.6756430E-02  4.9506763E-02  2.0701697E-02
   9.40000  1.7565915E-02  5.2745294E-02  2.0618609E-02
   9.60000  1.8358135E-02  5.5484955E-02  2.0549608E-02
   9.80000  1.9141980E-02  5.7526971E-02  2.0536493E-02
   10.0000  1.9923474E-02  5.8721625E-02  2.0602715E-02
   10.2500  2.0900856E-02  5.8923147E-02  2.0811777E-02
   10.5000  2.1877766E-02  5.7755404E-02  2.1163501E-02
   10.7500  2.2849479E-02  5.5468924E-02  2.1652579E-02
   11.0000  2.3810355E-02  5.2422475E-02  2.2271115E-02
   11.2500  2.4756039E-02  4.8988601E-02  2.3010280E-02
   11.5000  2.5685032E-02  4.5480931E-02  2.3859313E-02
   11.7500  2.6598419E-02  4.2117157E-02  2.4804942E-02
   12.0000  2.7497000E-02  3.9020023E-02  2.5832212E-02
   12.2500  2.8379308E-02  3.6241542E-02  2.6924891E-02
   12.5000  2.9242902E-02  3.3790630E-02  2.8065620E-02
   12.7500  3.0086875E-02  3.1653697E-02  2.9236580E-02
   13.0000  3.0912737E-02  2.9806507E-02  3.0419906E-02
   13.2500  3.1722728E-02  2.8220547E-02  3.1598227E-02
   13.5000  3.2517262E-02  2.6866924E-02  3.2756217E-02
   13.7500  3.3293872E-02  2.5718504E-02  3.3882207E-02
   14.0000  3.4047536E-02  2.4750665E-02  3.4968417E-02
   14.2500  3.4771237E-02  2.3941368E-02  3.6009868E-02
   14.5000  3.5456407E-02  2.3271060E-02  3.7002719E-02
   14.7500  3.6093362E-02  2.2722523E-02  3.7942527E-02
   15.0000  3.6671872E-02  2.2280697E-02  3.8822739E-02
   15.2500  3.7181962E-02  2.1932491E-02  3.9633734E-02
   15.5000  3.7614936E-02  2.1666584E-02  4.0362680E-02
   15.7500  3.7964489E-02  2.1473258E-02  4.0994375E-02
   16.0000  3.8227697E-02  2.1344248E-02  4.1513052E-02
   16.2500  3.8405617E-02  2.1272622E-02  4.1904838E-02
   16.5000  3.8503276E-02  2.1252653E-02  4.2160319E-02
   16.7500  3.8529004E-02  2.1279684E-02  4.2276532E-02
   17.0000  3.8493255E-02  2.1349948E-02  4.2257825E-02
   17.2500  3.8407238E-02  2.1460383E-02  4.2115392E-02
   17.5000  3.8281723E-02  2.1608435E-02  4.1865684E-02
   17.7500  3.8126262E-02  2.1791895E-02  4.1528194E-02
   18.0000  3.7948895E-02  2.2008775E-02  4.1123211E-02
   18.2500  3.7756266E-02  2.2257231E-02  4.0669983E-02
   18.5000  3.7553971E-02  2.2535534E-02  4.0185499E-02
   18.7500  3.7346976E-02  2.2842073E-02  3.9683909E-02
   19.0000  3.7139953E-02  2.3175377E-02  3.9176414E-02
   19.2500  3.6937483E-02  2.3534164E-02  3.8671450E-02
   19.5000  3.6744087E-02  2.3917377E-02  3.8175009E-02
   19.7500  3.6564155E-02  2.4324153E-02  3.7691036E-02
   20.0000  3.6401904E-02  2.4753595E-02  3.7221978E-02
   21.0000  3.6010477E-02  2.6660429E-02  3.5526423E-02
   22.0000  3.6150796E-02  2.8737576E-02  3.4150349E-02
   23.0000  3.6747602E-02  3.0751655E-02  3.3048573E-02
   24.0000  3.7435347E-02  3.2410453E-02  3.2131658E-02
   25.0000  3.7689788E-02  3.3466971E-02  3.1307983E-02
   26.0000  3.7118078E-02  3.3829419E-02  3.0515167E-02
   27.0000  3.5719203E-02  3.3580224E-02  2.9745432E-02
   28.0000  3.3859423E-02  3.2912362E-02  2.9044877E-02
   29.0000  3.1988136E-02  3.2040042E-02  2.8473654E-02
   30.0000  3.0371539E-02  3.1117902E-02  2.8051901E-02
   31.0000  2.9090198E-02  3.0229261E-02  2.7761391E-02
   32.0000  2.8125154E-02  2.9401864E-02  2.7568353E-02
   33.0000  2.7415274E-02  2.8625680E-02  2.7439334E-02
   34.0000  2.6886883E-02  2.7872390E-02  2.7348194E-02
   35.0000  2.6467531E-02  2.7112455E-02  2.7275083E-02
   36.0000  2.6094759E-02  2.6327326E-02  2.7202575E-02
   37.0000  2.5724888E-02  2.5516940E-02  2.7114224E-02
   38.0000  2.5341256E-02  2.4705078E-02  2.6998557E-02
   39.0000  2.4960423E-02  2.3945759E-02  2.6859386E-02
   40.0000  2.4630376E-02  2.3321150E-02  2.6724592E-02
