    Energy   (100,001)      (010,001)      (001,110)   
  -25.0000  1.6587256E-04  1.8921084E-04  1.6731663E-04
  -24.0000  1.7219973E-04  1.9612367E-04  1.7367244E-04
  -23.0000  1.7897277E-04  2.0352380E-04  1.8047479E-04
  -22.0000  1.8623852E-04  2.1146374E-04  1.8777045E-04
  -21.0000  1.9405052E-04  2.2000377E-04  1.9561278E-04
  -20.0000  2.0247012E-04  2.2921337E-04  2.0406296E-04
  -19.0000  2.1156809E-04  2.3917309E-04  2.1319145E-04
  -18.0000  2.2142634E-04  2.4997679E-04  2.2307974E-04
  -17.0000  2.3214026E-04  2.6173447E-04  2.3382269E-04
  -16.0000  2.4382156E-04  2.7457593E-04  2.4553123E-04
  -15.0000  2.5660189E-04  2.8865533E-04  2.5833594E-04
  -14.0000  2.7063742E-04  3.0415717E-04  2.7239158E-04
  -13.0000  2.8611482E-04  3.2130407E-04  2.8788282E-04
  -12.0000  3.0325905E-04  3.4036705E-04  3.0503188E-04
  -11.0000  3.2234357E-04  3.6167934E-04  3.2410841E-04
  -10.0000  3.4370414E-04  3.8565515E-04  3.4544287E-04
  -9.00000  3.6775757E-04  4.1281562E-04  3.6944456E-04
  -8.00000  3.9502766E-04  4.4382545E-04  3.9662661E-04
  -7.00000  4.2618195E-04  4.7954562E-04  4.2764115E-04
  -6.00000  4.6208477E-04  5.2111109E-04  4.6333002E-04
  -5.00000  5.0387603E-04  5.7004873E-04  5.0479967E-04
  -4.00000  5.5309186E-04  6.2846206E-04  5.5353558E-04
  -3.00000  6.1185621E-04  6.9933237E-04  6.1158331E-04
  -2.00000  6.8319928E-04  7.8703326E-04  6.8184863E-04
  -1.00000  7.7161768E-04  8.9826450E-04  7.6862463E-04
   0.00000  8.8413542E-04  1.0438829E-03  8.7859073E-04
   1.00000  1.0325261E-03  1.2428888E-03  1.0229141E-03
   2.00000  1.2386947E-03  1.5325075E-03  1.2223914E-03
   3.00000  1.5509843E-03  2.0002090E-03  1.5233407E-03
   4.00000  2.1153241E-03  2.9300936E-03  2.0691096E-03
   5.00000  3.5410763E-03  5.5717186E-03  3.4663374E-03
   5.20000  3.9816537E-03  6.4000437E-03  3.8861899E-03
   5.40000  4.4307114E-03  7.2229624E-03  4.3003386E-03
   5.60000  4.8793232E-03  8.0142795E-03  4.7005256E-03
   5.80000  5.3348567E-03  8.7823066E-03  5.0960100E-03
   6.00000  5.8095619E-03  9.5459654E-03  5.4997344E-03
   6.20000  6.3148579E-03  1.0324683E-02  5.9227275E-03
   6.40000  6.8601837E-03  1.1138004E-02  6.3739345E-03
   6.60000  7.4537066E-03  1.2007167E-02  6.8615458E-03
   6.80000  8.1034761E-03  1.2955618E-02  7.3942910E-03
   7.00000  8.8183662E-03  1.4008503E-02  7.9822153E-03
   7.20000  9.6085554E-03  1.5191870E-02  8.6368326E-03
   7.40000  1.0485581E-02  1.6531916E-02  9.3708497E-03
   7.60000  1.1462121E-02  1.8053980E-02  1.0197807E-02
   7.80000  1.2551608E-02  1.9780452E-02  1.1131909E-02
   8.00000  1.3767696E-02  2.1727062E-02  1.2188110E-02
   8.20000  1.5123551E-02  2.3897982E-02  1.3382328E-02
   8.40000  1.6630864E-02  2.6281781E-02  1.4731280E-02
   8.60000  1.8298436E-02  2.8851187E-02  1.6251112E-02
   8.80000  2.0130109E-02  3.1568149E-02  1.7953973E-02
   9.00000  2.2121874E-02  3.4391553E-02  1.9842532E-02
   9.20000  2.4258066E-02  3.7281932E-02  2.1903633E-02
   9.40000  2.6506948E-02  4.0199316E-02  2.4102994E-02
   9.60000  2.8817195E-02  4.3095224E-02  2.6383524E-02
   9.80000  3.1117787E-02  4.5903439E-02  2.8669511E-02
   10.0000  3.3322780E-02  4.8534938E-02  3.0876396E-02
   10.2500  3.5805720E-02  5.1406866E-02  3.3402259E-02
   10.5000  3.7837816E-02  5.3592034E-02  3.5561544E-02
   10.7500  3.9316571E-02  5.4868312E-02  3.7303117E-02
   11.0000  4.0217932E-02  5.5087150E-02  3.8644678E-02
   11.2500  4.0593077E-02  5.4229881E-02  3.9650435E-02
   11.5000  4.0546791E-02  5.2426547E-02  4.0400064E-02
   11.7500  4.0208012E-02  4.9920327E-02  4.0963475E-02
   12.0000  3.9702052E-02  4.6998193E-02  4.1385946E-02
   12.2500  3.9131940E-02  4.3923869E-02  4.1685317E-02
   12.5000  3.8571752E-02  4.0898126E-02  4.1861708E-02
   12.7500  3.8068491E-02  3.8049762E-02  4.1912127E-02
   13.0000  3.7647588E-02  3.5446311E-02  4.1841967E-02
   13.2500  3.7318976E-02  3.3111899E-02  4.1669824E-02
   13.5000  3.7082123E-02  3.1044563E-02  4.1424823E-02
   13.7500  3.6929394E-02  2.9229322E-02  4.1139889E-02
   14.0000  3.6848204E-02  2.7645891E-02  4.0846020E-02
   14.2500  3.6822806E-02  2.6272470E-02  4.0568971E-02
   14.5000  3.6835879E-02  2.5087615E-02  4.0327551E-02
   14.7500  3.6869706E-02  2.4071238E-02  4.0133012E-02
   15.0000  3.6906981E-02  2.3205105E-02  3.9989306E-02
   15.2500  3.6931425E-02  2.2473004E-02  3.9893919E-02
   15.5000  3.6928398E-02  2.1860690E-02  3.9839093E-02
   15.7500  3.6885638E-02  2.1355717E-02  3.9813259E-02
   16.0000  3.6794118E-02  2.0947218E-02  3.9802620E-02
   16.2500  3.6648902E-02  2.0625682E-02  3.9792763E-02
   16.5000  3.6449791E-02  2.0382756E-02  3.9770204E-02
   16.7500  3.6201562E-02  2.0211088E-02  3.9723693E-02
   17.0000  3.5913642E-02  2.0104200E-02  3.9645145E-02
   17.2500  3.5599233E-02  2.0056394E-02  3.9530082E-02
   17.5000  3.5274017E-02  2.0062669E-02  3.9377571E-02
   17.7500  3.4954658E-02  2.0118658E-02  3.9189745E-02
   18.0000  3.4657358E-02  2.0220565E-02  3.8971031E-02
   18.2500  3.4396658E-02  2.0365100E-02  3.8727286E-02
   18.5000  3.4184594E-02  2.0549418E-02  3.8464946E-02
   18.7500  3.4030243E-02  2.0771070E-02  3.8190324E-02
   19.0000  3.3939612E-02  2.1027960E-02  3.7909076E-02
   19.2500  3.3915774E-02  2.1318328E-02  3.7625841E-02
   19.5000  3.3959152E-02  2.1640736E-02  3.7344042E-02
   19.7500  3.4067787E-02  2.1993999E-02  3.7065832E-02
   20.0000  3.4237450E-02  2.2376957E-02  3.6792213E-02
   21.0000  3.5366302E-02  2.4166791E-02  3.5739193E-02
   22.0000  3.6694548E-02  2.6249900E-02  3.4688254E-02
   23.0000  3.7456825E-02  2.8441917E-02  3.3511816E-02
   24.0000  3.7092252E-02  3.0526998E-02  3.2127695E-02
   25.0000  3.5542239E-02  3.2292534E-02  3.0552101E-02
   26.0000  3.3228950E-02  3.3555250E-02  2.8899927E-02
   27.0000  3.0739072E-02  3.4209448E-02  2.7339559E-02
   28.0000  2.8467496E-02  3.4297815E-02  2.5995102E-02
   29.0000  2.6577974E-02  3.3962658E-02  2.4925398E-02
   30.0000  2.5092631E-02  3.3367483E-02  2.4131583E-02
   31.0000  2.3964052E-02  3.2648430E-02  2.3569968E-02
   32.0000  2.3120327E-02  3.1895816E-02  2.3173397E-02
   33.0000  2.2488201E-02  3.1158469E-02  2.2870652E-02
   34.0000  2.2002961E-02  3.0457652E-02  2.2599361E-02
   35.0000  2.1611575E-02  2.9800777E-02  2.2314102E-02
   36.0000  2.1273465E-02  2.9190011E-02  2.1991938E-02
   37.0000  2.0961410E-02  2.8624961E-02  2.1634519E-02
   38.0000  2.0663324E-02  2.8103940E-02  2.1265325E-02
   39.0000  2.0384986E-02  2.7633507E-02  2.0922274E-02
   40.0000  2.0149635E-02  2.7245858E-02  2.0644803E-02
