    Energy   (100,001)      (010,001)      (001,110)   
  -25.0000  1.7095328E-04  1.7657342E-04  1.8603006E-04
  -24.0000  1.7713863E-04  1.8363392E-04  1.9264250E-04
  -23.0000  1.8374282E-04  1.9122276E-04  1.9970549E-04
  -22.0000  1.9080853E-04  1.9939934E-04  2.0726582E-04
  -21.0000  1.9838434E-04  2.0823214E-04  2.1537687E-04
  -20.0000  2.0652582E-04  2.1780045E-04  2.2409992E-04
  -19.0000  2.1529678E-04  2.2819659E-04  2.3350558E-04
  -18.0000  2.2477091E-04  2.3952868E-04  2.4367563E-04
  -17.0000  2.3503368E-04  2.5192408E-04  2.5470538E-04
  -16.0000  2.4618486E-04  2.6553379E-04  2.6670649E-04
  -15.0000  2.5834160E-04  2.8053818E-04  2.7981069E-04
  -14.0000  2.7164238E-04  2.9715431E-04  2.9417443E-04
  -13.0000  2.8625211E-04  3.1564560E-04  3.0998500E-04
  -12.0000  3.0236877E-04  3.3633476E-04  3.2746849E-04
  -11.0000  3.2023210E-04  3.5962106E-04  3.4690039E-04
  -10.0000  3.4013538E-04  3.8600412E-04  3.6861986E-04
  -9.00000  3.6244127E-04  4.1611695E-04  3.9304932E-04
  -8.00000  3.8760385E-04  4.5077280E-04  4.2072181E-04
  -7.00000  4.1619975E-04  4.9103298E-04  4.5231992E-04
  -6.00000  4.4897304E-04  5.3830747E-04  4.8873285E-04
  -5.00000  4.8690209E-04  5.9450822E-04  5.3114207E-04
  -4.00000  5.3130190E-04  6.6229043E-04  5.8115460E-04
  -3.00000  5.8398710E-04  7.4544681E-04  6.4101903E-04
  -2.00000  6.4754366E-04  8.4958184E-04  7.1399330E-04
  -1.00000  7.2580830E-04  9.8333239E-04  8.0501276E-04
   0.00000  8.2477933E-04  1.1607428E-03  9.2200853E-04
   1.00000  9.5452576E-04  1.4063596E-03  1.0788235E-03
   2.00000  1.1337884E-03  1.7677802E-03  1.3028021E-03
   3.00000  1.4036983E-03  2.3538925E-03  1.6600644E-03
   4.00000  1.8856827E-03  3.5000490E-03  2.3790490E-03
   5.00000  3.0755262E-03  6.6168759E-03  4.4872626E-03
   5.20000  3.4503333E-03  7.6138190E-03  5.0899800E-03
   5.40000  3.8459632E-03  8.6486731E-03  5.6179046E-03
   5.60000  4.2592495E-03  9.7040629E-03  6.0546094E-03
   5.80000  4.6985026E-03  1.0798074E-02  6.4321063E-03
   6.00000  5.1757127E-03  1.1960748E-02  6.7940910E-03
   6.20000  5.7030102E-03  1.3222404E-02  7.1767240E-03
   6.40000  6.2919062E-03  1.4610799E-02  7.6054031E-03
   6.60000  6.9533096E-03  1.6151088E-02  8.0977341E-03
   6.80000  7.6976107E-03  1.7866443E-02  8.6672651E-03
   7.00000  8.5344256E-03  1.9778927E-02  9.3262059E-03
   7.20000  9.4714434E-03  2.1910449E-02  1.0086778E-02
   7.40000  1.0511798E-02  2.4283986E-02  1.0961074E-02
   7.60000  1.1649531E-02  2.6925225E-02  1.1959263E-02
   7.80000  1.2863274E-02  2.9864033E-02  1.3086140E-02
   8.00000  1.4109799E-02  3.3133993E-02  1.4336857E-02
   8.20000  1.5321839E-02  3.6767494E-02  1.5694336E-02
   8.40000  1.6416875E-02  4.0784284E-02  1.7132106E-02
   8.60000  1.7320879E-02  4.5172859E-02  1.8624254E-02
   8.80000  1.7999650E-02  4.9865286E-02  2.0157625E-02
   9.00000  1.8478050E-02  5.4708122E-02  2.1736192E-02
   9.20000  1.8831376E-02  5.9439247E-02  2.3372547E-02
   9.40000  1.9154656E-02  6.3690982E-02  2.5073640E-02
   9.60000  1.9531186E-02  6.7040493E-02  2.6832458E-02
   9.80000  2.0015696E-02  6.9107184E-02  2.8629444E-02
   10.0000  2.0632673E-02  6.9662011E-02  3.0438098E-02
   10.2500  2.1589360E-02  6.8234150E-02  3.2668684E-02
   10.5000  2.2720827E-02  6.4861325E-02  3.4801168E-02
   10.7500  2.3976530E-02  6.0232928E-02  3.6757194E-02
   11.0000  2.5300693E-02  5.5046242E-02  3.8457531E-02
   11.2500  2.6640604E-02  4.9842953E-02  3.9836673E-02
   11.5000  2.7951230E-02  4.4965161E-02  4.0852970E-02
   11.7500  2.9196144E-02  4.0584297E-02  4.1491051E-02
   12.0000  3.0346539E-02  3.6755525E-02  4.1760453E-02
   12.2500  3.1381179E-02  3.3467791E-02  4.1691361E-02
   12.5000  3.2286501E-02  3.0677367E-02  4.1328449E-02
   12.7500  3.3056754E-02  2.8327348E-02  4.0725063E-02
   13.0000  3.3695877E-02  2.6358780E-02  3.9940102E-02
   13.2500  3.4218770E-02  2.4716514E-02  3.9036459E-02
   13.5000  3.4648730E-02  2.3351588E-02  3.8076522E-02
   13.7500  3.5012172E-02  2.2221724E-02  3.7114935E-02
   14.0000  3.5334182E-02  2.1291071E-02  3.6194075E-02
   14.2500  3.5636135E-02  2.0529597E-02  3.5343941E-02
   14.5000  3.5934534E-02  1.9912321E-02  3.4583909E-02
   14.7500  3.6240400E-02  1.9418549E-02  3.3924530E-02
   15.0000  3.6559083E-02  1.9031212E-02  3.3369066E-02
   15.2500  3.6890444E-02  1.8736310E-02  3.2914941E-02
   15.5000  3.7229349E-02  1.8522454E-02  3.2555142E-02
   15.7500  3.7566462E-02  1.8380467E-02  3.2279605E-02
   16.0000  3.7889335E-02  1.8303027E-02  3.2076541E-02
   16.2500  3.8183786E-02  1.8284324E-02  3.1933668E-02
   16.5000  3.8435500E-02  1.8319748E-02  3.1839269E-02
   16.7500  3.8631700E-02  1.8405607E-02  3.1782973E-02
   17.0000  3.8762682E-02  1.8538875E-02  3.1756218E-02
   17.2500  3.8823013E-02  1.8716997E-02  3.1752348E-02
   17.5000  3.8812236E-02  1.8937735E-02  3.1766411E-02
   17.7500  3.8734992E-02  1.9199066E-02  3.1794766E-02
   18.0000  3.8600565E-02  1.9499109E-02  3.1834620E-02
   18.2500  3.8421924E-02  1.9836080E-02  3.1883624E-02
   18.5000  3.8214416E-02  2.0208261E-02  3.1939583E-02
   18.7500  3.7994301E-02  2.0613986E-02  3.2000321E-02
   19.0000  3.7777328E-02  2.1051654E-02  3.2063659E-02
   19.2500  3.7577503E-02  2.1519766E-02  3.2127480E-02
   19.5000  3.7406164E-02  2.2016975E-02  3.2189826E-02
   19.7500  3.7271398E-02  2.2542065E-02  3.2248966E-02
   20.0000  3.7177814E-02  2.3093698E-02  3.2303409E-02
   21.0000  3.7203338E-02  2.5513528E-02  3.2447907E-02
   22.0000  3.7616103E-02  2.8109485E-02  3.2421371E-02
   23.0000  3.7876319E-02  3.0624344E-02  3.2170915E-02
   24.0000  3.7467732E-02  3.2740805E-02  3.1676089E-02
   25.0000  3.6170464E-02  3.4164892E-02  3.0977881E-02
   26.0000  3.4197372E-02  3.4753672E-02  3.0184807E-02
   27.0000  3.2051475E-02  3.4569296E-02  2.9437601E-02
   28.0000  3.0190083E-02  3.3818255E-02  2.8853868E-02
   29.0000  2.8815900E-02  3.2739757E-02  2.8491910E-02
   30.0000  2.7902157E-02  3.1528522E-02  2.8347745E-02
   31.0000  2.7311504E-02  3.0311110E-02  2.8368028E-02
   32.0000  2.6893885E-02  2.9142914E-02  2.8470307E-02
   33.0000  2.6533122E-02  2.8034556E-02  2.8575989E-02
   34.0000  2.6155839E-02  2.6976624E-02  2.8630297E-02
   35.0000  2.5725585E-02  2.5953854E-02  2.8601782E-02
   36.0000  2.5235424E-02  2.4956136E-02  2.8473979E-02
   37.0000  2.4702498E-02  2.3987309E-02  2.8242298E-02
   38.0000  2.4162940E-02  2.3071476E-02  2.7921150E-02
   39.0000  2.3665857E-02  2.2256533E-02  2.7556103E-02
   40.0000  2.3264051E-02  2.1607273E-02  2.7225326E-02
