    Energy   (100,001)      (010,001)      (001,110)   
  -25.0000  1.7944697E-04  1.8381370E-04  1.8163413E-04
  -24.0000  1.8597744E-04  1.9084947E-04  1.8824343E-04
  -23.0000  1.9295811E-04  1.9839744E-04  1.9530977E-04
  -22.0000  2.0043594E-04  2.0651413E-04  2.0288101E-04
  -21.0000  2.0846455E-04  2.1526460E-04  2.1101187E-04
  -20.0000  2.1710546E-04  2.2472403E-04  2.1976516E-04
  -19.0000  2.2642960E-04  2.3497981E-04  2.2921336E-04
  -18.0000  2.3651911E-04  2.4613407E-04  2.3944047E-04
  -17.0000  2.4746970E-04  2.5830686E-04  2.5054447E-04
  -16.0000  2.5939352E-04  2.7164027E-04  2.6264027E-04
  -15.0000  2.7242285E-04  2.8630364E-04  2.7586355E-04
  -14.0000  2.8671478E-04  3.0250031E-04  2.9037566E-04
  -13.0000  3.0245729E-04  3.2047654E-04  3.0636994E-04
  -12.0000  3.1987725E-04  3.4053331E-04  3.2408010E-04
  -11.0000  3.3925097E-04  3.6304216E-04  3.4379126E-04
  -10.0000  3.6091839E-04  3.8846693E-04  3.6585499E-04
  -9.00000  3.8530264E-04  4.1739392E-04  3.9070986E-04
  -8.00000  4.1293704E-04  4.5057458E-04  4.1891030E-04
  -7.00000  4.4450377E-04  4.8898728E-04  4.5116777E-04
  -6.00000  4.8088993E-04  5.3392894E-04  4.8841123E-04
  -5.00000  5.2327163E-04  5.8715460E-04  5.3187827E-04
  -4.00000  5.7324381E-04  6.5109724E-04  5.8325740E-04
  -3.00000  6.3302880E-04  7.2922777E-04  6.4491933E-04
  -2.00000  7.0582736E-04  8.2667300E-04  7.2031207E-04
  -1.00000  7.9644553E-04  9.5134058E-04  8.1467950E-04
   0.00000  9.1250262E-04  1.1161286E-03  9.3647788E-04
   1.00000  1.0670127E-03  1.3437305E-03  1.1004875E-03
   2.00000  1.2847783E-03  1.6787079E-03  1.3357699E-03
   3.00000  1.6222339E-03  2.2252982E-03  1.7112040E-03
   4.00000  2.2560680E-03  3.3161164E-03  2.4524486E-03
   5.00000  3.9392995E-03  6.4005837E-03  4.5793750E-03
   5.20000  4.4582277E-03  7.3956695E-03  5.2801023E-03
   5.40000  4.9784096E-03  8.4188436E-03  6.0051024E-03
   5.60000  5.4898657E-03  9.4417357E-03  6.7245261E-03
   5.80000  6.0046848E-03  1.0468265E-02  7.4251119E-03
   6.00000  6.5410535E-03  1.1511826E-02  8.0970613E-03
   6.20000  7.1156227E-03  1.2586390E-02  8.7310725E-03
   6.40000  7.7423971E-03  1.3707543E-02  9.3232626E-03
   6.60000  8.4343241E-03  1.4895886E-02  9.8815255E-03
   6.80000  9.2055275E-03  1.6178954E-02  1.0428633E-02
   7.00000  1.0072785E-02  1.7590410E-02  1.1000266E-02
   7.20000  1.1055222E-02  1.9166919E-02  1.1639102E-02
   7.40000  1.2171595E-02  2.0943892E-02  1.2387287E-02
   7.60000  1.3434779E-02  2.2951149E-02  1.3278627E-02
   7.80000  1.4843411E-02  2.5209040E-02  1.4330572E-02
   8.00000  1.6371806E-02  2.7725400E-02  1.5536306E-02
   8.20000  1.7962770E-02  3.0493705E-02  1.6860010E-02
   8.40000  1.9533212E-02  3.3492680E-02  1.8241939E-02
   8.60000  2.1000233E-02  3.6687105E-02  1.9618392E-02
   8.80000  2.2318572E-02  4.0028271E-02  2.0950028E-02
   9.00000  2.3502558E-02  4.3451481E-02  2.2239473E-02
   9.20000  2.4614072E-02  4.6869769E-02  2.3524553E-02
   9.40000  2.5727910E-02  5.0167590E-02  2.4854288E-02
   9.60000  2.6900673E-02  5.3201384E-02  2.6265688E-02
   9.80000  2.8157094E-02  5.5811773E-02  2.7771726E-02
   10.0000  2.9490900E-02  5.7845623E-02  2.9359420E-02
   10.2500  3.1219107E-02  5.9395543E-02  3.1402561E-02
   10.5000  3.2926597E-02  5.9734705E-02  3.3409755E-02
   10.7500  3.4502104E-02  5.8891745E-02  3.5255040E-02
   11.0000  3.5836900E-02  5.7023143E-02  3.6821708E-02
   11.2500  3.6848489E-02  5.4358961E-02  3.8032873E-02
   11.5000  3.7503039E-02  5.1152928E-02  3.8869893E-02
   11.7500  3.7822554E-02  4.7648324E-02  3.9368257E-02
   12.0000  3.7869507E-02  4.4057581E-02  3.9592665E-02
   12.2500  3.7723523E-02  4.0551943E-02  3.9608116E-02
   12.5000  3.7466078E-02  3.7257010E-02  3.9464744E-02
   12.7500  3.7170441E-02  3.4253038E-02  3.9197744E-02
   13.0000  3.6894654E-02  3.1580311E-02  3.8834967E-02
   13.2500  3.6679019E-02  2.9247851E-02  3.8404360E-02
   13.5000  3.6547036E-02  2.7242963E-02  3.7936904E-02
   13.7500  3.6507953E-02  2.5539984E-02  3.7465052E-02
   14.0000  3.6559757E-02  2.4107199E-02  3.7019132E-02
   14.2500  3.6692005E-02  2.2911530E-02  3.6624212E-02
   14.5000  3.6888164E-02  2.1921352E-02  3.6298292E-02
   14.7500  3.7127434E-02  2.1108030E-02  3.6051639E-02
   15.0000  3.7386239E-02  2.0446587E-02  3.5886955E-02
   15.2500  3.7639582E-02  1.9915815E-02  3.5800087E-02
   15.5000  3.7862420E-02  1.9498053E-02  3.5781101E-02
   15.7500  3.8031091E-02  1.9178797E-02  3.5815594E-02
   16.0000  3.8124780E-02  1.8946257E-02  3.5886181E-02
   16.2500  3.8126909E-02  1.8790898E-02  3.5974126E-02
   16.5000  3.8026307E-02  1.8705025E-02  3.6061010E-02
   16.7500  3.7817983E-02  1.8682407E-02  3.6130321E-02
   17.0000  3.7503401E-02  1.8717946E-02  3.6168769E-02
   17.2500  3.7090162E-02  1.8807406E-02  3.6167180E-02
   17.5000  3.6591149E-02  1.8947187E-02  3.6120854E-02
   17.7500  3.6023240E-02  1.9134145E-02  3.6029381E-02
   18.0000  3.5405782E-02  1.9365460E-02  3.5895995E-02
   18.2500  3.4759024E-02  1.9638537E-02  3.5726644E-02
   18.5000  3.4102714E-02  1.9950939E-02  3.5528933E-02
   18.7500  3.3454974E-02  2.0300362E-02  3.5311131E-02
   19.0000  3.2831517E-02  2.0684631E-02  3.5081313E-02
   19.2500  3.2245188E-02  2.1101748E-02  3.4846725E-02
   19.5000  3.1705798E-02  2.1549942E-02  3.4613343E-02
   19.7500  3.1220209E-02  2.2027664E-02  3.4385658E-02
   20.0000  3.0792754E-02  2.2533353E-02  3.4166692E-02
   21.0000  2.9702139E-02  2.4784376E-02  3.3402287E-02
   22.0000  2.9581938E-02  2.7246867E-02  3.2788131E-02
   23.0000  3.0206777E-02  2.9688889E-02  3.2196726E-02
   24.0000  3.1166512E-02  3.1837040E-02  3.1501883E-02
   25.0000  3.1981817E-02  3.3448808E-02  3.0651524E-02
   26.0000  3.2288208E-02  3.4398811E-02  2.9680522E-02
   27.0000  3.1988082E-02  3.4698012E-02  2.8684338E-02
   28.0000  3.1230661E-02  3.4451508E-02  2.7777436E-02
   29.0000  3.0263284E-02  3.3817553E-02  2.7056335E-02
   30.0000  2.9303506E-02  3.2971623E-02  2.6570030E-02
   31.0000  2.8475332E-02  3.2047744E-02  2.6303427E-02
   32.0000  2.7811974E-02  3.1120380E-02  2.6201642E-02
   33.0000  2.7287947E-02  3.0216660E-02  2.6199268E-02
   34.0000  2.6853929E-02  2.9335231E-02  2.6234592E-02
   35.0000  2.6462909E-02  2.8465122E-02  2.6253583E-02
   36.0000  2.6084316E-02  2.7600080E-02  2.6211132E-02
   37.0000  2.5708126E-02  2.6746574E-02  2.6076456E-02
   38.0000  2.5342791E-02  2.5927745E-02  2.5844870E-02
   39.0000  2.5010891E-02  2.5187727E-02  2.5551312E-02
   40.0000  2.4742835E-02  2.4591095E-02  2.5270537E-02
