    Energy   (100,001)      (010,001)      (001,110)   
  -25.0000  1.6982806E-04  1.9098990E-04  1.7703314E-04
  -24.0000  1.7601942E-04  1.9788504E-04  1.8360915E-04
  -23.0000  1.8263213E-04  2.0526042E-04  1.9064553E-04
  -22.0000  1.8970920E-04  2.1316721E-04  1.9819091E-04
  -21.0000  1.9729964E-04  2.2166403E-04  2.0630090E-04
  -20.0000  2.0545944E-04  2.3081836E-04  2.1503942E-04
  -19.0000  2.1425293E-04  2.4070832E-04  2.2448025E-04
  -18.0000  2.2375435E-04  2.5142472E-04  2.3470902E-04
  -17.0000  2.3404982E-04  2.6307388E-04  2.4582569E-04
  -16.0000  2.4523980E-04  2.7578091E-04  2.5794763E-04
  -15.0000  2.5744222E-04  2.8969413E-04  2.7121356E-04
  -14.0000  2.7079639E-04  3.0499064E-04  2.8578864E-04
  -13.0000  2.8546807E-04  3.2188355E-04  3.0187103E-04
  -12.0000  3.0165609E-04  3.4063166E-04  3.1970057E-04
  -11.0000  3.1960102E-04  3.6155216E-04  3.3957026E-04
  -10.0000  3.3959667E-04  3.8503807E-04  3.6184193E-04
  -9.00000  3.6200588E-04  4.1158214E-04  3.8696759E-04
  -8.00000  3.8728209E-04  4.4181037E-04  4.1551957E-04
  -7.00000  4.1599982E-04  4.7653012E-04  4.4823345E-04
  -6.00000  4.4889855E-04  5.1680061E-04  4.8607115E-04
  -5.00000  4.8694763E-04  5.6403927E-04  5.3031598E-04
  -4.00000  5.3144538E-04  6.2018734E-04  5.8272083E-04
  -3.00000  5.8417631E-04  6.8797792E-04  6.4574830E-04
  -2.00000  6.4767239E-04  7.7139105E-04  7.2297897E-04
  -1.00000  7.2567366E-04  8.7647337E-04  8.1984793E-04
   0.00000  8.2400523E-04  1.0129338E-03  9.4507901E-04
   1.00000  9.5243042E-04  1.1975946E-03  1.1137786E-03
   2.00000  1.1291968E-03  1.4630672E-03  1.3551471E-03
   3.00000  1.3950297E-03  1.8852001E-03  1.7364029E-03
   4.00000  1.8750579E-03  2.7083574E-03  2.4683013E-03
   5.00000  3.1023385E-03  5.0013592E-03  4.4565279E-03
   5.20000  3.4868525E-03  5.7156784E-03  5.0950870E-03
   5.40000  3.8822982E-03  6.4256524E-03  5.7592379E-03
   5.60000  4.2801926E-03  7.1108264E-03  6.4368552E-03
   5.80000  4.6841913E-03  7.7802743E-03  7.1354012E-03
   6.00000  5.1008055E-03  8.4514016E-03  7.8661874E-03
   6.20000  5.5355100E-03  9.1406044E-03  8.6381509E-03
   6.40000  5.9924528E-03  9.8621089E-03  9.4580442E-03
   6.60000  6.4750443E-03  1.0629044E-02  1.0332076E-02
   6.80000  6.9865140E-03  1.1454477E-02  1.1267421E-02
   7.00000  7.5303812E-03  1.2351930E-02  1.2273574E-02
   7.20000  8.1108532E-03  1.3335399E-02  1.3363377E-02
   7.40000  8.7330238E-03  1.4419076E-02  1.4553073E-02
   7.60000  9.4027076E-03  1.5616982E-02  1.5860641E-02
   7.80000  1.0125891E-02  1.6942764E-02  1.7302023E-02
   8.00000  1.0907961E-02  1.8409668E-02  1.8885403E-02
   8.20000  1.1753070E-02  2.0030554E-02  2.0604250E-02
   8.40000  1.2664179E-02  2.1817949E-02  2.2430370E-02
   8.60000  1.3643949E-02  2.3784175E-02  2.4309619E-02
   8.80000  1.4695855E-02  2.5941058E-02  2.6163823E-02
   9.00000  1.5824593E-02  2.8298188E-02  2.7900950E-02
   9.20000  1.7035548E-02  3.0860078E-02  2.9432440E-02
   9.40000  1.8333839E-02  3.3623444E-02  3.0692537E-02
   9.60000  1.9722985E-02  3.6573972E-02  3.1651289E-02
   9.80000  2.1203087E-02  3.9681352E-02  3.2315775E-02
   10.0000  2.2768752E-02  4.2892707E-02  3.2721392E-02
   10.2500  2.4825822E-02  4.6924992E-02  3.2943515E-02
   10.5000  2.6952275E-02  5.0758785E-02  3.2953410E-02
   10.7500  2.9084467E-02  5.4100322E-02  3.2858374E-02
   11.0000  3.1141549E-02  5.6632204E-02  3.2753507E-02
   11.2500  3.3032590E-02  5.8076177E-02  3.2717612E-02
   11.5000  3.4669765E-02  5.8263914E-02  3.2807093E-02
   11.7500  3.5981252E-02  5.7190313E-02  3.3046287E-02
   12.0000  3.6920140E-02  5.5022779E-02  3.3421740E-02
   12.2500  3.7473918E-02  5.2055393E-02  3.3888086E-02
   12.5000  3.7671597E-02  4.8628578E-02  3.4382072E-02
   12.7500  3.7580258E-02  4.5052910E-02  3.4838740E-02
   13.0000  3.7289493E-02  4.1564476E-02  3.5206533E-02
   13.2500  3.6892598E-02  3.8314948E-02  3.5457731E-02
   13.5000  3.6472224E-02  3.5384056E-02  3.5590851E-02
   13.7500  3.6092164E-02  3.2799768E-02  3.5625502E-02
   14.0000  3.5794958E-02  3.0557053E-02  3.5594017E-02
   14.2500  3.5603906E-02  2.8632270E-02  3.5533153E-02
   14.5000  3.5526907E-02  2.6993146E-02  3.5477507E-02
   14.7500  3.5560248E-02  2.5605128E-02  3.5455289E-02
   15.0000  3.5691696E-02  2.4435046E-02  3.5486214E-02
   15.2500  3.5902937E-02  2.3452921E-02  3.5580866E-02
   15.5000  3.6171575E-02  2.2632638E-02  3.5740971E-02
   15.7500  3.6472890E-02  2.1951965E-02  3.5960201E-02
   16.0000  3.6781533E-02  2.1392243E-02  3.6225349E-02
   16.2500  3.7073273E-02  2.0937938E-02  3.6517813E-02
   16.5000  3.7326747E-02  2.0576157E-02  3.6815433E-02
   16.7500  3.7525126E-02  2.0296191E-02  3.7094611E-02
   17.0000  3.7657464E-02  2.0089106E-02  3.7332623E-02
   17.2500  3.7719518E-02  1.9947394E-02  3.7509874E-02
   17.5000  3.7713868E-02  1.9864684E-02  3.7611779E-02
   17.7500  3.7649272E-02  1.9835518E-02  3.7629990E-02
   18.0000  3.7539371E-02  1.9855177E-02  3.7562771E-02
   18.2500  3.7400961E-02  1.9919557E-02  3.7414531E-02
   18.5000  3.7252112E-02  2.0025079E-02  3.7194671E-02
   18.7500  3.7110434E-02  2.0168636E-02  3.6916014E-02
   19.0000  3.6991662E-02  2.0347560E-02  3.6593126E-02
   19.2500  3.6908687E-02  2.0559619E-02  3.6240757E-02
   19.5000  3.6870989E-02  2.0803024E-02  3.5872563E-02
   19.7500  3.6884405E-02  2.1076393E-02  3.5500250E-02
   20.0000  3.6951090E-02  2.1378590E-02  3.5133272E-02
   21.0000  3.7680817E-02  2.2849079E-02  3.3847849E-02
   22.0000  3.8748464E-02  2.4679734E-02  3.2983829E-02
   23.0000  3.9409727E-02  2.6796166E-02  3.2463099E-02
   24.0000  3.9011024E-02  2.9069363E-02  3.2075318E-02
   25.0000  3.7372672E-02  3.1284320E-02  3.1606487E-02
   26.0000  3.4860216E-02  3.3176260E-02  3.0917083E-02
   27.0000  3.2083920E-02  3.4527852E-02  2.9987004E-02
   28.0000  2.9554693E-02  3.5258429E-02  2.8918689E-02
   29.0000  2.7535002E-02  3.5439155E-02  2.7878283E-02
   30.0000  2.6040252E-02  3.5227162E-02  2.6988718E-02
   31.0000  2.4983103E-02  3.4777174E-02  2.6299812E-02
   32.0000  2.4265188E-02  3.4197396E-02  2.5802687E-02
   33.0000  2.3793837E-02  3.3546873E-02  2.5452064E-02
   34.0000  2.3485307E-02  3.2849594E-02  2.5189050E-02
   35.0000  2.3269091E-02  3.2111349E-02  2.4957371E-02
   36.0000  2.3091643E-02  3.1333896E-02  2.4713534E-02
   37.0000  2.2918286E-02  3.0526168E-02  2.4433666E-02
   38.0000  2.2734102E-02  2.9714177E-02  2.4117964E-02
   39.0000  2.2544837E-02  2.8951823E-02  2.3793265E-02
   40.0000  2.2375012E-02  2.8324138E-02  2.3509720E-02
