    Energy   (100,001)      (010,001)      (001,110)   
  -25.0000  1.7318080E-04  1.9087356E-04  1.8147718E-04
  -24.0000  1.7966142E-04  1.9788921E-04  1.8827984E-04
  -23.0000  1.8659540E-04  2.0540224E-04  1.9556667E-04
  -22.0000  1.9403038E-04  2.1346658E-04  2.0338983E-04
  -21.0000  2.0202083E-04  2.2214414E-04  2.1180916E-04
  -20.0000  2.1062926E-04  2.3150641E-04  2.2089360E-04
  -19.0000  2.1992777E-04  2.4163627E-04  2.3072303E-04
  -18.0000  2.2999995E-04  2.5263042E-04  2.4139044E-04
  -17.0000  2.4094327E-04  2.6460231E-04  2.5300475E-04
  -16.0000  2.5287202E-04  2.7768595E-04  2.6569439E-04
  -15.0000  2.6592113E-04  2.9204070E-04  2.7961179E-04
  -14.0000  2.8025097E-04  3.0785749E-04  2.9493926E-04
  -13.0000  2.9605371E-04  3.2536706E-04  3.1189664E-04
  -12.0000  3.1356152E-04  3.4485071E-04  3.3075150E-04
  -11.0000  3.3305756E-04  3.6665487E-04  3.5183272E-04
  -10.0000  3.5489078E-04  3.9121092E-04  3.7554914E-04
  -9.00000  3.7949627E-04  4.1906263E-04  4.0241549E-04
  -8.00000  4.0742369E-04  4.5090506E-04  4.3308900E-04
  -7.00000  4.3937781E-04  4.8764055E-04  4.6842272E-04
  -6.00000  4.7627793E-04  5.3046163E-04  5.0954469E-04
  -5.00000  5.1934710E-04  5.8097714E-04  5.5797975E-04
  -4.00000  5.7025102E-04  6.4141042E-04  6.1584317E-04
  -3.00000  6.3132229E-04  7.1492348E-04  6.8616277E-04
  -2.00000  7.0594061E-04  8.0617288E-04  7.7344339E-04
  -1.00000  7.9921607E-04  9.2232211E-04  8.8472404E-04
   0.00000  9.1931365E-04  1.0750330E-03  1.0317341E-03
   1.00000  1.0802923E-03  1.2848138E-03  1.2358217E-03
   2.00000  1.3091174E-03  1.5920271E-03  1.5411596E-03
   3.00000  1.6671171E-03  2.0917990E-03  2.0595538E-03
   4.00000  2.3427637E-03  3.0927016E-03  3.1894413E-03
   5.00000  4.1332631E-03  5.9507889E-03  6.7863488E-03
   5.20000  4.7105689E-03  6.8565647E-03  7.9009736E-03
   5.40000  5.3177524E-03  7.7675980E-03  8.9533737E-03
   5.60000  5.9455814E-03  8.6580983E-03  9.9002787E-03
   5.80000  6.6046135E-03  9.5381229E-03  1.0757118E-02
   6.00000  7.3134597E-03  1.0428403E-02  1.1553432E-02
   6.20000  8.0922236E-03  1.1348713E-02  1.2313192E-02
   6.40000  8.9595766E-03  1.2315831E-02  1.3053055E-02
   6.60000  9.9301956E-03  1.3344248E-02  1.3786065E-02
   6.80000  1.1011263E-02  1.4447029E-02  1.4525338E-02
   7.00000  1.2198312E-02  1.5636477E-02  1.5286088E-02
   7.20000  1.3472024E-02  1.6925158E-02  1.6086012E-02
   7.40000  1.4798086E-02  1.8327857E-02  1.6944293E-02
   7.60000  1.6131510E-02  1.9864190E-02  1.7879477E-02
   7.80000  1.7425410E-02  2.1560578E-02  1.8906911E-02
   8.00000  1.8642767E-02  2.3450222E-02  2.0036794E-02
   8.20000  1.9767226E-02  2.5570366E-02  2.1273296E-02
   8.40000  2.0806926E-02  2.7956806E-02  2.2613970E-02
   8.60000  2.1787924E-02  3.0635586E-02  2.4048464E-02
   8.80000  2.2740795E-02  3.3611743E-02  2.5556697E-02
   9.00000  2.3688341E-02  3.6855434E-02  2.7107857E-02
   9.20000  2.4640106E-02  4.0287896E-02  2.8661851E-02
   9.40000  2.5593863E-02  4.3773181E-02  3.0174146E-02
   9.60000  2.6540555E-02  4.7124051E-02  3.1603474E-02
   9.80000  2.7468719E-02  5.0127350E-02  3.2919985E-02
   10.0000  2.8366465E-02  5.2584251E-02  3.4110304E-02
   10.2500  2.9426761E-02  5.4672890E-02  3.5425814E-02
   10.5000  3.0392873E-02  5.5569486E-02  3.6575069E-02
   10.7500  3.1238228E-02  5.5332201E-02  3.7585924E-02
   11.0000  3.1948952E-02  5.4138939E-02  3.8469086E-02
   11.2500  3.2533910E-02  5.2220886E-02  3.9215404E-02
   11.5000  3.3015763E-02  4.9812523E-02  3.9804430E-02
   11.7500  3.3414423E-02  4.7123764E-02  4.0212430E-02
   12.0000  3.3745420E-02  4.4327642E-02  4.0419228E-02
   12.2500  3.4024670E-02  4.1557147E-02  4.0415851E-02
   12.5000  3.4268727E-02  3.8907216E-02  4.0210260E-02
   12.7500  3.4493154E-02  3.6439707E-02  3.9827505E-02
   13.0000  3.4711344E-02  3.4189787E-02  3.9305140E-02
   13.2500  3.4934230E-02  3.2171676E-02  3.8687587E-02
   13.5000  3.5170434E-02  3.0383729E-02  3.8021049E-02
   13.7500  3.5426321E-02  2.8813441E-02  3.7349141E-02
   14.0000  3.5705922E-02  2.7441985E-02  3.6709584E-02
   14.2500  3.6010839E-02  2.6247838E-02  3.6132185E-02
   14.5000  3.6340177E-02  2.5209382E-02  3.5637988E-02
   14.7500  3.6690521E-02  2.4306566E-02  3.5239284E-02
   15.0000  3.7055967E-02  2.3521804E-02  3.4940159E-02
   15.2500  3.7428246E-02  2.2840304E-02  3.4737330E-02
   15.5000  3.7796950E-02  2.2250000E-02  3.4621160E-02
   15.7500  3.8149930E-02  2.1741257E-02  3.4576815E-02
   16.0000  3.8473862E-02  2.1306476E-02  3.4585624E-02
   16.2500  3.8755018E-02  2.0939676E-02  3.4626652E-02
   16.5000  3.8980222E-02  2.0636108E-02  3.4678443E-02
   16.7500  3.9137927E-02  2.0391920E-02  3.4720820E-02
   17.0000  3.9219314E-02  2.0203872E-02  3.4736510E-02
   17.2500  3.9219270E-02  2.0069120E-02  3.4712404E-02
   17.5000  3.9137094E-02  1.9985053E-02  3.4640273E-02
   17.7500  3.8976800E-02  1.9949199E-02  3.4516879E-02
   18.0000  3.8746944E-02  1.9959167E-02  3.4343550E-02
   18.2500  3.8459975E-02  2.0012649E-02  3.4125353E-02
   18.5000  3.8131177E-02  2.0107430E-02  3.3870053E-02
   18.7500  3.7777367E-02  2.0241432E-02  3.3587019E-02
   19.0000  3.7415503E-02  2.0412757E-02  3.3286188E-02
   19.2500  3.7061379E-02  2.0619738E-02  3.2977174E-02
   19.5000  3.6728543E-02  2.0860991E-02  3.2668552E-02
   19.7500  3.6427540E-02  2.1135403E-02  3.2367376E-02
   20.0000  3.6165608E-02  2.1441996E-02  3.2079028E-02
   21.0000  3.5556990E-02  2.2963617E-02  3.1117149E-02
   22.0000  3.5529549E-02  2.4890548E-02  3.0487213E-02
   23.0000  3.5640845E-02  2.7118073E-02  3.0060724E-02
   24.0000  3.5357772E-02  2.9465459E-02  2.9655584E-02
   25.0000  3.4342713E-02  3.1667126E-02  2.9144719E-02
   26.0000  3.2657191E-02  3.3443441E-02  2.8499467E-02
   27.0000  3.0681023E-02  3.4608285E-02  2.7774382E-02
   28.0000  2.8815790E-02  3.5130935E-02  2.7063443E-02
   29.0000  2.7283018E-02  3.5115850E-02  2.6454408E-02
   30.0000  2.6118577E-02  3.4729523E-02  2.5987104E-02
   31.0000  2.5271064E-02  3.4130685E-02  2.5663449E-02
   32.0000  2.4667097E-02  3.3435085E-02  2.5463364E-02
   33.0000  2.4232395E-02  3.2708439E-02  2.5351934E-02
   34.0000  2.3899479E-02  3.1975298E-02  2.5286499E-02
   35.0000  2.3613092E-02  3.1235312E-02  2.5223474E-02
   36.0000  2.3334814E-02  3.0480505E-02  2.5124693E-02
   37.0000  2.3046030E-02  2.9709657E-02  2.4964347E-02
   38.0000  2.2748589E-02  2.8940115E-02  2.4737721E-02
   39.0000  2.2463184E-02  2.8218935E-02  2.4471118E-02
   40.0000  2.2223156E-02  2.7624806E-02  2.4222870E-02
