    Energy   (100,001)      (010,001)      (001,110)   
  -25.0000  1.6399755E-04  1.7756094E-04  1.7571116E-04
  -24.0000  1.6996494E-04  1.8450449E-04  1.8202719E-04
  -23.0000  1.7633423E-04  1.9195880E-04  1.8877169E-04
  -22.0000  1.8314584E-04  1.9998048E-04  1.9598856E-04
  -21.0000  1.9044575E-04  2.0863467E-04  2.0372781E-04
  -20.0000  1.9828638E-04  2.1799669E-04  2.1204669E-04
  -19.0000  2.0672783E-04  2.2815405E-04  2.2101102E-04
  -18.0000  2.1583927E-04  2.3920905E-04  2.3069682E-04
  -17.0000  2.2570075E-04  2.5128194E-04  2.4119243E-04
  -16.0000  2.3640543E-04  2.6451499E-04  2.5260105E-04
  -15.0000  2.4806230E-04  2.7907775E-04  2.6504399E-04
  -14.0000  2.6079974E-04  2.9517376E-04  2.7866486E-04
  -13.0000  2.7477006E-04  3.1304940E-04  2.9363489E-04
  -12.0000  2.9015526E-04  3.3300566E-04  3.1015996E-04
  -11.0000  3.0717474E-04  3.5541386E-04  3.2848986E-04
  -10.0000  3.2609548E-04  3.8073720E-04  3.4893069E-04
  -9.00000  3.4724576E-04  4.0956054E-04  3.7186184E-04
  -8.00000  3.7103405E-04  4.4263255E-04  3.9775955E-04
  -7.00000  3.9797555E-04  4.8092644E-04  4.2723045E-04
  -6.00000  4.2873021E-04  5.2572968E-04  4.6106039E-04
  -5.00000  4.6415886E-04  5.7878008E-04  5.0028764E-04
  -4.00000  5.0540885E-04  6.4247891E-04  5.4631665E-04
  -3.00000  5.5404960E-04  7.2023748E-04  6.0110240E-04
  -2.00000  6.1229848E-04  8.1706670E-04  6.6746515E-04
  -1.00000  6.8342056E-04  9.4063873E-04  7.4966502E-04
   0.00000  7.7249662E-04  1.1033425E-03  8.5454655E-04
   1.00000  8.8807227E-04  1.3266740E-03  9.9410547E-04
   2.00000  1.0463121E-03  1.6520245E-03  1.1922976E-03
   3.00000  1.2843355E-03  2.1736008E-03  1.5082491E-03
   4.00000  1.7228561E-03  3.1817047E-03  2.1525143E-03
   5.00000  2.8921250E-03  5.8955842E-03  4.0798420E-03
   5.20000  3.2391182E-03  6.7501221E-03  4.6190227E-03
   5.40000  3.5683995E-03  7.6268684E-03  5.0833420E-03
   5.60000  3.8690677E-03  8.5114558E-03  5.4636831E-03
   5.80000  4.1482656E-03  9.4199106E-03  5.7884387E-03
   6.00000  4.4185962E-03  1.0376598E-02  6.0907090E-03
   6.20000  4.6925044E-03  1.1405021E-02  6.3969180E-03
   6.40000  4.9813745E-03  1.2526963E-02  6.7264492E-03
   6.60000  5.2958734E-03  1.3763768E-02  7.0928434E-03
   6.80000  5.6462471E-03  1.5137716E-02  7.5046077E-03
   7.00000  6.0423100E-03  1.6673286E-02  7.9660897E-03
   7.20000  6.4932138E-03  1.8398541E-02  8.4787629E-03
   7.40000  7.0072397E-03  2.0346373E-02  9.0428756E-03
   7.60000  7.5918775E-03  2.2554667E-02  9.6592600E-03
   7.80000  8.2541760E-03  2.5064689E-02  1.0331013E-02
   8.00000  9.0009182E-03  2.7917278E-02  1.1064639E-02
   8.20000  9.8379498E-03  3.1146372E-02  1.1870208E-02
   8.40000  1.0768155E-02  3.4769150E-02  1.2760264E-02
   8.60000  1.1788098E-02  3.8772234E-02  1.3747586E-02
   8.80000  1.2884211E-02  4.3094733E-02  1.4842207E-02
   9.00000  1.4030528E-02  4.7611690E-02  1.6048230E-02
   9.20000  1.5190745E-02  5.2124583E-02  1.7360982E-02
   9.40000  1.6326179E-02  5.6366756E-02  1.8765707E-02
   9.60000  1.7407347E-02  6.0029148E-02  2.0239335E-02
   9.80000  1.8423041E-02  6.2806072E-02  2.1754223E-02
   10.0000  1.9381513E-02  6.4453599E-02  2.3281025E-02
   10.2500  2.0532079E-02  6.4745534E-02  2.5162186E-02
   10.5000  2.1675418E-02  6.3162341E-02  2.6966016E-02
   10.7500  2.2850404E-02  6.0095796E-02  2.8654526E-02
   11.0000  2.4076105E-02  5.6095856E-02  3.0205401E-02
   11.2500  2.5349459E-02  5.1695749E-02  3.1609594E-02
   11.5000  2.6648022E-02  4.7304843E-02  3.2866044E-02
   11.7500  2.7936165E-02  4.3183134E-02  3.3977100E-02
   12.0000  2.9172544E-02  3.9465186E-02  3.4945733E-02
   12.2500  3.0317972E-02  3.6198287E-02  3.5774445E-02
   12.5000  3.1343446E-02  3.3376142E-02  3.6465893E-02
   12.7500  3.2234434E-02  3.0964000E-02  3.7024507E-02
   13.0000  3.2990224E-02  2.8915721E-02  3.7459174E-02
   13.2500  3.3621984E-02  2.7183634E-02  3.7785598E-02
   13.5000  3.4150320E-02  2.5723297E-02  3.8025967E-02
   13.7500  3.4601668E-02  2.4495440E-02  3.8206421E-02
   14.0000  3.5004380E-02  2.3466393E-02  3.8353588E-02
   14.2500  3.5385243E-02  2.2607730E-02  3.8491361E-02
   14.5000  3.5766743E-02  2.1895668E-02  3.8638639E-02
   14.7500  3.6165311E-02  2.1310417E-02  3.8808040E-02
   15.0000  3.6590576E-02  2.0835569E-02  3.9005309E-02
   15.2500  3.7045459E-02  2.0457558E-02  3.9229274E-02
   15.5000  3.7526837E-02  2.0165204E-02  3.9472294E-02
   15.7500  3.8026546E-02  1.9949330E-02  3.9721174E-02
   16.0000  3.8532593E-02  1.9802461E-02  3.9958567E-02
   16.2500  3.9030500E-02  1.9718567E-02  4.0164836E-02
   16.5000  3.9504739E-02  1.9692842E-02  4.0320235E-02
   16.7500  3.9940203E-02  1.9721489E-02  4.0407174E-02
   17.0000  4.0323630E-02  1.9801510E-02  4.0412259E-02
   17.2500  4.0644856E-02  1.9930482E-02  4.0327743E-02
   17.5000  4.0897784E-02  2.0106340E-02  4.0152186E-02
   17.7500  4.1080924E-02  2.0327169E-02  3.9890218E-02
   18.0000  4.1197446E-02  2.0591032E-02  3.9551563E-02
   18.2500  4.1254718E-02  2.0895844E-02  3.9149547E-02
   18.5000  4.1263413E-02  2.1239292E-02  3.8699439E-02
   18.7500  4.1236325E-02  2.1618828E-02  3.8216880E-02
   19.0000  4.1187058E-02  2.2031711E-02  3.7716585E-02
   19.2500  4.1128760E-02  2.2475120E-02  3.7211405E-02
   19.5000  4.1073032E-02  2.2946290E-02  3.6711741E-02
   19.7500  4.1029078E-02  2.3442586E-02  3.6225335E-02
   20.0000  4.1003171E-02  2.3961343E-02  3.5757491E-02
   21.0000  4.1103629E-02  2.6188284E-02  3.4128066E-02
   22.0000  4.1321164E-02  2.8472402E-02  3.2909460E-02
   23.0000  4.1108130E-02  3.0592401E-02  3.2006004E-02
   24.0000  3.9978284E-02  3.2335424E-02  3.1285051E-02
   25.0000  3.7842308E-02  3.3525818E-02  3.0630753E-02
   26.0000  3.5041219E-02  3.4076835E-02  2.9969278E-02
   27.0000  3.2119685E-02  3.4017701E-02  2.9292048E-02
   28.0000  2.9537399E-02  3.3473638E-02  2.8650811E-02
   29.0000  2.7516863E-02  3.2617333E-02  2.8117388E-02
   30.0000  2.6064393E-02  3.1615301E-02  2.7733787E-02
   31.0000  2.5070159E-02  3.0576315E-02  2.7482871E-02
   32.0000  2.4398487E-02  2.9554146E-02  2.7311686E-02
   33.0000  2.3928817E-02  2.8567368E-02  2.7162220E-02
   34.0000  2.3565600E-02  2.7614039E-02  2.6986515E-02
   35.0000  2.3238656E-02  2.6684277E-02  2.6751109E-02
   36.0000  2.2902455E-02  2.5770493E-02  2.6437381E-02
   37.0000  2.2536961E-02  2.4875005E-02  2.6042501E-02
   38.0000  2.2148791E-02  2.4016733E-02  2.5583610E-02
   39.0000  2.1770095E-02  2.3239132E-02  2.5106449E-02
   40.0000  2.1449689E-02  2.2610098E-02  2.4688913E-02
