    Energy   (100,001)      (010,001)      (001,110)   
  -25.0000  1.7242581E-04  1.8112409E-04  1.8403330E-04
  -24.0000  1.7840363E-04  1.8821735E-04  1.9047497E-04
  -23.0000  1.8477006E-04  1.9583471E-04  1.9734684E-04
  -22.0000  1.9156313E-04  2.0403464E-04  2.0469264E-04
  -21.0000  1.9882595E-04  2.1288450E-04  2.1256219E-04
  -20.0000  2.0660752E-04  2.2246224E-04  2.2101248E-04
  -19.0000  2.1496386E-04  2.3285858E-04  2.3010903E-04
  -18.0000  2.2395921E-04  2.4417969E-04  2.3992756E-04
  -17.0000  2.3366771E-04  2.5655055E-04  2.5055602E-04
  -16.0000  2.4417524E-04  2.7011933E-04  2.6209721E-04
  -15.0000  2.5558199E-04  2.8506287E-04  2.7467205E-04
  -14.0000  2.6800545E-04  3.0159394E-04  2.8842376E-04
  -13.0000  2.8158438E-04  3.1997069E-04  3.0352334E-04
  -12.0000  2.9648389E-04  3.4050927E-04  3.2017665E-04
  -11.0000  3.1290202E-04  3.6360086E-04  3.3863395E-04
  -10.0000  3.3107849E-04  3.8973502E-04  3.5920266E-04
  -9.00000  3.5130640E-04  4.1953220E-04  3.8226504E-04
  -8.00000  3.7394825E-04  4.5379005E-04  4.0830293E-04
  -7.00000  3.9945819E-04  4.9355059E-04  4.3793330E-04
  -6.00000  4.2841380E-04  5.4020034E-04  4.7196086E-04
  -5.00000  4.6156248E-04  5.9562358E-04  5.1145811E-04
  -4.00000  4.9989166E-04  6.6244534E-04  5.5789238E-04
  -3.00000  5.4473889E-04  7.4443179E-04  6.1333651E-04
  -2.00000  5.9797335E-04  8.4718288E-04  6.8083919E-04
  -1.00000  6.6231346E-04  9.7940444E-04  7.6512455E-04
   0.00000  7.4192978E-04  1.1554320E-03  8.7404241E-04
   1.00000  8.4372170E-04  1.4007843E-03  1.0219720E-03
   2.00000  9.8048242E-04  1.7663119E-03  1.2393030E-03
   3.00000  1.1808553E-03  2.3732312E-03  1.6063186E-03
   4.00000  1.5348888E-03  3.6178454E-03  2.4292188E-03
   5.00000  2.4333182E-03  7.2483868E-03  5.2039587E-03
   5.20000  2.7070141E-03  8.4075891E-03  6.0298399E-03
   5.40000  2.9791101E-03  9.5762493E-03  6.7271955E-03
   5.60000  3.2417040E-03  1.0720576E-02  7.2288301E-03
   5.80000  3.4974622E-03  1.1852526E-02  7.5416813E-03
   6.00000  3.7518943E-03  1.2998787E-02  7.7119960E-03
   6.20000  4.0100404E-03  1.4186756E-02  7.7969512E-03
   6.40000  4.2761491E-03  1.5442249E-02  7.8486504E-03
   6.60000  4.5541101E-03  1.6790452E-02  7.9077300E-03
   6.80000  4.8478271E-03  1.8257169E-02  8.0032860E-03
   7.00000  5.1614292E-03  1.9869851E-02  8.1557940E-03
   7.20000  5.4993673E-03  2.1658112E-02  8.3805174E-03
   7.40000  5.8664146E-03  2.3653315E-02  8.6900171E-03
   7.60000  6.2676094E-03  2.5887088E-02  9.0952186E-03
   7.80000  6.7081708E-03  2.8388760E-02  9.6049119E-03
   8.00000  7.1933794E-03  3.1181024E-02  1.0224472E-02
   8.20000  7.7283991E-03  3.4272353E-02  1.0955801E-02
   8.40000  8.3180293E-03  3.7645870E-02  1.1798063E-02
   8.60000  8.9663845E-03  4.1246661E-02  1.2746252E-02
   8.80000  9.6765121E-03  4.4970226E-02  1.3788101E-02
   9.00000  1.0450028E-02  4.8656452E-02  1.4901881E-02
   9.20000  1.1286936E-02  5.2095744E-02  1.6056800E-02
   9.40000  1.2185822E-02  5.5053189E-02  1.7217127E-02
   9.60000  1.3144470E-02  5.7310114E-02  1.8350007E-02
   9.80000  1.4160642E-02  5.8711732E-02  1.9434513E-02
   10.0000  1.5232337E-02  5.9201903E-02  2.0467649E-02
   10.2500  1.6645465E-02  5.8615404E-02  2.1709947E-02
   10.5000  1.8127533E-02  5.6948748E-02  2.2944091E-02
   10.7500  1.9651380E-02  5.4538042E-02  2.4216053E-02
   11.0000  2.1178234E-02  5.1691612E-02  2.5548518E-02
   11.2500  2.2667935E-02  4.8644309E-02  2.6935982E-02
   11.5000  2.4086250E-02  4.5558644E-02  2.8350711E-02
   11.7500  2.5408234E-02  4.2544574E-02  2.9752123E-02
   12.0000  2.6620457E-02  3.9677601E-02  3.1095720E-02
   12.2500  2.7721098E-02  3.7008799E-02  3.2340407E-02
   12.5000  2.8716444E-02  3.4568878E-02  3.3454293E-02
   12.7500  2.9615855E-02  3.2370619E-02  3.4418902E-02
   13.0000  3.0428369E-02  3.0412972E-02  3.5230934E-02
   13.2500  3.1161821E-02  2.8686241E-02  3.5901367E-02
   13.5000  3.1824381E-02  2.7175681E-02  3.6452498E-02
   13.7500  3.2426549E-02  2.5863665E-02  3.6913625E-02
   14.0000  3.2981707E-02  2.4731504E-02  3.7316216E-02
   14.2500  3.3505083E-02  2.3760966E-02  3.7689529E-02
   14.5000  3.4011808E-02  2.2935216E-02  3.8057277E-02
   14.7500  3.4514839E-02  2.2239222E-02  3.8435540E-02
   15.0000  3.5023317E-02  2.1659784E-02  3.8831863E-02
   15.2500  3.5541624E-02  2.1185366E-02  3.9245341E-02
   15.5000  3.6069193E-02  2.0805853E-02  3.9667504E-02
   15.7500  3.6600972E-02  2.0512309E-02  4.0083822E-02
   16.0000  3.7128412E-02  2.0296781E-02  4.0475693E-02
   16.2500  3.7640796E-02  2.0152149E-02  4.0822723E-02
   16.5000  3.8126772E-02  2.0072028E-02  4.1105123E-02
   16.7500  3.8575877E-02  2.0050705E-02  4.1305933E-02
   17.0000  3.8979895E-02  2.0083091E-02  4.1412827E-02
   17.2500  3.9333861E-02  2.0164687E-02  4.1419254E-02
   17.5000  3.9636577E-02  2.0291542E-02  4.1324793E-02
   17.7500  3.9890607E-02  2.0460205E-02  4.1134753E-02
   18.0000  4.0101788E-02  2.0667665E-02  4.0859150E-02
   18.2500  4.0278398E-02  2.0911286E-02  4.0511315E-02
   18.5000  4.0430141E-02  2.1188746E-02  4.0106393E-02
   18.7500  4.0567130E-02  2.1497985E-02  3.9659929E-02
   19.0000  4.0698996E-02  2.1837172E-02  3.9186698E-02
   19.2500  4.0834186E-02  2.2204698E-02  3.8699817E-02
   19.5000  4.0979479E-02  2.2599181E-02  3.8210159E-02
   19.7500  4.1139656E-02  2.3019419E-02  3.7726088E-02
   20.0000  4.1317258E-02  2.3464155E-02  3.7253634E-02
   21.0000  4.2172837E-02  2.5442952E-02  3.5551788E-02
   22.0000  4.2997142E-02  2.7601910E-02  3.4201075E-02
   23.0000  4.3239933E-02  2.9731104E-02  3.3122327E-02
   24.0000  4.2387611E-02  3.1589208E-02  3.2203335E-02
   25.0000  4.0320816E-02  3.2964701E-02  3.1373086E-02
   26.0000  3.7426492E-02  3.3754997E-02  3.0611363E-02
   27.0000  3.4342700E-02  3.3991607E-02  2.9936243E-02
   28.0000  3.1600245E-02  3.3790967E-02  2.9383457E-02
   29.0000  2.9457964E-02  3.3285268E-02  2.8982657E-02
   30.0000  2.7944892E-02  3.2582540E-02  2.8739429E-02
   31.0000  2.6964606E-02  3.1762564E-02  2.8631781E-02
   32.0000  2.6375290E-02  3.0880990E-02  2.8617989E-02
   33.0000  2.6043067E-02  2.9961014E-02  2.8646503E-02
   34.0000  2.5856895E-02  2.9007010E-02  2.8667632E-02
   35.0000  2.5728416E-02  2.8020312E-02  2.8638971E-02
   36.0000  2.5593383E-02  2.7007139E-02  2.8526311E-02
   37.0000  2.5413576E-02  2.5984723E-02  2.8306798E-02
   38.0000  2.5178692E-02  2.4988345E-02  2.7979370E-02
   39.0000  2.4909904E-02  2.4079599E-02  2.7583171E-02
   40.0000  2.4659230E-02  2.3344724E-02  2.7208264E-02
