    Energy   (100,001)      (010,001)      (001,110)   
  -25.0000  1.6909995E-04  1.8330335E-04  1.7511580E-04
  -24.0000  1.7519587E-04  1.9023647E-04  1.8153046E-04
  -23.0000  1.8170206E-04  1.9766900E-04  1.8838762E-04
  -22.0000  1.8865999E-04  2.0565552E-04  1.9573335E-04
  -21.0000  1.9611685E-04  2.1425874E-04  2.0362026E-04
  -20.0000  2.0412654E-04  2.2355107E-04  2.1210869E-04
  -19.0000  2.1275087E-04  2.3361653E-04  2.2126818E-04
  -18.0000  2.2206114E-04  2.4455317E-04  2.3117928E-04
  -17.0000  2.3213993E-04  2.5647608E-04  2.4193584E-04
  -16.0000  2.4308350E-04  2.6952122E-04  2.5364781E-04
  -15.0000  2.5500469E-04  2.8385034E-04  2.6644487E-04
  -14.0000  2.6803665E-04  2.9965725E-04  2.8048107E-04
  -13.0000  2.8233764E-04  3.1717621E-04  2.9594084E-04
  -12.0000  2.9809725E-04  3.3669283E-04  3.1304684E-04
  -11.0000  3.1554463E-04  3.5855879E-04  3.3207046E-04
  -10.0000  3.3495933E-04  3.8321196E-04  3.5334601E-04
  -9.00000  3.5668625E-04  4.1120410E-04  3.7729018E-04
  -8.00000  3.8115601E-04  4.4324010E-04  4.0442930E-04
  -7.00000  4.0891386E-04  4.8023441E-04  4.3543847E-04
  -6.00000  4.4066133E-04  5.2339435E-04  4.7119888E-04
  -5.00000  4.7731805E-04  5.7434647E-04  5.1288461E-04
  -4.00000  5.2011648E-04  6.3533462E-04  5.6209845E-04
  -3.00000  5.7075320E-04  7.0954243E-04  6.2109345E-04
  -2.00000  6.3164218E-04  8.0164382E-04  6.9315323E-04
  -1.00000  7.0636599E-04  9.1879975E-04  7.8328685E-04
   0.00000  8.0054703E-04  1.0726054E-03  8.9960578E-04
   1.00000  9.2372198E-04  1.2833075E-03  1.0563623E-03
   2.00000  1.0940495E-03  1.5903851E-03  1.2817390E-03
   3.00000  1.3532391E-03  2.0858057E-03  1.6427969E-03
   4.00000  1.8350134E-03  3.0641823E-03  2.3587711E-03
   5.00000  3.1209320E-03  5.8047663E-03  4.4142054E-03
   5.20000  3.5136119E-03  6.6637603E-03  5.0960235E-03
   5.40000  3.9012070E-03  7.5242515E-03  5.8113715E-03
   5.60000  4.2752887E-03  8.3641566E-03  6.5393441E-03
   5.80000  4.6456561E-03  9.1964248E-03  7.2754719E-03
   6.00000  5.0275283E-03  1.0044224E-02  8.0174595E-03
   6.20000  5.4351992E-03  1.0929800E-02  8.7604263E-03
   6.40000  5.8796857E-03  1.1872628E-02  9.4986598E-03
   6.60000  6.3668721E-03  1.2890087E-02  1.0228138E-02
   6.80000  6.8958470E-03  1.3998520E-02  1.0947601E-02
   7.00000  7.4593070E-03  1.5214605E-02  1.1658421E-02
   7.20000  8.0473960E-03  1.6556851E-02  1.2364036E-02
   7.40000  8.6531020E-03  1.8046536E-02  1.3069611E-02
   7.60000  9.2751748E-03  1.9707432E-02  1.3782410E-02
   7.80000  9.9167669E-03  2.1564378E-02  1.4512022E-02
   8.00000  1.0581767E-02  2.3641281E-02  1.5268414E-02
   8.20000  1.1271802E-02  2.5958991E-02  1.6057315E-02
   8.40000  1.1985393E-02  2.8533090E-02  1.6875476E-02
   8.60000  1.2719270E-02  3.1371477E-02  1.7709276E-02
   8.80000  1.3471267E-02  3.4471237E-02  1.8538924E-02
   9.00000  1.4243817E-02  3.7813875E-02  1.9347929E-02
   9.20000  1.5046493E-02  4.1358418E-02  2.0134086E-02
   9.40000  1.5895915E-02  4.5032856E-02  2.0915832E-02
   9.60000  1.6812589E-02  4.8725989E-02  2.1729475E-02
   9.80000  1.7816063E-02  5.2283377E-02  2.2618344E-02
   10.0000  1.8920691E-02  5.5511827E-02  2.3619688E-02
   10.2500  2.0453654E-02  5.8757146E-02  2.5060766E-02
   10.5000  2.2151328E-02  6.0763370E-02  2.6708570E-02
   10.7500  2.3985882E-02  6.1285209E-02  2.8507783E-02
   11.0000  2.5898322E-02  6.0306963E-02  3.0352093E-02
   11.2500  2.7802022E-02  5.8042626E-02  3.2107388E-02
   11.5000  2.9596200E-02  5.4854668E-02  3.3644575E-02
   11.7500  3.1183514E-02  5.1141195E-02  3.4867337E-02
   12.0000  3.2489637E-02  4.7247772E-02  3.5728541E-02
   12.2500  3.3479974E-02  4.3427210E-02  3.6232608E-02
   12.5000  3.4165011E-02  3.9839629E-02  3.6425785E-02
   12.7500  3.4592416E-02  3.6572888E-02  3.6379783E-02
   13.0000  3.4832237E-02  3.3664999E-02  3.6175396E-02
   13.2500  3.4960983E-02  3.1121261E-02  3.5890243E-02
   13.5000  3.5048912E-02  2.8926112E-02  3.5591236E-02
   13.7500  3.5152652E-02  2.7051671E-02  3.5330948E-02
   14.0000  3.5312697E-02  2.5464213E-02  3.5147030E-02
   14.2500  3.5554011E-02  2.4128792E-02  3.5063756E-02
   14.5000  3.5888128E-02  2.3012159E-02  3.5094374E-02
   14.7500  3.6315599E-02  2.2084334E-02  3.5243186E-02
   15.0000  3.6828182E-02  2.1319241E-02  3.5507030E-02
   15.2500  3.7410553E-02  2.0694733E-02  3.5876204E-02
   15.5000  3.8041637E-02  2.0192283E-02  3.6335040E-02
   15.7500  3.8695742E-02  1.9796539E-02  3.6862399E-02
   16.0000  3.9343754E-02  1.9494833E-02  3.7432383E-02
   16.2500  3.9954584E-02  1.9276725E-02  3.8015515E-02
   16.5000  4.0496965E-02  1.9133587E-02  3.8580510E-02
   16.7500  4.0941573E-02  1.9058244E-02  3.9096583E-02
   17.0000  4.1263327E-02  1.9044661E-02  3.9536029E-02
   17.2500  4.1443585E-02  1.9087685E-02  3.9876647E-02
   17.5000  4.1471924E-02  1.9182846E-02  4.0103556E-02
   17.7500  4.1347183E-02  1.9326205E-02  4.0210079E-02
   18.0000  4.1077562E-02  1.9514247E-02  4.0197560E-02
   18.2500  4.0679711E-02  1.9743829E-02  4.0074261E-02
   18.5000  4.0176948E-02  2.0012144E-02  3.9853632E-02
   18.7500  3.9596879E-02  2.0316716E-02  3.9552301E-02
   19.0000  3.8968780E-02  2.0655413E-02  3.9188135E-02
   19.2500  3.8321092E-02  2.1026469E-02  3.8778552E-02
   19.5000  3.7679307E-02  2.1428515E-02  3.8339245E-02
   19.7500  3.7064499E-02  2.1860517E-02  3.7883400E-02
   20.0000  3.6492794E-02  2.2321533E-02  3.7421545E-02
   21.0000  3.4823453E-02  2.4420120E-02  3.5660070E-02
   22.0000  3.4231393E-02  2.6808086E-02  3.4200153E-02
   23.0000  3.4394682E-02  2.9280288E-02  3.3015701E-02
   24.0000  3.4797098E-02  3.1556239E-02  3.1973984E-02
   25.0000  3.4949835E-02  3.3344519E-02  3.0962875E-02
   26.0000  3.4553537E-02  3.4441309E-02  2.9953120E-02
   27.0000  3.3607557E-02  3.4805481E-02  2.9000568E-02
   28.0000  3.2319944E-02  3.4567810E-02  2.8181255E-02
   29.0000  3.0947175E-02  3.3928908E-02  2.7548506E-02
   30.0000  2.9682153E-02  3.3071399E-02  2.7111916E-02
   31.0000  2.8616342E-02  3.2126268E-02  2.6835791E-02
   32.0000  2.7755403E-02  3.1170530E-02  2.6656999E-02
   33.0000  2.7055463E-02  3.0240127E-02  2.6508522E-02
   34.0000  2.6455827E-02  2.9345707E-02  2.6334887E-02
   35.0000  2.5899576E-02  2.8485790E-02  2.6097243E-02
   36.0000  2.5344607E-02  2.7656442E-02  2.5773357E-02
   37.0000  2.4770207E-02  2.6858583E-02  2.5358540E-02
   38.0000  2.4182556E-02  2.6104906E-02  2.4870794E-02
   39.0000  2.3619837E-02  2.5427923E-02  2.4360488E-02
   40.0000  2.3148186E-02  2.4882274E-02  2.3912855E-02
