    Energy   (100,001)      (010,001)      (001,110)   
  -25.0000  1.6764204E-04  1.8714052E-04  1.7497389E-04
  -24.0000  1.7386694E-04  1.9410236E-04  1.8161242E-04
  -23.0000  1.8052215E-04  2.0156107E-04  1.8872504E-04
  -22.0000  1.8765224E-04  2.0957066E-04  1.9636280E-04
  -21.0000  1.9530804E-04  2.1819315E-04  2.0458422E-04
  -20.0000  2.0354776E-04  2.2750015E-04  2.1345673E-04
  -19.0000  2.1243839E-04  2.3757467E-04  2.2305837E-04
  -18.0000  2.2205740E-04  2.4851356E-04  2.3348000E-04
  -17.0000  2.3249486E-04  2.6043042E-04  2.4482801E-04
  -16.0000  2.4385607E-04  2.7345941E-04  2.5722775E-04
  -15.0000  2.5626496E-04  2.8775997E-04  2.7082794E-04
  -14.0000  2.6986834E-04  3.0352314E-04  2.8580633E-04
  -13.0000  2.8484143E-04  3.2097956E-04  3.0237718E-04
  -12.0000  3.0139510E-04  3.4041028E-04  3.2080106E-04
  -11.0000  3.1978538E-04  3.6216111E-04  3.4139806E-04
  -10.0000  3.4032634E-04  3.8666219E-04  3.6456584E-04
  -9.00000  3.6340752E-04  4.1445507E-04  3.9080466E-04
  -8.00000  3.8951829E-04  4.4623078E-04  4.2075287E-04
  -7.00000  4.1928235E-04  4.8288469E-04  4.5523837E-04
  -6.00000  4.5350790E-04  5.2559720E-04  4.9535520E-04
  -5.00000  4.9326267E-04  5.7595578E-04  5.4258120E-04
  -4.00000  5.3998989E-04  6.3614560E-04  5.9896527E-04
  -3.00000  5.9569475E-04  7.0925870E-04  6.6743877E-04
  -2.00000  6.6325920E-04  7.9981870E-04  7.5236171E-04
  -1.00000  7.4700683E-04  9.1472424E-04  8.6054657E-04
   0.00000  8.5379941E-04  1.0650752E-03  1.0033492E-03
   1.00000  9.9540345E-04  1.2700801E-03  1.2014556E-03
   2.00000  1.1944220E-03  1.5667093E-03  1.4977314E-03
   3.00000  1.5029250E-03  2.0394632E-03  2.0008846E-03
   4.00000  2.0862010E-03  2.9521614E-03  3.0989294E-03
   5.00000  3.6601110E-03  5.4227358E-03  6.6076004E-03
   5.20000  4.1564468E-03  6.1887635E-03  7.7063671E-03
   5.40000  4.6641834E-03  6.9588459E-03  8.7538579E-03
   5.60000  5.1742509E-03  7.7186174E-03  9.7019848E-03
   5.80000  5.6946725E-03  8.4857207E-03  1.0553237E-02
   6.00000  6.2369936E-03  9.2869179E-03  1.1323529E-02
   6.20000  6.8107272E-03  1.0147538E-02  1.2029618E-02
   6.40000  7.4227043E-03  1.1089696E-02  1.2689922E-02
   6.60000  8.0772284E-03  1.2133417E-02  1.3325897E-02
   6.80000  8.7756980E-03  1.3298465E-02  1.3961178E-02
   7.00000  9.5159114E-03  1.4606227E-02  1.4619868E-02
   7.20000  1.0291807E-02  1.6081036E-02  1.5325272E-02
   7.40000  1.1094229E-02  1.7750028E-02  1.6099209E-02
   7.60000  1.1912744E-02  1.9640658E-02  1.6961408E-02
   7.80000  1.2738020E-02  2.1775876E-02  1.7928521E-02
   8.00000  1.3564310E-02  2.4168397E-02  1.9012544E-02
   8.20000  1.4391664E-02  2.6816582E-02  2.0218641E-02
   8.40000  1.5227404E-02  2.9703874E-02  2.1542559E-02
   8.60000  1.6085999E-02  3.2801320E-02  2.2968197E-02
   8.80000  1.6986768E-02  3.6069915E-02  2.4466333E-02
   9.00000  1.7949778E-02  3.9459308E-02  2.5995801E-02
   9.20000  1.8991265E-02  4.2902447E-02  2.7507961E-02
   9.40000  2.0120004E-02  4.6309230E-02  2.8954100E-02
   9.60000  2.1335236E-02  4.9563442E-02  3.0293943E-02
   9.80000  2.2626115E-02  5.2526150E-02  3.1502514E-02
   10.0000  2.3972290E-02  5.5046147E-02  3.2573118E-02
   10.2500  2.5688867E-02  5.7350764E-02  3.3733825E-02
   10.5000  2.7379335E-02  5.8505161E-02  3.4737394E-02
   10.7500  2.8969352E-02  5.8399364E-02  3.5626157E-02
   11.0000  3.0387249E-02  5.7079840E-02  3.6419138E-02
   11.2500  3.1578253E-02  5.4747539E-02  3.7107372E-02
   11.5000  3.2516748E-02  5.1709244E-02  3.7665895E-02
   11.7500  3.3210090E-02  4.8298624E-02  3.8069056E-02
   12.0000  3.3693592E-02  4.4804884E-02  3.8300382E-02
   12.2500  3.4019711E-02  4.1435506E-02  3.8356685E-02
   12.5000  3.4245790E-02  3.8314568E-02  3.8251293E-02
   12.7500  3.4424373E-02  3.5501150E-02  3.8014732E-02
   13.0000  3.4598130E-02  3.3011019E-02  3.7688132E-02
   13.2500  3.4798545E-02  3.0834225E-02  3.7314146E-02
   13.5000  3.5046568E-02  2.8947605E-02  3.6930998E-02
   13.7500  3.5353999E-02  2.7322778E-02  3.6569902E-02
   14.0000  3.5724962E-02  2.5930736E-02  3.6254417E-02
   14.2500  3.6157217E-02  2.4744160E-02  3.6000681E-02
   14.5000  3.6643271E-02  2.3738405E-02  3.5817988E-02
   14.7500  3.7171372E-02  2.2891764E-02  3.5709444E-02
   15.0000  3.7726469E-02  2.2185379E-02  3.5672608E-02
   15.2500  3.8291201E-02  2.1602986E-02  3.5700125E-02
   15.5000  3.8846928E-02  2.1130617E-02  3.5780403E-02
   15.7500  3.9374811E-02  2.0756288E-02  3.5898415E-02
   16.0000  3.9856912E-02  2.0469708E-02  3.6036700E-02
   16.2500  4.0277255E-02  2.0262022E-02  3.6176584E-02
   16.5000  4.0622801E-02  2.0125577E-02  3.6299575E-02
   16.7500  4.0884230E-02  2.0053723E-02  3.6388819E-02
   17.0000  4.1056481E-02  2.0040635E-02  3.6430440E-02
   17.2500  4.1138995E-02  2.0081162E-02  3.6414589E-02
   17.5000  4.1135611E-02  2.0170700E-02  3.6336039E-02
   17.7500  4.1054137E-02  2.0305087E-02  3.6194259E-02
   18.0000  4.0905618E-02  2.0480516E-02  3.5992991E-02
   18.2500  4.0703390E-02  2.0693473E-02  3.5739420E-02
   18.5000  4.0462005E-02  2.0940698E-02  3.5443112E-02
   18.7500  4.0196148E-02  2.1219158E-02  3.5114873E-02
   19.0000  3.9919635E-02  2.1526060E-02  3.4765680E-02
   19.2500  3.9644574E-02  2.1858880E-02  3.4405770E-02
   19.5000  3.9380729E-02  2.2215410E-02  3.4043950E-02
   19.7500  3.9135112E-02  2.2593749E-02  3.3687185E-02
   20.0000  3.8911878E-02  2.2992111E-02  3.3340560E-02
   21.0000  3.8242948E-02  2.4737490E-02  3.2111903E-02
   22.0000  3.7733813E-02  2.6599256E-02  3.1156791E-02
   23.0000  3.6937157E-02  2.8424465E-02  3.0374638E-02
   24.0000  3.5507631E-02  3.0082581E-02  2.9642522E-02
   25.0000  3.3449693E-02  3.1483358E-02  2.8885094E-02
   26.0000  3.1087488E-02  3.2557748E-02  2.8095063E-02
   27.0000  2.8833576E-02  3.3246913E-02  2.7326791E-02
   28.0000  2.6937974E-02  3.3542846E-02  2.6645705E-02
   29.0000  2.5479858E-02  3.3487016E-02  2.6094548E-02
   30.0000  2.4434614E-02  3.3150926E-02  2.5682690E-02
   31.0000  2.3724338E-02  3.2613436E-02  2.5391084E-02
   32.0000  2.3255902E-02  3.1942114E-02  2.5182082E-02
   33.0000  2.2942554E-02  3.1188507E-02  2.5008528E-02
   34.0000  2.2712572E-02  3.0392524E-02  2.4822885E-02
   35.0000  2.2512145E-02  2.9587583E-02  2.4586269E-02
   36.0000  2.2307206E-02  2.8801742E-02  2.4276677E-02
   37.0000  2.2084572E-02  2.8055707E-02  2.3894985E-02
   38.0000  2.1850704E-02  2.7364731E-02  2.3467353E-02
   39.0000  2.1626670E-02  2.6751312E-02  2.3043711E-02
   40.0000  2.1439390E-02  2.6258568E-02  2.2687922E-02
