    Energy   (100,001)      (010,001)      (001,110)   
  -25.0000  1.7351239E-04  1.8200577E-04  1.7247945E-04
  -24.0000  1.7976739E-04  1.8895033E-04  1.7860429E-04
  -23.0000  1.8644600E-04  1.9639743E-04  1.8513608E-04
  -22.0000  1.9359151E-04  2.0440209E-04  1.9211542E-04
  -21.0000  2.0125321E-04  2.1302759E-04  1.9958840E-04
  -20.0000  2.0948753E-04  2.2234696E-04  2.0760760E-04
  -19.0000  2.1835928E-04  2.3244497E-04  2.1623318E-04
  -18.0000  2.2794339E-04  2.4342058E-04  2.2553436E-04
  -17.0000  2.3832683E-04  2.5538994E-04  2.3559116E-04
  -16.0000  2.4961122E-04  2.6849030E-04  2.4649658E-04
  -15.0000  2.6191599E-04  2.8288497E-04  2.5835935E-04
  -14.0000  2.7538252E-04  2.9876969E-04  2.7130736E-04
  -13.0000  2.9017938E-04  3.1638110E-04  2.8549217E-04
  -12.0000  3.0650924E-04  3.3600779E-04  3.0109462E-04
  -11.0000  3.2461802E-04  3.5800529E-04  3.1833245E-04
  -10.0000  3.4480715E-04  3.8281639E-04  3.3747018E-04
  -9.00000  3.6745032E-04  4.1099940E-04  3.5883259E-04
  -8.00000  3.9301680E-04  4.4326807E-04  3.8282315E-04
  -7.00000  4.2210467E-04  4.8054912E-04  4.0994990E-04
  -6.00000  4.5548911E-04  5.2406746E-04  4.4086254E-04
  -5.00000  4.9419508E-04  5.7547576E-04  4.7640729E-04
  -4.00000  5.3961012E-04  6.3705827E-04  5.1771048E-04
  -3.00000  5.9366716E-04  7.1206429E-04  5.6631161E-04
  -2.00000  6.5915625E-04  8.0528079E-04  6.2438578E-04
  -1.00000  7.4029209E-04  9.2407722E-04  6.9514068E-04
   0.00000  8.4383825E-04  1.0804670E-03  7.8358765E-04
   1.00000  9.8160424E-04  1.2956295E-03  8.9822319E-04
   2.00000  1.1769638E-03  1.6114443E-03  1.0553506E-03
   3.00000  1.4865106E-03  2.1274793E-03  1.2932883E-03
   4.00000  2.1045974E-03  3.1717698E-03  1.7407580E-03
   5.00000  3.9163149E-03  6.1963907E-03  2.9702381E-03
   5.20000  4.4646752E-03  7.1406236E-03  3.3287199E-03
   5.40000  4.9797555E-03  8.0708391E-03  3.6615132E-03
   5.60000  5.4410225E-03  8.9595598E-03  3.9613879E-03
   5.80000  5.8581719E-03  9.8216441E-03  4.2411214E-03
   6.00000  6.2500407E-03  1.0684102E-02  4.5165027E-03
   6.20000  6.6346757E-03  1.1572321E-02  4.7995683E-03
   6.40000  7.0272304E-03  1.2507682E-02  5.0982618E-03
   6.60000  7.4401485E-03  1.3508421E-02  5.4176652E-03
   6.80000  7.8834890E-03  1.4590760E-02  5.7610834E-03
   7.00000  8.3649336E-03  1.5769483E-02  6.1306725E-03
   7.20000  8.8896657E-03  1.7057689E-02  6.5277059E-03
   7.40000  9.4605538E-03  1.8466378E-02  6.9527201E-03
   7.60000  1.0079024E-02  2.0005125E-02  7.4058449E-03
   7.80000  1.0746628E-02  2.1684670E-02  7.8875202E-03
   8.00000  1.1466771E-02  2.3520951E-02  8.3994854E-03
   8.20000  1.2245696E-02  2.5538313E-02  8.9455508E-03
   8.40000  1.3092156E-02  2.7769035E-02  9.5315605E-03
   8.60000  1.4015978E-02  3.0248208E-02  1.0164444E-02
   8.80000  1.5026210E-02  3.3005212E-02  1.0850845E-02
   9.00000  1.6129450E-02  3.6053487E-02  1.1595947E-02
   9.20000  1.7328578E-02  3.9379570E-02  1.2402836E-02
   9.40000  1.8621899E-02  4.2931975E-02  1.3272400E-02
   9.60000  2.0002595E-02  4.6611267E-02  1.4203602E-02
   9.80000  2.1458326E-02  5.0264322E-02  1.5193926E-02
   10.0000  2.2970701E-02  5.3687015E-02  1.6239757E-02
   10.2500  2.4901688E-02  5.7275992E-02  1.7618192E-02
   10.5000  2.6816531E-02  5.9672691E-02  1.9066477E-02
   10.7500  2.8637811E-02  6.0560012E-02  2.0574936E-02
   11.0000  3.0285746E-02  5.9873624E-02  2.2132715E-02
   11.2500  3.1692833E-02  5.7814916E-02  2.3724068E-02
   11.5000  3.2817329E-02  5.4766194E-02  2.5326642E-02
   11.7500  3.3649762E-02  5.1162104E-02  2.6913124E-02
   12.0000  3.4211448E-02  4.7382066E-02  2.8454969E-02
   12.2500  3.4547809E-02  4.3699136E-02  2.9926270E-02
   12.5000  3.4717415E-02  4.0278756E-02  3.1306242E-02
   12.7500  3.4779049E-02  3.7201884E-02  3.2580953E-02
   13.0000  3.4783129E-02  3.4492683E-02  3.3745431E-02
   13.2500  3.4768946E-02  3.2141638E-02  3.4804691E-02
   13.5000  3.4764812E-02  3.0121844E-02  3.5772494E-02
   13.7500  3.4789101E-02  2.8399297E-02  3.6668506E-02
   14.0000  3.4851522E-02  2.6938845E-02  3.7514989E-02
   14.2500  3.4954488E-02  2.5707276E-02  3.8333808E-02
   14.5000  3.5094535E-02  2.4674699E-02  3.9144071E-02
   14.7500  3.5263807E-02  2.3814955E-02  3.9960408E-02
   15.0000  3.5451613E-02  2.3105527E-02  4.0791781E-02
   15.2500  3.5645967E-02  2.2527216E-02  4.1640690E-02
   15.5000  3.5835002E-02  2.2063734E-02  4.2502727E-02
   15.7500  3.6008079E-02  2.1701285E-02  4.3366507E-02
   16.0000  3.6156498E-02  2.1428165E-02  4.4214100E-02
   16.2500  3.6273801E-02  2.1234396E-02  4.5022088E-02
   16.5000  3.6355762E-02  2.1111417E-02  4.5763309E-02
   16.7500  3.6400201E-02  2.1051818E-02  4.6409248E-02
   17.0000  3.6406746E-02  2.1049139E-02  4.6932843E-02
   17.2500  3.6376623E-02  2.1097699E-02  4.7311322E-02
   17.5000  3.6312490E-02  2.1192473E-02  4.7528623E-02
   17.7500  3.6218312E-02  2.1329000E-02  4.7576993E-02
   18.0000  3.6099246E-02  2.1503309E-02  4.7457522E-02
   18.2500  3.5961483E-02  2.1711870E-02  4.7179583E-02
   18.5000  3.5812054E-02  2.1951556E-02  4.6759394E-02
   18.7500  3.5658549E-02  2.2219614E-02  4.6218007E-02
   19.0000  3.5508779E-02  2.2513661E-02  4.5579063E-02
   19.2500  3.5370376E-02  2.2831683E-02  4.4866631E-02
   19.5000  3.5250361E-02  2.3172046E-02  4.4103333E-02
   19.7500  3.5154743E-02  2.3533445E-02  4.3309036E-02
   20.0000  3.5088227E-02  2.3914689E-02  4.2500459E-02
   21.0000  3.5161450E-02  2.5601157E-02  3.9381652E-02
   22.0000  3.5740203E-02  2.7437116E-02  3.6793450E-02
   23.0000  3.6536409E-02  2.9261455E-02  3.4779679E-02
   24.0000  3.7142077E-02  3.0885302E-02  3.3169321E-02
   25.0000  3.7225621E-02  3.2134909E-02  3.1782028E-02
   26.0000  3.6626559E-02  3.2908771E-02  3.0514292E-02
   27.0000  3.5366307E-02  3.3202246E-02  2.9353914E-02
   28.0000  3.3629797E-02  3.3085434E-02  2.8346923E-02
   29.0000  3.1705753E-02  3.2661374E-02  2.7544863E-02
   30.0000  2.9888534E-02  3.2041119E-02  2.6966628E-02
   31.0000  2.8377506E-02  3.1326424E-02  2.6588847E-02
   32.0000  2.7215373E-02  3.0578147E-02  2.6356411E-02
   33.0000  2.6350043E-02  2.9820654E-02  2.6206149E-02
   34.0000  2.5704248E-02  2.9056494E-02  2.6080165E-02
   35.0000  2.5206575E-02  2.8276762E-02  2.5928752E-02
   36.0000  2.4802558E-02  2.7471978E-02  2.5711756E-02
   37.0000  2.4455648E-02  2.6643293E-02  2.5403797E-02
   38.0000  2.4144561E-02  2.5812967E-02  2.5005317E-02
   39.0000  2.3863381E-02  2.5034392E-02  2.4557893E-02
   40.0000  2.3626467E-02  2.4392395E-02  2.4148930E-02
