    Energy   (100,001)      (010,001)      (001,110)   
  -25.0000  1.6588696E-04  1.8769829E-04  1.7313388E-04
  -24.0000  1.7195790E-04  1.9462431E-04  1.7950533E-04
  -23.0000  1.7844047E-04  2.0204029E-04  1.8631612E-04
  -22.0000  1.8537635E-04  2.0999902E-04  1.9361179E-04
  -21.0000  1.9281297E-04  2.1856107E-04  2.0144429E-04
  -20.0000  2.0080445E-04  2.2779628E-04  2.0987315E-04
  -19.0000  2.0941289E-04  2.3778553E-04  2.1896689E-04
  -18.0000  2.1870981E-04  2.4862304E-04  2.2880474E-04
  -17.0000  2.2877805E-04  2.6041922E-04  2.3947887E-04
  -16.0000  2.3971405E-04  2.7330420E-04  2.5109709E-04
  -15.0000  2.5163077E-04  2.8743247E-04  2.6378628E-04
  -14.0000  2.6466135E-04  3.0298878E-04  2.7769678E-04
  -13.0000  2.7896380E-04  3.2019581E-04  2.9300808E-04
  -12.0000  2.9472712E-04  3.3932439E-04  3.0993619E-04
  -11.0000  3.1217924E-04  3.6070708E-04  3.2874341E-04
  -10.0000  3.3159765E-04  3.8475663E-04  3.4975144E-04
  -9.00000  3.5332364E-04  4.1199147E-04  3.7335916E-04
  -8.00000  3.7778192E-04  4.4307150E-04  4.0006741E-04
  -7.00000  4.0550805E-04  4.7884941E-04  4.3051392E-04
  -6.00000  4.3718766E-04  5.2044608E-04  4.6552392E-04
  -5.00000  4.7371407E-04  5.6936435E-04  5.0618544E-04
  -4.00000  5.1627559E-04  6.2766632E-04  5.5396495E-04
  -3.00000  5.6649290E-04  6.9826037E-04  6.1089164E-04
  -2.00000  6.2664537E-04  7.8538830E-04  6.7986548E-04
  -1.00000  7.0006653E-04  8.9550187E-04  7.6520261E-04
   0.00000  7.9189079E-04  1.0389664E-03  8.7367725E-04
   1.00000  9.1062054E-04  1.2337363E-03  1.0167255E-03
   2.00000  1.0719575E-03  1.5145725E-03  1.2158361E-03
   3.00000  1.3106384E-03  1.9621755E-03  1.5189925E-03
   4.00000  1.7335692E-03  2.8365983E-03  2.0722109E-03
   5.00000  2.7948264E-03  5.2670235E-03  3.4900779E-03
   5.20000  3.1164688E-03  6.0084951E-03  3.9398355E-03
   5.40000  3.4370968E-03  6.7311383E-03  4.4119653E-03
   5.60000  3.7491385E-03  7.4162054E-03  4.9014815E-03
   5.80000  4.0580963E-03  8.0801971E-03  5.4152816E-03
   6.00000  4.3732973E-03  8.7493126E-03  5.9604159E-03
   6.20000  4.7036029E-03  9.4479131E-03  6.5393162E-03
   6.40000  5.0565382E-03  1.0196611E-02  7.1501849E-03
   6.60000  5.4384442E-03  1.1013105E-02  7.7894653E-03
   6.80000  5.8547975E-03  1.1913184E-02  8.4546012E-03
   7.00000  6.3105016E-03  1.2911429E-02  9.1458444E-03
   7.20000  6.8101111E-03  1.4021823E-02  9.8666221E-03
   7.40000  7.3579852E-03  1.5258604E-02  1.0623004E-02
   7.60000  7.9584185E-03  1.6637515E-02  1.1423277E-02
   7.80000  8.6158062E-03  1.8177415E-02  1.2278101E-02
   8.00000  9.3348024E-03  1.9901782E-02  1.3200690E-02
   8.20000  1.0120309E-02  2.1839349E-02  1.4205922E-02
   8.40000  1.0977137E-02  2.4023078E-02  1.5307662E-02
   8.60000  1.1909308E-02  2.6486913E-02  1.6514543E-02
   8.80000  1.2919132E-02  2.9260216E-02  1.7825654E-02
   9.00000  1.4006342E-02  3.2360369E-02  1.9228392E-02
   9.20000  1.5167638E-02  3.5784318E-02  2.0700557E-02
   9.40000  1.6396957E-02  3.9499682E-02  2.2216687E-02
   9.60000  1.7686544E-02  4.3435858E-02  2.3755539E-02
   9.80000  1.9028456E-02  4.7476053E-02  2.5304049E-02
   10.0000  2.0415502E-02  5.1452475E-02  2.6855490E-02
   10.2500  2.2201697E-02  5.6001328E-02  2.8789544E-02
   10.5000  2.4028872E-02  5.9635574E-02  3.0697494E-02
   10.7500  2.5870825E-02  6.1926436E-02  3.2544150E-02
   11.0000  2.7690508E-02  6.2617245E-02  3.4284400E-02
   11.2500  2.9440101E-02  6.1697676E-02  3.5871186E-02
   11.5000  3.1066618E-02  5.9391967E-02  3.7261336E-02
   11.7500  3.2521458E-02  5.6074612E-02  3.8418258E-02
   12.0000  3.3769880E-02  5.2164691E-02  3.9313499E-02
   12.2500  3.4796955E-02  4.8042112E-02  3.9929288E-02
   12.5000  3.5608866E-02  4.3999851E-02  4.0264012E-02
   12.7500  3.6229625E-02  4.0230449E-02  4.0336856E-02
   13.0000  3.6694758E-02  3.6837134E-02  4.0185761E-02
   13.2500  3.7044764E-02  3.3856410E-02  3.9860502E-02
   13.5000  3.7320021E-02  3.1281713E-02  3.9415288E-02
   13.7500  3.7557191E-02  2.9082647E-02  3.8902776E-02
   14.0000  3.7786772E-02  2.7218372E-02  3.8369936E-02
   14.2500  3.8031605E-02  2.5645832E-02  3.7855681E-02
   14.5000  3.8306200E-02  2.4324229E-02  3.7389955E-02
   14.7500  3.8616782E-02  2.3217091E-02  3.6993797E-02
   15.0000  3.8961905E-02  2.2292930E-02  3.6679951E-02
   15.2500  3.9333493E-02  2.1525145E-02  3.6453708E-02
   15.5000  3.9718185E-02  2.0891579E-02  3.6313830E-02
   15.7500  4.0098907E-02  2.0373943E-02  3.6253511E-02
   16.0000  4.0456603E-02  1.9957232E-02  3.6261412E-02
   16.2500  4.0772032E-02  1.9629189E-02  3.6322795E-02
   16.5000  4.1027545E-02  1.9379828E-02  3.6420779E-02
   16.7500  4.1208676E-02  1.9201018E-02  3.6537691E-02
   17.0000  4.1305408E-02  1.9086129E-02  3.6656437E-02
   17.2500  4.1312967E-02  1.9029733E-02  3.6761781E-02
   17.5000  4.1232074E-02  1.9027345E-02  3.6841381E-02
   17.7500  4.1068655E-02  1.9075212E-02  3.6886477E-02
   18.0000  4.0833081E-02  1.9170135E-02  3.6892136E-02
   18.2500  4.0539084E-02  1.9309334E-02  3.6857078E-02
   18.5000  4.0202499E-02  1.9490345E-02  3.6783155E-02
   18.7500  3.9839997E-02  1.9710958E-02  3.6674581E-02
   19.0000  3.9467910E-02  1.9969194E-02  3.6537086E-02
   19.2500  3.9101222E-02  2.0263319E-02  3.6377066E-02
   19.5000  3.8752766E-02  2.0591869E-02  3.6200853E-02
   19.7500  3.8432659E-02  2.0953639E-02  3.6014161E-02
   20.0000  3.8148096E-02  2.1347490E-02  3.5821818E-02
   21.0000  3.7423948E-02  2.3208235E-02  3.5064885E-02
   22.0000  3.7263833E-02  2.5424714E-02  3.4393967E-02
   23.0000  3.7222566E-02  2.7841009E-02  3.3755341E-02
   24.0000  3.6766992E-02  3.0239715E-02  3.3037643E-02
   25.0000  3.5578361E-02  3.2361088E-02  3.2162347E-02
   26.0000  3.3707021E-02  3.3968277E-02  3.1116495E-02
   27.0000  3.1528771E-02  3.4924328E-02  2.9963357E-02
   28.0000  2.9507405E-02  3.5243730E-02  2.8825432E-02
   29.0000  2.7903495E-02  3.5077058E-02  2.7813427E-02
   30.0000  2.6747473E-02  3.4609680E-02  2.6997840E-02
   31.0000  2.5944125E-02  3.3987432E-02  2.6400173E-02
   32.0000  2.5368224E-02  3.3297273E-02  2.5994228E-02
   33.0000  2.4915367E-02  3.2575962E-02  2.5722615E-02
   34.0000  2.4512681E-02  3.1828143E-02  2.5516149E-02
   35.0000  2.4112865E-02  3.1044297E-02  2.5308049E-02
   36.0000  2.3686945E-02  3.0215364E-02  2.5043249E-02
   37.0000  2.3221869E-02  2.9344267E-02  2.4687260E-02
   38.0000  2.2724977E-02  2.8456812E-02  2.4238173E-02
   39.0000  2.2232931E-02  2.7614255E-02  2.3741291E-02
   40.0000  2.1811588E-02  2.6915364E-02  2.3290992E-02
