    Energy   (100,001)      (010,001)      (001,110)   
  -25.0000  1.6549269E-04  1.8390175E-04  1.7088014E-04
  -24.0000  1.7175229E-04  1.9079232E-04  1.7751800E-04
  -23.0000  1.7844869E-04  1.9817571E-04  1.8463523E-04
  -22.0000  1.8562725E-04  2.0610546E-04  1.9228364E-04
  -21.0000  1.9333972E-04  2.1464307E-04  2.0052267E-04
  -20.0000  2.0164534E-04  2.2385946E-04  2.0942079E-04
  -19.0000  2.1061225E-04  2.3383690E-04  2.1905726E-04
  -18.0000  2.2031923E-04  2.4467129E-04  2.2952432E-04
  -17.0000  2.3085777E-04  2.5647512E-04  2.4092996E-04
  -16.0000  2.4233480E-04  2.6938113E-04  2.5340136E-04
  -15.0000  2.5487598E-04  2.8354710E-04  2.6708937E-04
  -14.0000  2.6863000E-04  2.9916188E-04  2.8217418E-04
  -13.0000  2.8377404E-04  3.1645344E-04  2.9887280E-04
  -12.0000  3.0052090E-04  3.3569934E-04  3.1744892E-04
  -11.0000  3.1912838E-04  3.5724091E-04  3.3822609E-04
  -10.0000  3.3991175E-04  3.8150235E-04  3.6160568E-04
  -9.00000  3.6326074E-04  4.0901722E-04  3.8809166E-04
  -8.00000  3.8966282E-04  4.4046568E-04  4.1832570E-04
  -7.00000  4.1973603E-04  4.7672783E-04  4.5313761E-04
  -6.00000  4.5427612E-04  5.1896216E-04  4.9362007E-04
  -5.00000  4.9432600E-04  5.6872378E-04  5.4124242E-04
  -4.00000  5.4128144E-04  6.2814828E-04  5.9802996E-04
  -3.00000  5.9705767E-04  7.0024856E-04  6.6685857E-04
  -2.00000  6.6436438E-04  7.8941541E-04  7.5196333E-04
  -1.00000  7.4718568E-04  9.0231003E-04  8.5987342E-04
   0.00000  8.5168314E-04  1.0495726E-03  1.0012731E-03
   1.00000  9.8807557E-04  1.2494235E-03  1.1951224E-03
   2.00000  1.1751730E-03  1.5363755E-03  1.4792475E-03
   3.00000  1.4541081E-03  1.9873488E-03  1.9443484E-03
   4.00000  1.9485523E-03  2.8332384E-03  2.8893008E-03
   5.00000  3.1718318E-03  5.0232080E-03  5.6487346E-03
   5.20000  3.5423360E-03  5.7072923E-03  6.5457129E-03
   5.40000  3.9148811E-03  6.4128132E-03  7.4660104E-03
   5.60000  4.2825600E-03  7.1310718E-03  8.3819715E-03
   5.80000  4.6533428E-03  7.8780665E-03  9.2937491E-03
   6.00000  5.0398997E-03  8.6770127E-03  1.0210367E-02
   6.20000  5.4550018E-03  9.5504806E-03  1.1145599E-02
   6.40000  5.9106301E-03  1.0519295E-02  1.2121078E-02
   6.60000  6.4179756E-03  1.1603495E-02  1.3166549E-02
   6.80000  6.9873292E-03  1.2823476E-02  1.4313711E-02
   7.00000  7.6276950E-03  1.4200660E-02  1.5585368E-02
   7.20000  8.3461858E-03  1.5757379E-02  1.6983625E-02
   7.40000  9.1473011E-03  1.7515592E-02  1.8480993E-02
   7.60000  1.0032184E-02  1.9494223E-02  2.0017705E-02
   7.80000  1.0998113E-02  2.1705562E-02  2.1508120E-02
   8.00000  1.2038887E-02  2.4152283E-02  2.2858304E-02
   8.20000  1.3147023E-02  2.6827276E-02  2.3993206E-02
   8.40000  1.4317811E-02  2.9717214E-02  2.4884020E-02
   8.60000  1.5553353E-02  3.2807422E-02  2.5560449E-02
   8.80000  1.6863683E-02  3.6082922E-02  2.6098787E-02
   9.00000  1.8263778E-02  3.9521949E-02  2.6593156E-02
   9.20000  1.9767928E-02  4.3082473E-02  2.7126999E-02
   9.40000  2.1383606E-02  4.6685468E-02  2.7756094E-02
   9.60000  2.3107371E-02  5.0202006E-02  2.8505284E-02
   9.80000  2.4924348E-02  5.3452712E-02  2.9375754E-02
   10.0000  2.6809270E-02  5.6223688E-02  3.0355103E-02
   10.2500  2.9206112E-02  5.8685986E-02  3.1702249E-02
   10.5000  3.1562753E-02  5.9739466E-02  3.3141279E-02
   10.7500  3.3772123E-02  5.9272257E-02  3.4618563E-02
   11.0000  3.5726019E-02  5.7424071E-02  3.6077229E-02
   11.2500  3.7337341E-02  5.4529243E-02  3.7457484E-02
   11.5000  3.8561283E-02  5.1001645E-02  3.8697993E-02
   11.7500  3.9403008E-02  4.7226989E-02  3.9742552E-02
   12.0000  3.9905707E-02  4.3501365E-02  4.0550590E-02
   12.2500  4.0130070E-02  4.0014939E-02  4.1104535E-02
   12.5000  4.0139912E-02  3.6865844E-02  4.1410840E-02
   12.7500  3.9995446E-02  3.4087166E-02  4.1495051E-02
   13.0000  3.9750569E-02  3.1672967E-02  4.1394350E-02
   13.2500  3.9452281E-02  2.9596996E-02  4.1152056E-02
   13.5000  3.9140895E-02  2.7824345E-02  4.0813921E-02
   13.7500  3.8850107E-02  2.6318272E-02  4.0424364E-02
   14.0000  3.8606799E-02  2.5043968E-02  4.0022465E-02
   14.2500  3.8430655E-02  2.3970358E-02  3.9638837E-02
   14.5000  3.8333872E-02  2.3070626E-02  3.9294313E-02
   14.7500  3.8321162E-02  2.2322047E-02  3.9000117E-02
   15.0000  3.8390122E-02  2.1705527E-02  3.8758815E-02
   15.2500  3.8532022E-02  2.1205077E-02  3.8565632E-02
   15.5000  3.8733007E-02  2.0807282E-02  3.8410001E-02
   15.7500  3.8975630E-02  2.0500833E-02  3.8277277E-02
   16.0000  3.9240614E-02  2.0276111E-02  3.8150577E-02
   16.2500  3.9508699E-02  2.0124851E-02  3.8012661E-02
   16.5000  3.9762442E-02  2.0039873E-02  3.7847742E-02
   16.7500  3.9987767E-02  2.0014888E-02  3.7643056E-02
   17.0000  4.0175106E-02  2.0044337E-02  3.7390024E-02
   17.2500  4.0319948E-02  2.0123285E-02  3.7084852E-02
   17.5000  4.0422742E-02  2.0247332E-02  3.6728513E-02
   17.7500  4.0488158E-02  2.0412554E-02  3.6326176E-02
   18.0000  4.0523841E-02  2.0615456E-02  3.5886220E-02
   18.2500  4.0538902E-02  2.0852941E-02  3.5419032E-02
   18.5000  4.0542370E-02  2.1122285E-02  3.4935817E-02
   18.7500  4.0541854E-02  2.1421122E-02  3.4447546E-02
   19.0000  4.0542568E-02  2.1747452E-02  3.3964155E-02
   19.2500  4.0546786E-02  2.2099648E-02  3.3494002E-02
   19.5000  4.0553722E-02  2.2476482E-02  3.3043554E-02
   19.7500  4.0559716E-02  2.2877079E-02  3.2617317E-02
   20.0000  4.0558562E-02  2.3300706E-02  3.2218048E-02
   21.0000  4.0293576E-02  2.5198511E-02  3.0911669E-02
   22.0000  3.9170797E-02  2.7336622E-02  3.0042969E-02
   23.0000  3.6987883E-02  2.9542046E-02  2.9470995E-02
   24.0000  3.4116932E-02  3.1540427E-02  2.9018914E-02
   25.0000  3.1152281E-02  3.3095688E-02  2.8552152E-02
   26.0000  2.8552881E-02  3.4056983E-02  2.8016115E-02
   27.0000  2.6521916E-02  3.4392813E-02  2.7431986E-02
   28.0000  2.5063428E-02  3.4199701E-02  2.6861888E-02
   29.0000  2.4080518E-02  3.3645894E-02  2.6367596E-02
   30.0000  2.3443638E-02  3.2896107E-02  2.5978025E-02
   31.0000  2.3027992E-02  3.2067858E-02  2.5678004E-02
   32.0000  2.2731646E-02  3.1226194E-02  2.5420588E-02
   33.0000  2.2481140E-02  3.0398345E-02  2.5148313E-02
   34.0000  2.2229780E-02  2.9591554E-02  2.4809844E-02
   35.0000  2.1952741E-02  2.8805685E-02  2.4369481E-02
   36.0000  2.1642215E-02  2.8039305E-02  2.3813551E-02
   37.0000  2.1304335E-02  2.7292847E-02  2.3156434E-02
   38.0000  2.0957572E-02  2.6574874E-02  2.2445629E-02
   39.0000  2.0631425E-02  2.5915517E-02  2.1761540E-02
   40.0000  2.0362006E-02  2.5374917E-02  2.1199367E-02
