    Energy   (100,001)      (010,001)      (001,110)   
  -25.0000  1.7641610E-04  1.8250802E-04  1.8280842E-04
  -24.0000  1.8257179E-04  1.8958314E-04  1.8929743E-04
  -23.0000  1.8913172E-04  1.9717692E-04  1.9622490E-04
  -22.0000  1.9613591E-04  2.0534684E-04  2.0363583E-04
  -21.0000  2.0362975E-04  2.1415903E-04  2.1158153E-04
  -20.0000  2.1166497E-04  2.2368995E-04  2.2012076E-04
  -19.0000  2.2030073E-04  2.3402850E-04  2.2932115E-04
  -18.0000  2.2960505E-04  2.4527858E-04  2.3926090E-04
  -17.0000  2.3965646E-04  2.5756239E-04  2.5003098E-04
  -16.0000  2.5054617E-04  2.7102455E-04  2.6173774E-04
  -15.0000  2.6238069E-04  2.8583745E-04  2.7450642E-04
  -14.0000  2.7528518E-04  3.0220813E-04  2.8848545E-04
  -13.0000  2.8940772E-04  3.2038737E-04  3.0385211E-04
  -12.0000  3.0492483E-04  3.4068165E-04  3.2081990E-04
  -11.0000  3.2204862E-04  3.6346936E-04  3.3964832E-04
  -10.0000  3.4103632E-04  3.8922281E-04  3.6065599E-04
  -9.00000  3.6220302E-04  4.1853892E-04  3.8423861E-04
  -8.00000  3.8593909E-04  4.5218254E-04  4.1089388E-04
  -7.00000  4.1273442E-04  4.9114912E-04  4.4125694E-04
  -6.00000  4.4321290E-04  5.3675737E-04  4.7615184E-04
  -5.00000  4.7818281E-04  5.9079033E-04  5.1666839E-04
  -4.00000  5.1871266E-04  6.5571689E-04  5.6428045E-04
  -3.00000  5.6624977E-04  7.3505354E-04  6.2103507E-04
  -2.00000  6.2281447E-04  8.3398289E-04  6.8986856E-04
  -1.00000  6.9133743E-04  9.6047437E-04  7.7516465E-04
   0.00000  7.7629356E-04  1.1274719E-03  8.8381148E-04
   1.00000  8.8502916E-04  1.3576150E-03  1.0273976E-03
   2.00000  1.0310128E-03  1.6949983E-03  1.2274075E-03
   3.00000  1.2439692E-03  2.2416604E-03  1.5301973E-03
   4.00000  1.6162044E-03  3.3194523E-03  2.0669363E-03
   5.00000  2.5416121E-03  6.3030304E-03  3.3495493E-03
   5.20000  2.8150344E-03  7.2397124E-03  3.7583830E-03
   5.40000  3.0800454E-03  8.1877985E-03  4.2031921E-03
   5.60000  3.3294512E-03  9.1296892E-03  4.6857574E-03
   5.80000  3.5689600E-03  1.0086081E-02  5.2190622E-03
   6.00000  3.8082655E-03  1.1089144E-02  5.8202230E-03
   6.20000  4.0569558E-03  1.2170136E-02  6.5073340E-03
   6.40000  4.3237172E-03  1.3356937E-02  7.2989703E-03
   6.60000  4.6164467E-03  1.4674232E-02  8.2142201E-03
   6.80000  4.9423819E-03  1.6143747E-02  9.2721496E-03
   7.00000  5.3080234E-03  1.7784252E-02  1.0489933E-02
   7.20000  5.7188658E-03  1.9611346E-02  1.1878692E-02
   7.40000  6.1790579E-03  2.1636715E-02  1.3435932E-02
   7.60000  6.6911449E-03  2.3867022E-02  1.5134418E-02
   7.80000  7.2560771E-03  2.6303215E-02  1.6910640E-02
   8.00000  7.8736429E-03  2.8941558E-02  1.8660954E-02
   8.20000  8.5433685E-03  3.1777566E-02  2.0255417E-02
   8.40000  9.2657070E-03  3.4811492E-02  2.1571194E-02
   8.60000  1.0043050E-02  3.8049745E-02  2.2530981E-02
   8.80000  1.0880038E-02  4.1495962E-02  2.3123865E-02
   9.00000  1.1783041E-02  4.5131343E-02  2.3398935E-02
   9.20000  1.2759197E-02  4.8891342E-02  2.3442039E-02
   9.40000  1.3815420E-02  5.2648554E-02  2.3351823E-02
   9.60000  1.4957414E-02  5.6209768E-02  2.3222779E-02
   9.80000  1.6188440E-02  5.9332399E-02  2.3134556E-02
   10.0000  1.7507569E-02  6.1761407E-02  2.3145467E-02
   10.2500  1.9268732E-02  6.3498520E-02  2.3349161E-02
   10.5000  2.1124758E-02  6.3589194E-02  2.3782355E-02
   10.7500  2.3025792E-02  6.2084986E-02  2.4431379E-02
   11.0000  2.4908570E-02  5.9289888E-02  2.5262748E-02
   11.2500  2.6708617E-02  5.5643515E-02  2.6234732E-02
   11.5000  2.8373115E-02  5.1586486E-02  2.7304155E-02
   11.7500  2.9866323E-02  4.7471613E-02  2.8429176E-02
   12.0000  3.1169205E-02  4.3535299E-02  2.9569266E-02
   12.2500  3.2279151E-02  3.9909480E-02  3.0684328E-02
   12.5000  3.3209173E-02  3.6650420E-02  3.1736031E-02
   12.7500  3.3984733E-02  3.3767803E-02  3.2691900E-02
   13.0000  3.4638875E-02  3.1246056E-02  3.3529652E-02
   13.2500  3.5207072E-02  2.9057280E-02  3.4239336E-02
   13.5000  3.5722876E-02  2.7168699E-02  3.4823135E-02
   13.7500  3.6214435E-02  2.5547106E-02  3.5294290E-02
   14.0000  3.6702169E-02  2.4161248E-02  3.5675076E-02
   14.2500  3.7198390E-02  2.2982741E-02  3.5992732E-02
   14.5000  3.7708380E-02  2.1986250E-02  3.6274679E-02
   14.7500  3.8231794E-02  2.1149485E-02  3.6544855E-02
   15.0000  3.8763854E-02  2.0453119E-02  3.6821538E-02
   15.2500  3.9296262E-02  1.9880625E-02  3.7116282E-02
   15.5000  3.9817914E-02  1.9418051E-02  3.7433579E-02
   15.7500  4.0315541E-02  1.9053733E-02  3.7771050E-02
   16.0000  4.0774383E-02  1.8777980E-02  3.8120107E-02
   16.2500  4.1178966E-02  1.8582759E-02  3.8467051E-02
   16.5000  4.1514025E-02  1.8461381E-02  3.8794615E-02
   16.7500  4.1765514E-02  1.8408215E-02  3.9083854E-02
   17.0000  4.1921676E-02  1.8418433E-02  3.9316233E-02
   17.2500  4.1974063E-02  1.8487799E-02  3.9475664E-02
   17.5000  4.1918433E-02  1.8612502E-02  3.9550239E-02
   17.7500  4.1755402E-02  1.8789043E-02  3.9533399E-02
   18.0000  4.1490767E-02  1.9014152E-02  3.9424390E-02
   18.2500  4.1135391E-02  1.9284753E-02  3.9227996E-02
   18.5000  4.0704626E-02  1.9597940E-02  3.8953648E-02
   18.7500  4.0217282E-02  1.9950984E-02  3.8614122E-02
   19.0000  3.9694242E-02  2.0341368E-02  3.8224045E-02
   19.2500  3.9156870E-02  2.0766842E-02  3.7798439E-02
   19.5000  3.8625395E-02  2.1225486E-02  3.7351447E-02
   19.7500  3.8117556E-02  2.1715696E-02  3.6895430E-02
   20.0000  3.7647845E-02  2.2235948E-02  3.6440629E-02
   21.0000  3.6338367E-02  2.4568930E-02  3.4783070E-02
   22.0000  3.6049935E-02  2.7164340E-02  3.3556714E-02
   23.0000  3.6408231E-02  2.9806439E-02  3.2725678E-02
   24.0000  3.6744682E-02  3.2204634E-02  3.2139134E-02
   25.0000  3.6465973E-02  3.4042427E-02  3.1660966E-02
   26.0000  3.5351124E-02  3.5101681E-02  3.1196241E-02
   27.0000  3.3638729E-02  3.5360177E-02  3.0698421E-02
   28.0000  3.1806705E-02  3.4976293E-02  3.0177871E-02
   29.0000  3.0246067E-02  3.4184466E-02  2.9686038E-02
   30.0000  2.9110718E-02  3.3192655E-02  2.9276823E-02
   31.0000  2.8364100E-02  3.2142709E-02  2.8974212E-02
   32.0000  2.7885579E-02  3.1113307E-02  2.8763397E-02
   33.0000  2.7555585E-02  3.0122880E-02  2.8602575E-02
   34.0000  2.7285279E-02  2.9159918E-02  2.8443869E-02
   35.0000  2.7017123E-02  2.8208554E-02  2.8246607E-02
   36.0000  2.6720469E-02  2.7258797E-02  2.7983182E-02
   37.0000  2.6386997E-02  2.6313266E-02  2.7643436E-02
   38.0000  2.6027309E-02  2.5394813E-02  2.7239724E-02
   39.0000  2.5670749E-02  2.4555169E-02  2.6813796E-02
   40.0000  2.5365084E-02  2.3873468E-02  2.6438455E-02
