    Energy   (100,001)      (010,001)      (001,110)   
  -25.0000  1.7652387E-04  1.8360647E-04  1.8468861E-04
  -24.0000  1.8269529E-04  1.9066446E-04  1.9103612E-04
  -23.0000  1.8927388E-04  1.9823691E-04  1.9780130E-04
  -22.0000  1.9630024E-04  2.0638055E-04  2.0502602E-04
  -21.0000  2.0382051E-04  2.1516068E-04  2.1275790E-04
  -20.0000  2.1188732E-04  2.2465272E-04  2.2105136E-04
  -19.0000  2.2056097E-04  2.3494433E-04  2.2996880E-04
  -18.0000  2.2991087E-04  2.4613789E-04  2.3958218E-04
  -17.0000  2.4001738E-04  2.5835373E-04  2.4997492E-04
  -16.0000  2.5097399E-04  2.7173419E-04  2.6124423E-04
  -15.0000  2.6289014E-04  2.8644881E-04  2.7350411E-04
  -14.0000  2.7589482E-04  3.0270107E-04  2.8688919E-04
  -13.0000  2.9014109E-04  3.2073722E-04  3.0155957E-04
  -12.0000  3.0581208E-04  3.4085798E-04  3.1770720E-04
  -11.0000  3.2312874E-04  3.6343426E-04  3.3556429E-04
  -10.0000  3.4236029E-04  3.8892865E-04  3.5541451E-04
  -9.00000  3.6383833E-04  4.1792513E-04  3.7760824E-04
  -8.00000  3.8797629E-04  4.5117119E-04  4.0258376E-04
  -7.00000  4.1529691E-04  4.8963855E-04  4.3089707E-04
  -6.00000  4.4647180E-04  5.3461292E-04  4.6326521E-04
  -5.00000  4.8238026E-04  5.8783044E-04  5.0063075E-04
  -4.00000  5.2419939E-04  6.5169194E-04  5.4426117E-04
  -3.00000  5.7354816E-04  7.2961248E-04  5.9590830E-04
  -2.00000  6.3272899E-04  8.2661902E-04  6.5807705E-04
  -1.00000  7.0515961E-04  9.5043431E-04  7.3450774E-04
   0.00000  7.9621057E-04  1.1135968E-03  8.3111506E-04
   1.00000  9.1502127E-04  1.3380549E-03  9.5802761E-04
   2.00000  1.0791168E-03  1.6666921E-03  1.1347602E-03
   3.00000  1.3293361E-03  2.1995157E-03  1.4067667E-03
   4.00000  1.8002420E-03  3.2568471E-03  1.9218396E-03
   5.00000  3.0850372E-03  6.2255988E-03  3.3245087E-03
   5.20000  3.4665448E-03  7.1530792E-03  3.7525493E-03
   5.40000  3.8278668E-03  8.0794879E-03  4.1762985E-03
   5.60000  4.1589493E-03  8.9825772E-03  4.5915595E-03
   5.80000  4.4699285E-03  9.8796293E-03  5.0137255E-03
   6.00000  4.7760963E-03  1.0799461E-02  5.4616931E-03
   6.20000  5.0913544E-03  1.1769509E-02  5.9501539E-03
   6.40000  5.4272877E-03  1.2813592E-02  6.4864201E-03
   6.60000  5.7938134E-03  1.3952885E-02  7.0675087E-03
   6.80000  6.1998780E-03  1.5207143E-02  7.6770723E-03
   7.00000  6.6538697E-03  1.6595585E-02  8.2849834E-03
   7.20000  7.1638346E-03  1.8137812E-02  8.8540995E-03
   7.40000  7.7375630E-03  1.9854887E-02  9.3556101E-03
   7.60000  8.3824338E-03  2.1770093E-02  9.7856850E-03
   7.80000  9.1048932E-03  2.3908835E-02  1.0171025E-02
   8.00000  9.9094621E-03  2.6297273E-02  1.0558739E-02
   8.20000  1.0797171E-02  2.8959386E-02  1.0998840E-02
   8.40000  1.1763427E-02  3.1912298E-02  1.1530360E-02
   8.60000  1.2795582E-02  3.5159926E-02  1.2175139E-02
   8.80000  1.3870987E-02  3.8685374E-02  1.2937314E-02
   9.00000  1.4957016E-02  4.2443138E-02  1.3805744E-02
   9.20000  1.6014801E-02  4.6352770E-02  1.4758414E-02
   9.40000  1.7007293E-02  5.0296056E-02  1.5768989E-02
   9.60000  1.7909463E-02  5.4119157E-02  1.6815042E-02
   9.80000  1.8716068E-02  5.7638669E-02  1.7885439E-02
   10.0000  1.9443069E-02  6.0649727E-02  1.8983355E-02
   10.2500  2.0288710E-02  6.3375303E-02  2.0417457E-02
   10.5000  2.1132013E-02  6.4611924E-02  2.1956232E-02
   10.7500  2.2034386E-02  6.4169036E-02  2.3631369E-02
   11.0000  2.3033082E-02  6.2122971E-02  2.5454111E-02
   11.2500  2.4137338E-02  5.8806465E-02  2.7407432E-02
   11.5000  2.5328957E-02  5.4693975E-02  2.9443072E-02
   11.7500  2.6566660E-02  5.0257591E-02  3.1483478E-02
   12.0000  2.7795339E-02  4.5869157E-02  3.3429898E-02
   12.2500  2.8958582E-02  4.1769057E-02  3.5175985E-02
   12.5000  3.0009789E-02  3.8079974E-02  3.6625488E-02
   12.7500  3.0919763E-02  3.4840749E-02  3.7713040E-02
   13.0000  3.1680967E-02  3.2041443E-02  3.8419514E-02
   13.2500  3.2306729E-02  2.9647824E-02  3.8771979E-02
   13.5000  3.2825009E-02  2.7615589E-02  3.8830682E-02
   13.7500  3.3270058E-02  2.5898643E-02  3.8671887E-02
   14.0000  3.3675597E-02  2.4453586E-02  3.8373029E-02
   14.2500  3.4070499E-02  2.3241702E-02  3.8002756E-02
   14.5000  3.4476472E-02  2.2229539E-02  3.7615880E-02
   14.7500  3.4907206E-02  2.1388769E-02  3.7252102E-02
   15.0000  3.5368562E-02  2.0695698E-02  3.6937121E-02
   15.2500  3.5859421E-02  2.0130656E-02  3.6684854E-02
   15.5000  3.6372892E-02  1.9677372E-02  3.6499935E-02
   15.7500  3.6897687E-02  1.9322395E-02  3.6380040E-02
   16.0000  3.7419526E-02  1.9054589E-02  3.6317871E-02
   16.2500  3.7922538E-02  1.8864704E-02  3.6302803E-02
   16.5000  3.8390626E-02  1.8745025E-02  3.6322261E-02
   16.7500  3.8808794E-02  1.8689092E-02  3.6362919E-02
   17.0000  3.9164411E-02  1.8691472E-02  3.6411752E-02
   17.2500  3.9448337E-02  1.8747591E-02  3.6456953E-02
   17.5000  3.9655772E-02  1.8853590E-02  3.6488670E-02
   17.7500  3.9786722E-02  1.9006209E-02  3.6499527E-02
   18.0000  3.9845955E-02  1.9202690E-02  3.6484878E-02
   18.2500  3.9842443E-02  1.9440684E-02  3.6442797E-02
   18.5000  3.9788361E-02  1.9718161E-02  3.6373809E-02
   18.7500  3.9697807E-02  2.0033341E-02  3.6280420E-02
   19.0000  3.9585447E-02  2.0384639E-02  3.6166525E-02
   19.2500  3.9465262E-02  2.0770640E-02  3.6036776E-02
   19.5000  3.9349523E-02  2.1190091E-02  3.5895968E-02
   19.7500  3.9248085E-02  2.1641838E-02  3.5748546E-02
   20.0000  3.9168051E-02  2.2124566E-02  3.5598313E-02
   21.0000  3.9118091E-02  2.4314295E-02  3.5022973E-02
   22.0000  3.9412324E-02  2.6757790E-02  3.4532149E-02
   23.0000  3.9660264E-02  2.9219029E-02  3.4064095E-02
   24.0000  3.9372813E-02  3.1441416E-02  3.3519588E-02
   25.0000  3.8239258E-02  3.3197290E-02  3.2843902E-02
   26.0000  3.6317731E-02  3.4338794E-02  3.2049641E-02
   27.0000  3.3997043E-02  3.4825551E-02  3.1206285E-02
   28.0000  3.1746503E-02  3.4724385E-02  3.0413841E-02
   29.0000  2.9877568E-02  3.4178319E-02  2.9764743E-02
   30.0000  2.8482021E-02  3.3362554E-02  2.9312226E-02
   31.0000  2.7506581E-02  3.2436747E-02  2.9058175E-02
   32.0000  2.6848216E-02  3.1492620E-02  2.8954763E-02
   33.0000  2.6413865E-02  3.0562689E-02  2.8935902E-02
   34.0000  2.6133583E-02  2.9648159E-02  2.8941461E-02
   35.0000  2.5953420E-02  2.8737654E-02  2.8924430E-02
   36.0000  2.5826834E-02  2.7820525E-02  2.8851773E-02
   37.0000  2.5710002E-02  2.6896733E-02  2.8704337E-02
   38.0000  2.5566408E-02  2.5986734E-02  2.8480146E-02
   39.0000  2.5384834E-02  2.5143259E-02  2.8204978E-02
   40.0000  2.5198031E-02  2.4452099E-02  2.7941858E-02
