    Energy   (100,001)      (010,001)      (001,110)   
  -25.0000  1.7184187E-04  1.8160822E-04  1.8361264E-04
  -24.0000  1.7800019E-04  1.8861731E-04  1.9018645E-04
  -23.0000  1.8457227E-04  1.9613761E-04  1.9720893E-04
  -22.0000  1.9159996E-04  2.0422545E-04  2.0472661E-04
  -21.0000  1.9913082E-04  2.1294560E-04  2.1279263E-04
  -20.0000  2.0721923E-04  2.2237292E-04  2.2146791E-04
  -19.0000  2.1592756E-04  2.3259433E-04  2.3082267E-04
  -18.0000  2.2532772E-04  2.4371137E-04  2.4093824E-04
  -17.0000  2.3550306E-04  2.5584332E-04  2.5190939E-04
  -16.0000  2.4655070E-04  2.6913121E-04  2.6384716E-04
  -15.0000  2.5858454E-04  2.8374298E-04  2.7688253E-04
  -14.0000  2.7173902E-04  2.9988011E-04  2.9117115E-04
  -13.0000  2.8617394E-04  3.1778631E-04  3.0689935E-04
  -12.0000  3.0208083E-04  3.3775907E-04  3.2429224E-04
  -11.0000  3.1969119E-04  3.6016512E-04  3.4362430E-04
  -10.0000  3.3928763E-04  3.8546158E-04  3.6523381E-04
  -9.00000  3.6121888E-04  4.1422522E-04  3.8954276E-04
  -8.00000  3.8592061E-04  4.4719383E-04  4.1708466E-04
  -7.00000  4.1394469E-04  4.8532586E-04  4.4854461E-04
  -6.00000  4.4600156E-04  5.2988864E-04  4.8481827E-04
  -5.00000  4.8302301E-04  5.8259229E-04  5.2710131E-04
  -4.00000  5.2625836E-04  6.4579989E-04  5.7703029E-04
  -3.00000  5.7742778E-04  7.2287045E-04  6.3691388E-04
  -2.00000  6.3897831E-04  8.1874511E-04  7.1013290E-04
  -1.00000  7.1453764E-04  9.4101036E-04  8.0187943E-04
   0.00000  8.0978282E-04  1.1019785E-03  9.2064200E-04
   1.00000  9.3428403E-04  1.3231992E-03  1.0815429E-03
   2.00000  1.1060363E-03  1.6467854E-03  1.3150946E-03
   3.00000  1.3653700E-03  2.1709769E-03  1.6960457E-03
   4.00000  1.8359805E-03  3.2101118E-03  2.4784402E-03
   5.00000  3.0395817E-03  6.1331780E-03  4.8450747E-03
   5.20000  3.4161967E-03  7.0612360E-03  5.6406395E-03
   5.40000  3.8056897E-03  8.0012723E-03  6.4665785E-03
   5.60000  4.2035812E-03  8.9272583E-03  7.2854032E-03
   5.80000  4.6179607E-03  9.8473900E-03  8.0770490E-03
   6.00000  5.0591075E-03  1.0780206E-02  8.8248678E-03
   6.20000  5.5347086E-03  1.1744340E-02  9.5117989E-03
   6.40000  6.0491942E-03  1.2757380E-02  1.0123644E-02
   6.60000  6.6047458E-03  1.3836871E-02  1.0653572E-02
   6.80000  7.2029370E-03  1.5001074E-02  1.1105039E-02
   7.00000  7.8463147E-03  1.6269296E-02  1.1492283E-02
   7.20000  8.5391446E-03  1.7662224E-02  1.1838776E-02
   7.40000  9.2867404E-03  1.9202719E-02  1.2174686E-02
   7.60000  1.0093305E-02  2.0917044E-02  1.2534101E-02
   7.80000  1.0958585E-02  2.2835571E-02  1.2951845E-02
   8.00000  1.1873965E-02  2.4991671E-02  1.3459251E-02
   8.20000  1.2819365E-02  2.7418650E-02  1.4078954E-02
   8.40000  1.3763168E-02  3.0145438E-02  1.4820116E-02
   8.60000  1.4667466E-02  3.3191560E-02  1.5676769E-02
   8.80000  1.5498962E-02  3.6561327E-02  1.6631789E-02
   9.00000  1.6241608E-02  4.0236322E-02  1.7666003E-02
   9.20000  1.6903892E-02  4.4165041E-02  1.8767712E-02
   9.40000  1.7516089E-02  4.8250178E-02  1.9936850E-02
   9.60000  1.8119580E-02  5.2337546E-02  2.1182055E-02
   9.80000  1.8754897E-02  5.6213897E-02  2.2513948E-02
   10.0000  1.9453683E-02  5.9620815E-02  2.3938799E-02
   10.2500  2.0445102E-02  6.2809694E-02  2.5845973E-02
   10.5000  2.1577756E-02  6.4412759E-02  2.7866524E-02
   10.7500  2.2839254E-02  6.4240615E-02  2.9949568E-02
   11.0000  2.4197470E-02  6.2412824E-02  3.2021901E-02
   11.2500  2.5605774E-02  5.9299253E-02  3.3989067E-02
   11.5000  2.7007936E-02  5.5382995E-02  3.5745272E-02
   11.7500  2.8345198E-02  5.1124266E-02  3.7193513E-02
   12.0000  2.9567872E-02  4.6878339E-02  3.8267692E-02
   12.2500  3.0644531E-02  4.2875318E-02  3.8946413E-02
   12.5000  3.1564175E-02  3.9238715E-02  3.9253863E-02
   12.7500  3.2333002E-02  3.6016085E-02  3.9249962E-02
   13.0000  3.2969210E-02  3.3207539E-02  3.9014203E-02
   13.2500  3.3498305E-02  3.0787381E-02  3.8629701E-02
   13.5000  3.3949428E-02  2.8718133E-02  3.8172462E-02
   13.7500  3.4352019E-02  2.6958665E-02  3.7705551E-02
   14.0000  3.4732881E-02  2.5468665E-02  3.7276511E-02
   14.2500  3.5114259E-02  2.4211011E-02  3.6917424E-02
   14.5000  3.5512788E-02  2.3152845E-02  3.6646616E-02
   14.7500  3.5938950E-02  2.2265845E-02  3.6470933E-02
   15.0000  3.6396997E-02  2.1526038E-02  3.6387994E-02
   15.2500  3.6885359E-02  2.0913379E-02  3.6388278E-02
   15.5000  3.7397487E-02  2.0411264E-02  3.6457050E-02
   15.7500  3.7922977E-02  2.0006037E-02  3.6576189E-02
   16.0000  3.8448798E-02  1.9686530E-02  3.6725943E-02
   16.2500  3.8960531E-02  1.9443654E-02  3.6886575E-02
   16.5000  3.9443527E-02  1.9270044E-02  3.7039850E-02
   16.7500  3.9883997E-02  1.9159734E-02  3.7170239E-02
   17.0000  4.0270005E-02  1.9107885E-02  3.7265762E-02
   17.2500  4.0592348E-02  1.9110543E-02  3.7318408E-02
   17.5000  4.0845256E-02  1.9164437E-02  3.7324130E-02
   17.7500  4.1026833E-02  1.9266811E-02  3.7282486E-02
   18.0000  4.1139154E-02  1.9415296E-02  3.7196008E-02
   18.2500  4.1187975E-02  1.9607813E-02  3.7069441E-02
   18.5000  4.1182099E-02  1.9842511E-02  3.6908942E-02
   18.7500  4.1132451E-02  2.0117734E-02  3.6721334E-02
   19.0000  4.1051010E-02  2.0432020E-02  3.6513472E-02
   19.2500  4.0949714E-02  2.0784124E-02  3.6291729E-02
   19.5000  4.0839453E-02  2.1173037E-02  3.6061617E-02
   19.7500  4.0729257E-02  2.1597938E-02  3.5827574E-02
   20.0000  4.0625782E-02  2.2057944E-02  3.5592952E-02
   21.0000  4.0328688E-02  2.4209829E-02  3.4690378E-02
   22.0000  4.0093552E-02  2.6722615E-02  3.3871891E-02
   23.0000  3.9479868E-02  2.9344789E-02  3.3079474E-02
   24.0000  3.8099659E-02  3.1738102E-02  3.2233230E-02
   25.0000  3.5968718E-02  3.3574527E-02  3.1296482E-02
   26.0000  3.3477540E-02  3.4663033E-02  3.0296214E-02
   27.0000  3.1074933E-02  3.5002542E-02  2.9313644E-02
   28.0000  2.9032517E-02  3.4743029E-02  2.8457187E-02
   29.0000  2.7433789E-02  3.4096845E-02  2.7816758E-02
   30.0000  2.6246033E-02  3.3242545E-02  2.7413470E-02
   31.0000  2.5404346E-02  3.2296846E-02  2.7212945E-02
   32.0000  2.4841880E-02  3.1323777E-02  2.7156424E-02
   33.0000  2.4491908E-02  3.0349307E-02  2.7179799E-02
   34.0000  2.4291096E-02  2.9376481E-02  2.7223742E-02
   35.0000  2.4181001E-02  2.8399110E-02  2.7238308E-02
   36.0000  2.4106282E-02  2.7413703E-02  2.7185353E-02
   37.0000  2.4015296E-02  2.6428986E-02  2.7041538E-02
   38.0000  2.3870727E-02  2.5473502E-02  2.6804820E-02
   39.0000  2.3670906E-02  2.4603018E-02  2.6506494E-02
   40.0000  2.3463016E-02  2.3898659E-02  2.6218831E-02
