    Energy   (100,001)      (010,001)      (001,110)   
  -25.0000  1.6706291E-04  1.7551886E-04  1.7493853E-04
  -24.0000  1.7313224E-04  1.8247543E-04  1.8138605E-04
  -23.0000  1.7961194E-04  1.8994836E-04  1.8828046E-04
  -22.0000  1.8654356E-04  1.9799526E-04  1.9566846E-04
  -21.0000  1.9397435E-04  2.0668247E-04  2.0360337E-04
  -20.0000  2.0195827E-04  2.1608676E-04  2.1214638E-04
  -19.0000  2.1055723E-04  2.2629742E-04  2.2136803E-04
  -18.0000  2.1984254E-04  2.3741887E-04  2.3135003E-04
  -17.0000  2.2989682E-04  2.4957399E-04  2.4218763E-04
  -16.0000  2.4081629E-04  2.6290833E-04  2.5399244E-04
  -15.0000  2.5271369E-04  2.7759549E-04  2.6689616E-04
  -14.0000  2.6572193E-04  2.9384409E-04  2.8105524E-04
  -13.0000  2.7999888E-04  3.1190703E-04  2.9665706E-04
  -12.0000  2.9573343E-04  3.3209359E-04  3.1392790E-04
  -11.0000  3.1315357E-04  3.5478594E-04  3.3314364E-04
  -10.0000  3.3253710E-04  3.8046150E-04  3.5464422E-04
  -9.00000  3.5422605E-04  4.0972418E-04  3.7885343E-04
  -8.00000  3.7864664E-04  4.4334859E-04  4.0630684E-04
  -7.00000  4.0633721E-04  4.8234391E-04  4.3769159E-04
  -6.00000  4.3798839E-04  5.2804864E-04  4.7390509E-04
  -5.00000  4.7450241E-04  5.8227497E-04  5.1614384E-04
  -4.00000  5.1708363E-04  6.4753592E-04  5.6604284E-04
  -3.00000  5.6738211E-04  7.2741698E-04  6.2590385E-04
  -2.00000  6.2773289E-04  8.2721291E-04  6.9908911E-04
  -1.00000  7.0158005E-04  9.5508446E-04  7.9074664E-04
   0.00000  7.9429244E-04  1.1243224E-03  9.0926411E-04
   1.00000  9.1491775E-04  1.3582469E-03  1.0695350E-03
   2.00000  1.0806086E-03  1.7024391E-03  1.3015678E-03
   3.00000  1.3308546E-03  2.2627338E-03  1.6792944E-03
   4.00000  1.7944094E-03  3.3733564E-03  2.4602404E-03
   5.00000  3.0355654E-03  6.4722254E-03  4.8163214E-03
   5.20000  3.4025654E-03  7.4628537E-03  5.5249557E-03
   5.40000  3.7508828E-03  8.4791937E-03  6.1865049E-03
   5.60000  4.0715399E-03  9.4978220E-03  6.7807271E-03
   5.80000  4.3747560E-03  1.0530369E-02  7.3260234E-03
   6.00000  4.6753992E-03  1.1599696E-02  7.8489201E-03
   6.20000  4.9865816E-03  1.2729457E-02  8.3723854E-03
   6.40000  5.3185702E-03  1.3942527E-02  8.9158364E-03
   6.60000  5.6790743E-03  1.5261549E-02  9.4977502E-03
   6.80000  6.0736081E-03  1.6709355E-02  1.0137306E-02
   7.00000  6.5058254E-03  1.8309031E-02  1.0853894E-02
   7.20000  6.9780062E-03  2.0084024E-02  1.1664188E-02
   7.40000  7.4918275E-03  2.2058484E-02  1.2577246E-02
   7.60000  8.0493394E-03  2.4257424E-02  1.3588990E-02
   7.80000  8.6538732E-03  2.6706003E-02  1.4678009E-02
   8.00000  9.3105780E-03  2.9427245E-02  1.5804744E-02
   8.20000  1.0026438E-02  3.2437725E-02  1.6915706E-02
   8.40000  1.0809790E-02  3.5741041E-02  1.7953489E-02
   8.60000  1.1669387E-02  3.9319275E-02  1.8871470E-02
   8.80000  1.2612986E-02  4.3123195E-02  1.9649242E-02
   9.00000  1.3645886E-02  4.7062435E-02  2.0302237E-02
   9.20000  1.4770539E-02  5.0997596E-02  2.0878629E-02
   9.40000  1.5986876E-02  5.4738636E-02  2.1443014E-02
   9.60000  1.7291470E-02  5.8055862E-02  2.2055830E-02
   9.80000  1.8675708E-02  6.0707320E-02  2.2758522E-02
   10.0000  2.0124206E-02  6.2480032E-02  2.3568772E-02
   10.2500  2.1989670E-02  6.3256147E-02  2.4727630E-02
   10.5000  2.3861150E-02  6.2402762E-02  2.6017763E-02
   10.7500  2.5673530E-02  6.0131534E-02  2.7394982E-02
   11.0000  2.7363764E-02  5.6831377E-02  2.8815617E-02
   11.2500  2.8880188E-02  5.2943270E-02  3.0242017E-02
   11.5000  3.0192490E-02  4.8856988E-02  3.1642772E-02
   11.7500  3.1297726E-02  4.4859834E-02  3.2990733E-02
   12.0000  3.2217337E-02  4.1131135E-02  3.4262862E-02
   12.2500  3.2987697E-02  3.7762834E-02  3.5441092E-02
   12.5000  3.3651083E-02  3.4785926E-02  3.6512241E-02
   12.7500  3.4248884E-02  3.2193309E-02  3.7467641E-02
   13.0000  3.4816635E-02  2.9957393E-02  3.8304145E-02
   13.2500  3.5381256E-02  2.8042199E-02  3.9025175E-02
   13.5000  3.5960430E-02  2.6410258E-02  3.9639239E-02
   13.7500  3.6563315E-02  2.5025973E-02  4.0156991E-02
   14.0000  3.7191766E-02  2.3857103E-02  4.0588859E-02
   14.2500  3.7841531E-02  2.2875304E-02  4.0943640E-02
   14.5000  3.8503291E-02  2.2056162E-02  4.1227809E-02
   14.7500  3.9163602E-02  2.1378967E-02  4.1445339E-02
   15.0000  3.9805844E-02  2.0826353E-02  4.1597915E-02
   15.2500  4.0411280E-02  2.0383877E-02  4.1685459E-02
   15.5000  4.0960267E-02  2.0039566E-02  4.1706890E-02
   15.7500  4.1433590E-02  1.9783465E-02  4.1661012E-02
   16.0000  4.1813907E-02  1.9607213E-02  4.1547401E-02
   16.2500  4.2087187E-02  1.9503672E-02  4.1367152E-02
   16.5000  4.2244028E-02  1.9466618E-02  4.1123375E-02
   16.7500  4.2280697E-02  1.9490503E-02  4.0821342E-02
   17.0000  4.2199750E-02  1.9570290E-02  4.0468297E-02
   17.2500  4.2010089E-02  1.9701358E-02  4.0072971E-02
   17.5000  4.1726393E-02  1.9879456E-02  3.9644933E-02
   17.7500  4.1367937E-02  2.0100695E-02  3.9193885E-02
   18.0000  4.0956943E-02  2.0361563E-02  3.8729034E-02
   18.2500  4.0516703E-02  2.0658933E-02  3.8258616E-02
   18.5000  4.0069727E-02  2.0990069E-02  3.7789589E-02
   18.7500  3.9636178E-02  2.1352617E-02  3.7327505E-02
   19.0000  3.9232717E-02  2.1744591E-02  3.6876495E-02
   19.2500  3.8871827E-02  2.2164365E-02  3.6439354E-02
   19.5000  3.8561572E-02  2.2610655E-02  3.6017646E-02
   19.7500  3.8305689E-02  2.3082431E-02  3.5611887E-02
   20.0000  3.8103929E-02  2.3578616E-02  3.5221833E-02
   21.0000  3.7729996E-02  2.5762153E-02  3.3808890E-02
   22.0000  3.7625712E-02  2.8110141E-02  3.2599533E-02
   23.0000  3.7193085E-02  3.0377675E-02  3.1532726E-02
   24.0000  3.6088119E-02  3.2284912E-02  3.0560915E-02
   25.0000  3.4355442E-02  3.3587472E-02  2.9660738E-02
   26.0000  3.2300248E-02  3.4157899E-02  2.8831026E-02
   27.0000  3.0268751E-02  3.4025744E-02  2.8094229E-02
   28.0000  2.8507761E-02  3.3350835E-02  2.7490171E-02
   29.0000  2.7127914E-02  3.2348513E-02  2.7049425E-02
   30.0000  2.6117811E-02  3.1201934E-02  2.6762173E-02
   31.0000  2.5405797E-02  3.0031803E-02  2.6587717E-02
   32.0000  2.4906909E-02  2.8900715E-02  2.6474371E-02
   33.0000  2.4542706E-02  2.7828059E-02  2.6370589E-02
   34.0000  2.4248371E-02  2.6808857E-02  2.6230446E-02
   35.0000  2.3973536E-02  2.5830194E-02  2.6016639E-02
   36.0000  2.3681773E-02  2.4882675E-02  2.5703876E-02
   37.0000  2.3352143E-02  2.3967743E-02  2.5283975E-02
   38.0000  2.2984343E-02  2.3103661E-02  2.4773192E-02
   39.0000  2.2606159E-02  2.2331678E-02  2.4225192E-02
   40.0000  2.2273890E-02  2.1713200E-02  2.3738062E-02
