    Energy   (100,001)      (010,001)      (001,110)   
  -25.0000  1.7179780E-04  1.9225162E-04  1.8543455E-04
  -24.0000  1.7786740E-04  1.9928239E-04  1.9203356E-04
  -23.0000  1.8433925E-04  2.0680818E-04  1.9908143E-04
  -22.0000  1.9125347E-04  2.1488222E-04  2.0662460E-04
  -21.0000  1.9865566E-04  2.2356555E-04  2.1471602E-04
  -20.0000  2.0659778E-04  2.3292853E-04  2.2341645E-04
  -19.0000  2.1513935E-04  2.4305264E-04  2.3279582E-04
  -18.0000  2.2434889E-04  2.5403281E-04  2.4293511E-04
  -17.0000  2.3430562E-04  2.6598020E-04  2.5392859E-04
  -16.0000  2.4510167E-04  2.7902587E-04  2.6588660E-04
  -15.0000  2.5684481E-04  2.9332537E-04  2.7893921E-04
  -14.0000  2.6966194E-04  3.0906464E-04  2.9324074E-04
  -13.0000  2.8370348E-04  3.2646782E-04  3.0897573E-04
  -12.0000  2.9914917E-04  3.4580744E-04  3.2636667E-04
  -11.0000  3.1621559E-04  3.6741807E-04  3.4568434E-04
  -10.0000  3.3516616E-04  3.9171492E-04  3.6726165E-04
  -9.00000  3.5632470E-04  4.1921937E-04  3.9151262E-04
  -8.00000  3.8009403E-04  4.5059496E-04  4.1895884E-04
  -7.00000  4.0698202E-04  4.8669890E-04  4.5026714E-04
  -6.00000  4.3763908E-04  5.2865770E-04  4.8630454E-04
  -5.00000  4.7291330E-04  5.7798134E-04  5.2822069E-04
  -4.00000  5.1393451E-04  6.3674091E-04  5.7757592E-04
  -3.00000  5.6224725E-04  7.0785611E-04  6.3654791E-04
  -2.00000  6.2003158E-04  7.9558214E-04  7.0828277E-04
  -1.00000  6.9049232E-04  9.0638414E-04  7.9752936E-04
   0.00000  7.7860239E-04  1.0506299E-03  9.1188262E-04
   1.00000  8.9268405E-04  1.2462200E-03  1.0645043E-03
   2.00000  1.0483398E-03  1.5276018E-03  1.2810844E-03
   3.00000  1.2808439E-03  1.9738156E-03  1.6224068E-03
   4.00000  1.7020914E-03  2.8340917E-03  2.2905211E-03
   5.00000  2.7968125E-03  5.1753202E-03  4.1710857E-03
   5.20000  3.1254521E-03  5.9010567E-03  4.7300807E-03
   5.40000  3.4434546E-03  6.6286032E-03  5.2637637E-03
   5.60000  3.7394118E-03  7.3434464E-03  5.7676864E-03
   5.80000  4.0182588E-03  8.0601928E-03  6.2662492E-03
   6.00000  4.2923948E-03  8.8003645E-03  6.7867699E-03
   6.20000  4.5769656E-03  9.5832590E-03  7.3492111E-03
   6.40000  4.8875929E-03  1.0425412E-02  7.9646452E-03
   6.60000  5.2386995E-03  1.1342015E-02  8.6350229E-03
   6.80000  5.6421753E-03  1.2347832E-02  9.3524773E-03
   7.00000  6.1064874E-03  1.3457409E-02  1.0099389E-02
   7.20000  6.6364456E-03  1.4684999E-02  1.0851725E-02
   7.40000  7.2339337E-03  1.6044550E-02  1.1587732E-02
   7.60000  7.8996469E-03  1.7549800E-02  1.2300329E-02
   7.80000  8.6350223E-03  1.9214351E-02  1.3005880E-02
   8.00000  9.4429290E-03  2.1051518E-02  1.3741830E-02
   8.20000  1.0326213E-02  2.3073784E-02  1.4554225E-02
   8.40000  1.1284359E-02  2.5291857E-02  1.5483787E-02
   8.60000  1.2309390E-02  2.7713282E-02  1.6557731E-02
   8.80000  1.3382525E-02  3.0340395E-02  1.7788151E-02
   9.00000  1.4473383E-02  3.3167252E-02  1.9174154E-02
   9.20000  1.5543561E-02  3.6175192E-02  2.0704892E-02
   9.40000  1.6555621E-02  3.9327270E-02  2.2362010E-02
   9.60000  1.7485219E-02  4.2562847E-02  2.4121027E-02
   9.80000  1.8330332E-02  4.5794543E-02  2.5951842E-02
   10.0000  1.9111934E-02  4.8909880E-02  2.7818858E-02
   10.2500  2.0054706E-02  5.2442027E-02  3.0141096E-02
   10.5000  2.1028501E-02  5.5331335E-02  3.2369471E-02
   10.7500  2.2087589E-02  5.7352506E-02  3.4418225E-02
   11.0000  2.3255302E-02  5.8345928E-02  3.6211002E-02
   11.2500  2.4524668E-02  5.8252365E-02  3.7688235E-02
   11.5000  2.5861624E-02  5.7132393E-02  3.8815738E-02
   11.7500  2.7209334E-02  5.5151970E-02  3.9590541E-02
   12.0000  2.8497659E-02  5.2542166E-02  4.0037315E-02
   12.2500  2.9658455E-02  4.9551251E-02  4.0198952E-02
   12.5000  3.0642350E-02  4.6404556E-02  4.0127120E-02
   12.7500  3.1430454E-02  4.3280413E-02  3.9875130E-02
   13.0000  3.2034954E-02  4.0302359E-02  3.9493195E-02
   13.2500  3.2489000E-02  3.7543228E-02  3.9026413E-02
   13.5000  3.2834372E-02  3.5036064E-02  3.8515243E-02
   13.7500  3.3113459E-02  3.2787002E-02  3.7995890E-02
   14.0000  3.3365023E-02  3.0786395E-02  3.7499463E-02
   14.2500  3.3621718E-02  2.9016734E-02  3.7050704E-02
   14.5000  3.3908794E-02  2.7457670E-02  3.6667114E-02
   14.7500  3.4243778E-02  2.6088857E-02  3.6358738E-02
   15.0000  3.4636826E-02  2.4891359E-02  3.6128570E-02
   15.2500  3.5091425E-02  2.3848157E-02  3.5973389E-02
   15.5000  3.5605256E-02  2.2944172E-02  3.5884837E-02
   15.7500  3.6171090E-02  2.2166053E-02  3.5850629E-02
   16.0000  3.6777690E-02  2.1501915E-02  3.5855817E-02
   16.2500  3.7410684E-02  2.0941099E-02  3.5884078E-02
   16.5000  3.8053408E-02  2.0473986E-02  3.5918978E-02
   16.7500  3.8687742E-02  2.0091874E-02  3.5945158E-02
   17.0000  3.9294976E-02  1.9786907E-02  3.5949377E-02
   17.2500  3.9856773E-02  1.9552038E-02  3.5921320E-02
   17.5000  4.0356241E-02  1.9381019E-02  3.5854096E-02
   17.7500  4.0779121E-02  1.9268395E-02  3.5744413E-02
   18.0000  4.1114953E-02  1.9209498E-02  3.5592403E-02
   18.2500  4.1358082E-02  1.9200420E-02  3.5401179E-02
   18.5000  4.1508270E-02  1.9237973E-02  3.5176184E-02
   18.7500  4.1570755E-02  1.9319611E-02  3.4924437E-02
   19.0000  4.1555671E-02  1.9443351E-02  3.4653749E-02
   19.2500  4.1476868E-02  1.9607685E-02  3.4371991E-02
   19.5000  4.1350326E-02  1.9811494E-02  3.4086468E-02
   19.7500  4.1192468E-02  2.0053929E-02  3.3803457E-02
   20.0000  4.1018817E-02  2.0334195E-02  3.3528042E-02
   21.0000  4.0414041E-02  2.1807265E-02  3.2572555E-02
   22.0000  4.0217860E-02  2.3768759E-02  3.1912971E-02
   23.0000  4.0209415E-02  2.6106029E-02  3.1475801E-02
   24.0000  3.9822215E-02  2.8661684E-02  3.1123330E-02
   25.0000  3.8592538E-02  3.1211117E-02  3.0746868E-02
   26.0000  3.6470498E-02  3.3468040E-02  3.0289620E-02
   27.0000  3.3818530E-02  3.5155141E-02  2.9740919E-02
   28.0000  3.1139839E-02  3.6114770E-02  2.9134621E-02
   29.0000  2.8819352E-02  3.6364876E-02  2.8542576E-02
   30.0000  2.7037725E-02  3.6056916E-02  2.8048415E-02
   31.0000  2.5800692E-02  3.5400307E-02  2.7714698E-02
   32.0000  2.5008272E-02  3.4592355E-02  2.7558961E-02
   33.0000  2.4534552E-02  3.3744259E-02  2.7545904E-02
   34.0000  2.4268608E-02  3.2894616E-02  2.7610924E-02
   35.0000  2.4124125E-02  3.2047210E-02  2.7683614E-02
   36.0000  2.4038820E-02  3.1194110E-02  2.7701202E-02
   37.0000  2.3970592E-02  3.0332453E-02  2.7619186E-02
   38.0000  2.3894243E-02  2.9478303E-02  2.7423429E-02
   39.0000  2.3802206E-02  2.8680454E-02  2.7144690E-02
   40.0000  2.3707440E-02  2.8023821E-02  2.6863800E-02
