    Energy   (100,001)      (010,001)      (001,110)   
  -25.0000  1.6886284E-04  1.8761372E-04  1.7058122E-04
  -24.0000  1.7502777E-04  1.9451903E-04  1.7684054E-04
  -23.0000  1.8161212E-04  2.0191291E-04  1.8352827E-04
  -22.0000  1.8865873E-04  2.0984809E-04  1.9068839E-04
  -21.0000  1.9621639E-04  2.1838510E-04  1.9837103E-04
  -20.0000  2.0434089E-04  2.2759370E-04  2.0663356E-04
  -19.0000  2.1309633E-04  2.3755478E-04  2.1554194E-04
  -18.0000  2.2255673E-04  2.4836258E-04  2.2517232E-04
  -17.0000  2.3280798E-04  2.6012756E-04  2.3561318E-04
  -16.0000  2.4395033E-04  2.7298003E-04  2.4696785E-04
  -15.0000  2.5610156E-04  2.8707476E-04  2.5935772E-04
  -14.0000  2.6940090E-04  3.0259696E-04  2.7292646E-04
  -13.0000  2.8401419E-04  3.1977004E-04  2.8784524E-04
  -12.0000  3.0014058E-04  3.3886596E-04  3.0431974E-04
  -11.0000  3.1802136E-04  3.6021900E-04  3.2259926E-04
  -10.0000  3.3795178E-04  3.8424454E-04  3.4298898E-04
  -9.00000  3.6029716E-04  4.1146499E-04  3.6586663E-04
  -8.00000  3.8551523E-04  4.4254637E-04  3.9170559E-04
  -7.00000  4.1418779E-04  4.7835084E-04  4.2110755E-04
  -6.00000  4.4706664E-04  5.2001411E-04  4.5484982E-04
  -5.00000  4.8514214E-04  5.6906279E-04  4.9395574E-04
  -4.00000  5.2974920E-04  6.2759779E-04  5.3980301E-04
  -3.00000  5.8273768E-04  6.9859283E-04  5.9429700E-04
  -2.00000  6.4676093E-04  7.8640343E-04  6.6016161E-04
  -1.00000  7.2579629E-04  8.9768803E-04  7.4145835E-04
   0.00000  8.2616612E-04  1.0432083E-03  8.4458860E-04
   1.00000  9.5878087E-04  1.2417334E-03  9.8044885E-04
   2.00000  1.1449239E-03  1.5298655E-03  1.1698333E-03
   3.00000  1.4352136E-03  1.9930655E-03  1.4605380E-03
   4.00000  1.9997609E-03  2.9066318E-03  2.0058822E-03
   5.00000  3.6165926E-03  5.4702473E-03  3.4681376E-03
   5.20000  4.1207756E-03  6.2697733E-03  3.9068911E-03
   5.40000  4.6059981E-03  7.0654311E-03  4.3313178E-03
   5.60000  5.0448916E-03  7.8367544E-03  4.7337728E-03
   5.80000  5.4370777E-03  8.5979303E-03  5.1316149E-03
   6.00000  5.7954404E-03  9.3731893E-03  5.5494556E-03
   6.20000  6.1364634E-03  1.0184987E-02  6.0086661E-03
   6.40000  6.4757625E-03  1.1051484E-02  6.5231890E-03
   6.60000  6.8264433E-03  1.1987152E-02  7.0984402E-03
   6.80000  7.1989885E-03  1.3004335E-02  7.7325060E-03
   7.00000  7.6020127E-03  1.4115212E-02  8.4195408E-03
   7.20000  8.0433795E-03  1.5333601E-02  9.1541724E-03
   7.40000  8.5311959E-03  1.6675857E-02  9.9346544E-03
   7.60000  9.0743618E-03  1.8160394E-02  1.0763168E-02
   7.80000  9.6826778E-03  1.9805913E-02  1.1643528E-02
   8.00000  1.0366740E-02  2.1628740E-02  1.2577761E-02
   8.20000  1.1137771E-02  2.3639744E-02  1.3563031E-02
   8.40000  1.2007314E-02  2.5841374E-02  1.4589912E-02
   8.60000  1.2986723E-02  2.8225843E-02  1.5642819E-02
   8.80000  1.4086554E-02  3.0775647E-02  1.6703116E-02
   9.00000  1.5315741E-02  3.3466633E-02  1.7754552E-02
   9.20000  1.6680393E-02  3.6272223E-02  1.8789375E-02
   9.40000  1.8182187E-02  3.9165822E-02  1.9812423E-02
   9.60000  1.9816386E-02  4.2118158E-02  2.0840919E-02
   9.80000  2.1569529E-02  4.5088165E-02  2.1899561E-02
   10.0000  2.3416717E-02  4.8009596E-02  2.3012628E-02
   10.2500  2.5796627E-02  5.1432229E-02  2.4503179E-02
   10.5000  2.8150222E-02  5.4333112E-02  2.6101518E-02
   10.7500  3.0336806E-02  5.6388667E-02  2.7769701E-02
   11.0000  3.2206406E-02  5.7321694E-02  2.9442201E-02
   11.2500  3.3633508E-02  5.6993666E-02  3.1044789E-02
   11.5000  3.4554115E-02  5.5461383E-02  3.2514719E-02
   11.7500  3.4983951E-02  5.2963229E-02  3.3809618E-02
   12.0000  3.5006933E-02  4.9840000E-02  3.4903709E-02
   12.2500  3.4744545E-02  4.6434224E-02  3.5782791E-02
   12.5000  3.4324375E-02  4.3018817E-02  3.6443074E-02
   12.7500  3.3858602E-02  3.9774156E-02  3.6891309E-02
   13.0000  3.3433678E-02  3.6799473E-02  3.7144982E-02
   13.2500  3.3108915E-02  3.4136223E-02  3.7233040E-02
   13.5000  3.2920360E-02  3.1789700E-02  3.7194528E-02
   13.7500  3.2885933E-02  2.9744927E-02  3.7073857E-02
   14.0000  3.3009782E-02  2.7977003E-02  3.6915363E-02
   14.2500  3.3285361E-02  2.6457325E-02  3.6759076E-02
   14.5000  3.3697361E-02  2.5157204E-02  3.6637998E-02
   14.7500  3.4223017E-02  2.4049835E-02  3.6576858E-02
   15.0000  3.4833319E-02  2.3111242E-02  3.6592042E-02
   15.2500  3.5494496E-02  2.2320583E-02  3.6692177E-02
   15.5000  3.6169954E-02  2.1660069E-02  3.6878957E-02
   15.7500  3.6822654E-02  2.1114666E-02  3.7147936E-02
   16.0000  3.7417785E-02  2.0671694E-02  3.7489260E-02
   16.2500  3.7925416E-02  2.0320409E-02  3.7888391E-02
   16.5000  3.8322781E-02  2.0051611E-02  3.8326937E-02
   16.7500  3.8595875E-02  1.9857326E-02  3.8783710E-02
   17.0000  3.8740104E-02  1.9730582E-02  3.9236028E-02
   17.2500  3.8759946E-02  1.9665248E-02  3.9661244E-02
   17.5000  3.8667685E-02  1.9655949E-02  4.0038339E-02
   17.7500  3.8481482E-02  1.9698003E-02  4.0349413E-02
   18.0000  3.8223122E-02  1.9787379E-02  4.0580881E-02
   18.2500  3.7915781E-02  1.9920639E-02  4.0724214E-02
   18.5000  3.7582103E-02  2.0094880E-02  4.0776151E-02
   18.7500  3.7242737E-02  2.0307660E-02  4.0738393E-02
   19.0000  3.6915385E-02  2.0556944E-02  4.0616843E-02
   19.2500  3.6614297E-02  2.0841052E-02  4.0420522E-02
   19.5000  3.6350116E-02  2.1158636E-02  4.0160333E-02
   19.7500  3.6129969E-02  2.1508596E-02  3.9847908E-02
   20.0000  3.5957788E-02  2.1889861E-02  3.9494855E-02
   21.0000  3.5747934E-02  2.3691675E-02  3.7896260E-02
   22.0000  3.6144628E-02  2.5829054E-02  3.6365719E-02
   23.0000  3.6769096E-02  2.8139594E-02  3.5062198E-02
   24.0000  3.7185182E-02  3.0408931E-02  3.3913678E-02
   25.0000  3.7033661E-02  3.2380649E-02  3.2784957E-02
   26.0000  3.6144263E-02  3.3817378E-02  3.1583517E-02
   27.0000  3.4593088E-02  3.4589787E-02  3.0315381E-02
   28.0000  3.2677971E-02  3.4727151E-02  2.9090053E-02
   29.0000  3.0775185E-02  3.4384035E-02  2.8051140E-02
   30.0000  2.9119704E-02  3.3746378E-02  2.7261347E-02
   31.0000  2.7786910E-02  3.2965372E-02  2.6696425E-02
   32.0000  2.6757415E-02  3.2137271E-02  2.6288133E-02
   33.0000  2.5967085E-02  3.1310838E-02  2.5959199E-02
   34.0000  2.5340826E-02  3.0505435E-02  2.5642928E-02
   35.0000  2.4810372E-02  2.9728431E-02  2.5289551E-02
   36.0000  2.4321780E-02  2.8986460E-02  2.4867980E-02
   37.0000  2.3839715E-02  2.8289974E-02  2.4369449E-02
   38.0000  2.3353194E-02  2.7653834E-02  2.3814328E-02
   39.0000  2.2883344E-02  2.7099686E-02  2.3258209E-02
   40.0000  2.2483217E-02  2.6661015E-02  2.2784474E-02
