    Energy   (100,001)      (010,001)      (001,110)   
  -25.0000  1.7592032E-04  1.8710764E-04  1.8437215E-04
  -24.0000  1.8217312E-04  1.9415173E-04  1.9092099E-04
  -23.0000  1.8884527E-04  2.0170232E-04  1.9791440E-04
  -22.0000  1.9597923E-04  2.0981474E-04  2.0539831E-04
  -21.0000  2.0362339E-04  2.1855259E-04  2.1342509E-04
  -20.0000  2.1183301E-04  2.2798931E-04  2.2205480E-04
  -19.0000  2.2067156E-04  2.3821014E-04  2.3135659E-04
  -18.0000  2.3021228E-04  2.4931452E-04  2.4141053E-04
  -17.0000  2.4054010E-04  2.6141922E-04  2.5230977E-04
  -16.0000  2.5175412E-04  2.7466219E-04  2.6416341E-04
  -15.0000  2.6397062E-04  2.8920755E-04  2.7709995E-04
  -14.0000  2.7732704E-04  3.0525201E-04  2.9127191E-04
  -13.0000  2.9198695E-04  3.2303330E-04  3.0686158E-04
  -12.0000  3.0814663E-04  3.4284132E-04  3.2408876E-04
  -11.0000  3.2604372E-04  3.6503307E-04  3.4322084E-04
  -10.0000  3.4596876E-04  3.9005300E-04  3.6458649E-04
  -9.00000  3.6828096E-04  4.1846121E-04  3.8859427E-04
  -8.00000  3.9342996E-04  4.5097315E-04  4.1575862E-04
  -7.00000  4.2198664E-04  4.8851682E-04  4.4673667E-04
  -6.00000  4.5468775E-04  5.3231710E-04  4.8238185E-04
  -5.00000  4.9250232E-04  5.8402342E-04  5.2382395E-04
  -4.00000  5.3673378E-04  6.4590966E-04  5.7259253E-04
  -3.00000  5.8918340E-04  7.2119878E-04  6.3081472E-04
  -2.00000  6.5242463E-04  8.1461560E-04  7.0154689E-04
  -1.00000  7.3029262E-04  9.3338386E-04  7.8936429E-04
   0.00000  8.2882919E-04  1.0891649E-03  9.0149014E-04
   1.00000  9.5831362E-04  1.3022312E-03  1.0501869E-03
   2.00000  1.1383455E-03  1.6118576E-03  1.2586025E-03
   3.00000  1.4138887E-03  2.1086864E-03  1.5785781E-03
   4.00000  1.9285206E-03  3.0794825E-03  2.1682005E-03
   5.00000  3.3047663E-03  5.7571990E-03  3.6896206E-03
   5.20000  3.7254092E-03  6.5950737E-03  4.1648199E-03
   5.40000  4.1403471E-03  7.4379409E-03  4.6531216E-03
   5.60000  4.5391736E-03  8.2659248E-03  5.1465136E-03
   5.80000  4.9301204E-03  9.0926839E-03  5.6537428E-03
   6.00000  5.3267795E-03  9.9415780E-03  6.1884962E-03
   6.20000  5.7421314E-03  1.0834940E-02  6.7644314E-03
   6.40000  6.1875879E-03  1.1792445E-02  7.3948723E-03
   6.60000  6.6734906E-03  1.2832102E-02  8.0937674E-03
   6.80000  7.2097399E-03  1.3971523E-02  8.8765338E-03
   7.00000  7.8061663E-03  1.5228988E-02  9.7602208E-03
   7.20000  8.4724966E-03  1.6624271E-02  1.0762548E-02
   7.40000  9.2177842E-03  1.8179215E-02  1.1899370E-02
   7.60000  1.0049205E-02  1.9917979E-02  1.3180270E-02
   7.80000  1.0970276E-02  2.1866960E-02  1.4602413E-02
   8.00000  1.1978595E-02  2.4054191E-02  1.6143612E-02
   8.20000  1.3063435E-02  2.6507821E-02  1.7756879E-02
   8.40000  1.4204457E-02  2.9253423E-02  1.9370576E-02
   8.60000  1.5373336E-02  3.2309975E-02  2.0898621E-02
   8.80000  1.6539216E-02  3.5684236E-02  2.2261593E-02
   9.00000  1.7676657E-02  3.9363039E-02  2.3412149E-02
   9.20000  1.8772310E-02  4.3303020E-02  2.4352128E-02
   9.40000  1.9826446E-02  4.7417972E-02  2.5131075E-02
   9.60000  2.0848366E-02  5.1566026E-02  2.5826945E-02
   9.80000  2.1848800E-02  5.5542149E-02  2.6520424E-02
   10.0000  2.2833572E-02  5.9084267E-02  2.7275329E-02
   10.2500  2.4038739E-02  6.2459223E-02  2.8361300E-02
   10.5000  2.5196695E-02  6.4205767E-02  2.9621988E-02
   10.7500  2.6280142E-02  6.4083103E-02  3.1030939E-02
   11.0000  2.7265075E-02  6.2214697E-02  3.2530887E-02
   11.2500  2.8139623E-02  5.9028241E-02  3.4046557E-02
   11.5000  2.8901538E-02  5.5075422E-02  3.5491061E-02
   11.7500  2.9550252E-02  5.0855294E-02  3.6772408E-02
   12.0000  3.0089459E-02  4.6721622E-02  3.7806519E-02
   12.2500  3.0533646E-02  4.2874284E-02  3.8530817E-02
   12.5000  3.0906958E-02  3.9398344E-02  3.8913511E-02
   12.7500  3.1236605E-02  3.6312035E-02  3.8958593E-02
   13.0000  3.1547563E-02  3.3599858E-02  3.8703856E-02
   13.2500  3.1860154E-02  3.1230734E-02  3.8211350E-02
   13.5000  3.2190010E-02  2.9168185E-02  3.7554496E-02
   13.7500  3.2548938E-02  2.7376009E-02  3.6806309E-02
   14.0000  3.2945409E-02  2.5821073E-02  3.6031176E-02
   14.2500  3.3384564E-02  2.4474310E-02  3.5280688E-02
   14.5000  3.3868036E-02  2.3310742E-02  3.4592731E-02
   14.7500  3.4393834E-02  2.2309069E-02  3.3992603E-02
   15.0000  3.4956415E-02  2.1451154E-02  3.3495057E-02
   15.2500  3.5546971E-02  2.0721542E-02  3.3106500E-02
   15.5000  3.6153942E-02  2.0107059E-02  3.2826982E-02
   15.7500  3.6763711E-02  1.9596479E-02  3.2651798E-02
   16.0000  3.7361445E-02  1.9180247E-02  3.2572731E-02
   16.2500  3.7932030E-02  1.8850218E-02  3.2578986E-02
   16.5000  3.8461034E-02  1.8599423E-02  3.2657925E-02
   16.7500  3.8935641E-02  1.8421850E-02  3.2795674E-02
   17.0000  3.9345483E-02  1.8312251E-02  3.2977693E-02
   17.2500  3.9683300E-02  1.8265975E-02  3.3189343E-02
   17.5000  3.9945365E-02  1.8278846E-02  3.3416476E-02
   17.7500  4.0131623E-02  1.8347062E-02  3.3646031E-02
   18.0000  4.0245527E-02  1.8467138E-02  3.3866576E-02
   18.2500  4.0293582E-02  1.8635855E-02  3.4068750E-02
   18.5000  4.0284643E-02  1.8850248E-02  3.4245537E-02
   18.7500  4.0229064E-02  1.9107596E-02  3.4392349E-02
   19.0000  4.0137760E-02  1.9405447E-02  3.4506894E-02
   19.2500  4.0021311E-02  1.9741656E-02  3.4588868E-02
   19.5000  3.9889165E-02  2.0114433E-02  3.4639512E-02
   19.7500  3.9749028E-02  2.0522322E-02  3.4661140E-02
   20.0000  3.9606543E-02  2.0963988E-02  3.4656705E-02
   21.0000  3.9059433E-02  2.3028203E-02  3.4443019E-02
   22.0000  3.8480171E-02  2.5454678E-02  3.4031899E-02
   23.0000  3.7607504E-02  2.8064672E-02  3.3494714E-02
   24.0000  3.6250620E-02  3.0603623E-02  3.2853919E-02
   25.0000  3.4463250E-02  3.2772797E-02  3.2121725E-02
   26.0000  3.2505957E-02  3.4327473E-02  3.1310075E-02
   27.0000  3.0697042E-02  3.5171564E-02  3.0441948E-02
   28.0000  2.9266077E-02  3.5379593E-02  2.9578777E-02
   29.0000  2.8275583E-02  3.5131024E-02  2.8820557E-02
   30.0000  2.7632228E-02  3.4605202E-02  2.8242823E-02
   31.0000  2.7199475E-02  3.3925702E-02  2.7874056E-02
   32.0000  2.6875382E-02  3.3160299E-02  2.7698376E-02
   33.0000  2.6602606E-02  3.2338537E-02  2.7666252E-02
   34.0000  2.6353494E-02  3.1468691E-02  2.7711205E-02
   35.0000  2.6114001E-02  3.0552056E-02  2.7763587E-02
   36.0000  2.5872578E-02  2.9594255E-02  2.7760322E-02
   37.0000  2.5615572E-02  2.8613082E-02  2.7654694E-02
   38.0000  2.5331962E-02  2.7644876E-02  2.7429792E-02
   39.0000  2.5029698E-02  2.6752695E-02  2.7116388E-02
   40.0000  2.4752683E-02  2.6026810E-02  2.6801501E-02
