 FDMNES
  energy    <xanes>
    -25.00    5.228714e-04
    -24.00    5.427559e-04
    -23.00    5.640588e-04
    -22.00    5.869323e-04
    -21.00    6.115511e-04
    -20.00    6.381158e-04
    -19.00    6.668586e-04
    -18.00    6.980500e-04
    -17.00    7.320056e-04
    -16.00    7.690973e-04
    -15.00    8.097655e-04
    -14.00    8.545357e-04
    -13.00    9.040397e-04
    -12.00    9.590443e-04
    -11.00    1.020488e-03
    -10.00    1.089534e-03
     -9.00    1.167636e-03
     -8.00    1.256641e-03
     -7.00    1.358927e-03
     -6.00    1.477611e-03
     -5.00    1.616856e-03
     -4.00    1.782354e-03
     -3.00    1.982104e-03
     -2.00    2.227727e-03
     -1.00    2.536815e-03
      0.00    2.937477e-03
      1.00    3.477993e-03
      2.00    4.250510e-03
      3.00    5.463065e-03
      4.00    7.749892e-03
      5.00    1.378058e-02
      5.20    1.572789e-02
      5.40    1.779269e-02
      5.60    1.995220e-02
      5.80    2.223095e-02
      6.00    2.465075e-02
      6.20    2.720777e-02
      6.40    2.987675e-02
      6.60    3.263586e-02
      6.80    3.549863e-02
      7.00    3.852897e-02
      7.20    4.182612e-02
      7.40    4.549082e-02
      7.60    4.959504e-02
      7.80    5.416782e-02
      8.00    5.919973e-02
      8.20    6.466354e-02
      8.40    7.054399e-02
      8.60    7.685988e-02
      8.80    8.366095e-02
      9.00    9.099169e-02
      9.20    9.882839e-02
      9.40    1.070154e-01
      9.60    1.152351e-01
      9.80    1.230267e-01
     10.00    1.298543e-01
     10.25    1.362825e-01
     10.50    1.398163e-01
     10.75    1.404167e-01
     11.00    1.385482e-01
     11.25    1.349205e-01
     11.50    1.302452e-01
     11.75    1.251078e-01
     12.00    1.199335e-01
     12.25    1.150013e-01
     12.50    1.104755e-01
     12.75    1.064406e-01
     13.00    1.029305e-01
     13.25    9.994580e-02
     13.50    9.746491e-02
     13.75    9.545260e-02
     14.00    9.386794e-02
     14.25    9.266964e-02
     14.50    9.181840e-02
     14.75    9.127685e-02
     15.00    9.100821e-02
     15.25    9.097480e-02
     15.50    9.113689e-02
     15.75    9.145204e-02
     16.00    9.187521e-02
     16.25    9.235997e-02
     16.50    9.286069e-02
     16.75    9.333552e-02
     17.00    9.374958e-02
     17.25    9.407767e-02
     17.50    9.430585e-02
     17.75    9.443159e-02
     18.00    9.446246e-02
     18.25    9.441374e-02
     18.50    9.430562e-02
     18.75    9.416027e-02
     19.00    9.399944e-02
     19.25    9.384266e-02
     19.50    9.370609e-02
     19.75    9.360183e-02
     20.00    9.353784e-02
     21.00    9.372147e-02
     22.00    9.442402e-02
     23.00    9.511753e-02
     24.00    9.524803e-02
     25.00    9.454218e-02
     26.00    9.303503e-02
     27.00    9.096240e-02
     28.00    8.865020e-02
     29.00    8.640615e-02
     30.00    8.441705e-02
     31.00    8.271505e-02
     32.00    8.122113e-02
     33.00    7.981001e-02
     34.00    7.835987e-02
     35.00    7.678100e-02
     36.00    7.503214e-02
     37.00    7.313369e-02
     38.00    7.117844e-02
     39.00    6.933527e-02
     40.00    6.782289e-02
