 FDMNES
  energy    <xanes>
   7695.00    5.051999e-04
   7695.29    5.108118e-04
   7695.58    5.164238e-04
   7695.87    5.220358e-04
   7696.16    5.278637e-04
   7696.44    5.338767e-04
   7696.73    5.398897e-04
   7697.02    5.459369e-04
   7697.31    5.523939e-04
   7697.60    5.588508e-04
   7697.89    5.653078e-04
   7698.18    5.720682e-04
   7698.47    5.790183e-04
   7698.76    5.859684e-04
   7699.04    5.930030e-04
   7699.33    6.005028e-04
   7699.62    6.080025e-04
   7699.91    6.155022e-04
   7700.20    6.234278e-04
   7700.49    6.315425e-04
   7700.78    6.396573e-04
   7701.07    6.479315e-04
   7701.36    6.567373e-04
   7701.64    6.655430e-04
   7701.93    6.743488e-04
   7702.22    6.837543e-04
   7702.51    6.933398e-04
   7702.80    7.029253e-04
   7703.09    7.127828e-04
   7703.38    7.232524e-04
   7703.67    7.337220e-04
   7703.96    7.441916e-04
   7704.24    7.555137e-04
   7704.53    7.669909e-04
   7704.82    7.784681e-04
   7705.11    7.903894e-04
   7705.40    8.030214e-04
   7705.69    8.156534e-04
   7705.98    8.282854e-04
   7706.27    8.421466e-04
   7706.56    8.561102e-04
   7706.84    8.700739e-04
   7707.13    8.847510e-04
   7707.42    9.002606e-04
   7707.71    9.157701e-04
   7708.00    9.312797e-04
   7708.29    9.485973e-04
   7708.58    9.659148e-04
   7708.87    9.832324e-04
   7709.16    1.001698e-03
   7709.44    1.021148e-03
   7709.73    1.040597e-03
   7710.02    1.060242e-03
   7710.31    1.082228e-03
   7710.60    1.104215e-03
   7710.89    1.126202e-03
   7711.18    1.150066e-03
   7711.47    1.175103e-03
   7711.76    1.200140e-03
   7712.04    1.225748e-03
   7712.33    1.254496e-03
   7712.62    1.283243e-03
   7712.91    1.311991e-03
   7713.20    1.343906e-03
   7713.49    1.377228e-03
   7713.78    1.410550e-03
   7714.07    1.445193e-03
   7714.36    1.484241e-03
   7714.64    1.523290e-03
   7714.93    1.562338e-03
   7715.22    1.607001e-03
   7715.51    1.653349e-03
   7715.80    1.699696e-03
   7716.09    1.748969e-03
   7716.38    1.804823e-03
   7716.67    1.860676e-03
   7716.96    1.916530e-03
   7717.24    1.983137e-03
   7717.53    2.051699e-03
   7717.82    2.120262e-03
   7718.11    2.195575e-03
   7718.40    2.281689e-03
   7718.69    2.367804e-03
   7718.98    2.453919e-03
   7719.27    2.563377e-03
   7719.56    2.674780e-03
   7719.84    2.786183e-03
   7720.13    2.915395e-03
   7720.42    3.065383e-03
   7720.71    3.215370e-03
   7721.00    3.365358e-03
   7721.29    3.579358e-03
   7721.58    3.793357e-03
   7721.87    4.007356e-03
   7722.16    4.286870e-03
   7722.44    4.622539e-03
   7722.73    4.958208e-03
   7723.02    5.316872e-03
   7723.31    5.951479e-03
   7723.60    6.586086e-03
   7723.89    7.220692e-03
   7724.18    8.500721e-03
   7724.47    1.018414e-02
   7724.76    1.186755e-02
   7725.04    1.370608e-02
   7725.33    1.645205e-02
   7725.62    1.932564e-02
   7725.91    2.238976e-02
   7726.20    2.573159e-02
   7726.49    2.953929e-02
   7726.78    3.378994e-02
   7727.07    3.859293e-02
   7727.36    4.389022e-02
   7727.64    4.969462e-02
   7727.93    5.602132e-02
   7728.22    6.290361e-02
   7728.51    7.047860e-02
   7728.80    7.865473e-02
   7729.09    8.741994e-02
   7729.38    9.633020e-02
   7729.67    1.047218e-01
   7729.96    1.118900e-01
   7730.24    1.171658e-01
   7730.53    1.200921e-01
   7730.82    1.210754e-01
   7731.11    1.206739e-01
   7731.40    1.194321e-01
   7731.69    1.177796e-01
   7731.98    1.159897e-01
   7732.27    1.141991e-01
   7732.56    1.124503e-01
   7732.84    1.107419e-01
   7733.13    1.090807e-01
   7733.42    1.074954e-01
   7733.71    1.060365e-01
   7734.00    1.047627e-01
   7734.29    1.037535e-01
   7734.58    1.030057e-01
   7734.87    1.025148e-01
   7735.16    1.022528e-01
   7735.44    1.021707e-01
   7735.73    1.022032e-01
   7736.02    1.022713e-01
   7736.31    1.022843e-01
   7736.60    1.021709e-01
   7736.89    1.018777e-01
   7737.18    1.013744e-01
   7737.47    1.006574e-01
   7737.76    9.974643e-02
   7738.04    9.868020e-02
   7738.33    9.753783e-02
   7738.62    9.638298e-02
   7738.91    9.527562e-02
   7739.20    9.426688e-02
   7739.49    9.339597e-02
   7739.78    9.270387e-02
   7740.07    9.224579e-02
   7740.36    9.207823e-02
   7740.64    9.191066e-02
   7740.93    9.174310e-02
   7741.22    9.193011e-02
   7741.51    9.222350e-02
   7741.80    9.251689e-02
   7742.09    9.285948e-02
   7742.38    9.331275e-02
   7742.67    9.376602e-02
   7742.96    9.421930e-02
   7743.24    9.454470e-02
   7743.53    9.484684e-02
   7743.82    9.514899e-02
   7744.11    9.532115e-02
   7744.40    9.528534e-02
   7744.69    9.524952e-02
   7744.98    9.521370e-02
   7745.27    9.485587e-02
   7745.56    9.447120e-02
   7745.84    9.408654e-02
   7746.13    9.359521e-02
   7746.42    9.297944e-02
   7746.71    9.236367e-02
   7747.00    9.174790e-02
   7747.29    9.104404e-02
   7747.58    9.034019e-02
   7747.87    8.963633e-02
   7748.16    8.893638e-02
   7748.44    8.823978e-02
   7748.73    8.754318e-02
   7749.02    8.684986e-02
   7749.31    8.619586e-02
   7749.60    8.554186e-02
   7749.89    8.488785e-02
   7750.18    8.425703e-02
   7750.47    8.364068e-02
   7750.76    8.302434e-02
   7751.04    8.241046e-02
   7751.33    8.181013e-02
   7751.62    8.120981e-02
   7751.91    8.060948e-02
   7752.20    8.000465e-02
   7752.49    7.939781e-02
   7752.78    7.879098e-02
   7753.07    7.817902e-02
   7753.36    7.755001e-02
   7753.64    7.692100e-02
   7753.93    7.629199e-02
   7754.22    7.564154e-02
   7754.51    7.498465e-02
   7754.80    7.432776e-02
   7755.09    7.366408e-02
   7755.38    7.298510e-02
   7755.67    7.230612e-02
   7755.96    7.162715e-02
   7756.24    7.094494e-02
   7756.53    7.026214e-02
   7756.82    6.957935e-02
   7757.11    6.890702e-02
   7757.40    6.825145e-02
   7757.69    6.759588e-02
   7757.98    6.694031e-02
   7758.27    6.634992e-02
   7758.56    6.576496e-02
   7758.84    6.518001e-02
   7759.13    6.465045e-02
   7759.42    6.418552e-02
   7759.71    6.372060e-02
   7760.00    6.325568e-02
