 FDMNES
  energy    <xanes>
   7695.00    5.461116e-04
   7695.29    5.520817e-04
   7695.58    5.580519e-04
   7695.87    5.640221e-04
   7696.16    5.702233e-04
   7696.44    5.766224e-04
   7696.73    5.830216e-04
   7697.02    5.894574e-04
   7697.31    5.963322e-04
   7697.60    6.032070e-04
   7697.89    6.100818e-04
   7698.18    6.172824e-04
   7698.47    6.246865e-04
   7698.76    6.320906e-04
   7699.04    6.395856e-04
   7699.33    6.475808e-04
   7699.62    6.555760e-04
   7699.91    6.635711e-04
   7700.20    6.720252e-04
   7700.49    6.806831e-04
   7700.78    6.893411e-04
   7701.07    6.981713e-04
   7701.36    7.075757e-04
   7701.64    7.169800e-04
   7701.93    7.263844e-04
   7702.22    7.364383e-04
   7702.51    7.466872e-04
   7702.80    7.569360e-04
   7703.09    7.674802e-04
   7703.38    7.786893e-04
   7703.67    7.898983e-04
   7703.96    8.011073e-04
   7704.24    8.132453e-04
   7704.53    8.255521e-04
   7704.82    8.378589e-04
   7705.11    8.506514e-04
   7705.40    8.642208e-04
   7705.69    8.777902e-04
   7705.98    8.913596e-04
   7706.27    9.062782e-04
   7706.56    9.213092e-04
   7706.84    9.363402e-04
   7707.13    9.521576e-04
   7707.42    9.688927e-04
   7707.71    9.856277e-04
   7708.00    1.002363e-03
   7708.29    1.021100e-03
   7708.58    1.039838e-03
   7708.87    1.058575e-03
   7709.16    1.078591e-03
   7709.44    1.099702e-03
   7709.73    1.120813e-03
   7710.02    1.142143e-03
   7710.31    1.166096e-03
   7710.60    1.190049e-03
   7710.89    1.214001e-03
   7711.18    1.240071e-03
   7711.47    1.267463e-03
   7711.76    1.294855e-03
   7712.04    1.322895e-03
   7712.33    1.354502e-03
   7712.62    1.386109e-03
   7712.91    1.417716e-03
   7713.20    1.452950e-03
   7713.49    1.489796e-03
   7713.78    1.526642e-03
   7714.07    1.565016e-03
   7714.36    1.608484e-03
   7714.64    1.651952e-03
   7714.93    1.695419e-03
   7715.22    1.745450e-03
   7715.51    1.797450e-03
   7715.80    1.849450e-03
   7716.09    1.904911e-03
   7716.38    1.968162e-03
   7716.67    2.031412e-03
   7716.96    2.094662e-03
   7717.24    2.170822e-03
   7717.53    2.249330e-03
   7717.82    2.327837e-03
   7718.11    2.414586e-03
   7718.40    2.514521e-03
   7718.69    2.614456e-03
   7718.98    2.714391e-03
   7719.27    2.843387e-03
   7719.56    2.974805e-03
   7719.84    3.106223e-03
   7720.13    3.260335e-03
   7720.42    3.440922e-03
   7720.71    3.621509e-03
   7721.00    3.802097e-03
   7721.29    4.066558e-03
   7721.58    4.331020e-03
   7721.87    4.595482e-03
   7722.16    4.948664e-03
   7722.44    5.377893e-03
   7722.73    5.807121e-03
   7723.02    6.268639e-03
   7723.31    7.117625e-03
   7723.60    7.966611e-03
   7723.89    8.815597e-03
   7724.18    1.059890e-02
   7724.47    1.296615e-02
   7724.76    1.533340e-02
   7725.04    1.793126e-02
   7725.33    2.188938e-02
   7725.62    2.606875e-02
   7725.91    3.054897e-02
   7726.20    3.544323e-02
   7726.49    4.106366e-02
   7726.78    4.743765e-02
   7727.07    5.472939e-02
   7727.36    6.253919e-02
   7727.64    7.020754e-02
   7727.93    7.722787e-02
   7728.22    8.372727e-02
   7728.51    9.017740e-02
   7728.80    9.698467e-02
   7729.09    1.044170e-01
   7729.38    1.122251e-01
   7729.67    1.199376e-01
   7729.96    1.268051e-01
   7730.24    1.319391e-01
   7730.53    1.344063e-01
   7730.82    1.342076e-01
   7731.11    1.317704e-01
   7731.40    1.277739e-01
   7731.69    1.229462e-01
   7731.98    1.178908e-01
   7732.27    1.130442e-01
   7732.56    1.086736e-01
   7732.84    1.048578e-01
   7733.13    1.016231e-01
   7733.42    9.895584e-02
   7733.71    9.682058e-02
   7734.00    9.516842e-02
   7734.29    9.398311e-02
   7734.58    9.314075e-02
   7734.87    9.256938e-02
   7735.16    9.219609e-02
   7735.44    9.195043e-02
   7735.73    9.176781e-02
   7736.02    9.159013e-02
   7736.31    9.136913e-02
   7736.60    9.107810e-02
   7736.89    9.070392e-02
   7737.18    9.024613e-02
   7737.47    8.971520e-02
   7737.76    8.912956e-02
   7738.04    8.851486e-02
   7738.33    8.790374e-02
   7738.62    8.732305e-02
   7738.91    8.679698e-02
   7739.20    8.634567e-02
   7739.49    8.598443e-02
   7739.78    8.573242e-02
   7740.07    8.562055e-02
   7740.36    8.568381e-02
   7740.64    8.574706e-02
   7740.93    8.581031e-02
   7741.22    8.610642e-02
   7741.51    8.647238e-02
   7741.80    8.683833e-02
   7742.09    8.725225e-02
   7742.38    8.777408e-02
   7742.67    8.829590e-02
   7742.96    8.881773e-02
   7743.24    8.931022e-02
   7743.53    8.979738e-02
   7743.82    9.028454e-02
   7744.11    9.068940e-02
   7744.40    9.096255e-02
   7744.69    9.123571e-02
   7744.98    9.150886e-02
   7745.27    9.149615e-02
   7745.56    9.145961e-02
   7745.84    9.142308e-02
   7746.13    9.125712e-02
   7746.42    9.094017e-02
   7746.71    9.062323e-02
   7747.00    9.030628e-02
   7747.29    8.982376e-02
   7747.58    8.934124e-02
   7747.87    8.885872e-02
   7748.16    8.835323e-02
   7748.44    8.782805e-02
   7748.73    8.730287e-02
   7749.02    8.678045e-02
   7749.31    8.629117e-02
   7749.60    8.580190e-02
   7749.89    8.531263e-02
   7750.18    8.486096e-02
   7750.47    8.443280e-02
   7750.76    8.400464e-02
   7751.04    8.358415e-02
   7751.33    8.320587e-02
   7751.62    8.282759e-02
   7751.91    8.244931e-02
   7752.20    8.208753e-02
   7752.49    8.173307e-02
   7752.78    8.137862e-02
   7753.07    8.102381e-02
   7753.36    8.066785e-02
   7753.64    8.031189e-02
   7753.93    7.995592e-02
   7754.22    7.958675e-02
   7754.51    7.921361e-02
   7754.80    7.884047e-02
   7755.09    7.846144e-02
   7755.38    7.806917e-02
   7755.67    7.767691e-02
   7755.96    7.728464e-02
   7756.24    7.688590e-02
   7756.53    7.648599e-02
   7756.82    7.608608e-02
   7757.11    7.569147e-02
   7757.40    7.530536e-02
   7757.69    7.491925e-02
   7757.98    7.453314e-02
   7758.27    7.418530e-02
   7758.56    7.384065e-02
   7758.84    7.349601e-02
   7759.13    7.318419e-02
   7759.42    7.291067e-02
   7759.71    7.263716e-02
   7760.00    7.236365e-02
