 FDMNES
  energy    <xanes>
   7695.00    5.485885e-04
   7695.29    5.542032e-04
   7695.58    5.598178e-04
   7695.87    5.654324e-04
   7696.16    5.712515e-04
   7696.44    5.772459e-04
   7696.73    5.832404e-04
   7697.02    5.892670e-04
   7697.31    5.956804e-04
   7697.60    6.020937e-04
   7697.89    6.085071e-04
   7698.18    6.152058e-04
   7698.47    6.220828e-04
   7698.76    6.289597e-04
   7699.04    6.359159e-04
   7699.33    6.433078e-04
   7699.62    6.506996e-04
   7699.91    6.580915e-04
   7700.20    6.658806e-04
   7700.49    6.738463e-04
   7700.78    6.818120e-04
   7701.07    6.899260e-04
   7701.36    6.985339e-04
   7701.64    7.071418e-04
   7701.93    7.157497e-04
   7702.22    7.249129e-04
   7702.51    7.342426e-04
   7702.80    7.435723e-04
   7703.09    7.531528e-04
   7703.38    7.632976e-04
   7703.67    7.734424e-04
   7703.96    7.835871e-04
   7704.24    7.945146e-04
   7704.53    8.055844e-04
   7704.82    8.166541e-04
   7705.11    8.281299e-04
   7705.40    8.402552e-04
   7705.69    8.523806e-04
   7705.98    8.645060e-04
   7706.27    8.777501e-04
   7706.56    8.910874e-04
   7706.84    9.044248e-04
   7707.13    9.184086e-04
   7707.42    9.331468e-04
   7707.71    9.478849e-04
   7708.00    9.626231e-04
   7708.29    9.789922e-04
   7708.58    9.953613e-04
   7708.87    1.011730e-03
   7709.16    1.029131e-03
   7709.44    1.047414e-03
   7709.73    1.065698e-03
   7710.02    1.084157e-03
   7710.31    1.104709e-03
   7710.60    1.125261e-03
   7710.89    1.145814e-03
   7711.18    1.168037e-03
   7711.47    1.191305e-03
   7711.76    1.214573e-03
   7712.04    1.238347e-03
   7712.33    1.264905e-03
   7712.62    1.291462e-03
   7712.91    1.318020e-03
   7713.20    1.347375e-03
   7713.49    1.377972e-03
   7713.78    1.408570e-03
   7714.07    1.440331e-03
   7714.36    1.475969e-03
   7714.64    1.511607e-03
   7714.93    1.547246e-03
   7715.22    1.587814e-03
   7715.51    1.629862e-03
   7715.80    1.671910e-03
   7716.09    1.716523e-03
   7716.38    1.766908e-03
   7716.67    1.817293e-03
   7716.96    1.867678e-03
   7717.24    1.927503e-03
   7717.53    1.989044e-03
   7717.82    2.050584e-03
   7718.11    2.118077e-03
   7718.40    2.195091e-03
   7718.69    2.272105e-03
   7718.98    2.349119e-03
   7719.27    2.446912e-03
   7719.56    2.546437e-03
   7719.84    2.645962e-03
   7720.13    2.761644e-03
   7720.42    2.896178e-03
   7720.71    3.030712e-03
   7721.00    3.165246e-03
   7721.29    3.359977e-03
   7721.58    3.554709e-03
   7721.87    3.749441e-03
   7722.16    4.010019e-03
   7722.44    4.327036e-03
   7722.73    4.644053e-03
   7723.02    4.987120e-03
   7723.31    5.642780e-03
   7723.60    6.298441e-03
   7723.89    6.954101e-03
   7724.18    8.430972e-03
   7724.47    1.042110e-02
   7724.76    1.241122e-02
   7725.04    1.456451e-02
   7725.33    1.753428e-02
   7725.62    2.016324e-02
   7725.91    2.243277e-02
   7726.20    2.454857e-02
   7726.49    2.661917e-02
   7726.78    2.874072e-02
   7727.07    3.102821e-02
   7727.36    3.356873e-02
   7727.64    3.648771e-02
   7727.93    3.989822e-02
   7728.22    4.389271e-02
   7728.51    4.866702e-02
   7728.80    5.420175e-02
   7729.09    6.074151e-02
   7729.38    6.806083e-02
   7729.67    7.606978e-02
   7729.96    8.429387e-02
   7730.24    9.213410e-02
   7730.53    9.873587e-02
   7730.82    1.035693e-01
   7731.11    1.064755e-01
   7731.40    1.076573e-01
   7731.69    1.075437e-01
   7731.98    1.065890e-01
   7732.27    1.051348e-01
   7732.56    1.034250e-01
   7732.84    1.016062e-01
   7733.13    9.975659e-02
   7733.42    9.793993e-02
   7733.71    9.621581e-02
   7734.00    9.464105e-02
   7734.29    9.329765e-02
   7734.58    9.220930e-02
   7734.87    9.140780e-02
   7735.16    9.091205e-02
   7735.44    9.072715e-02
   7735.73    9.084410e-02
   7736.02    9.125635e-02
   7736.31    9.191562e-02
   7736.60    9.275695e-02
   7736.89    9.372065e-02
   7737.18    9.474185e-02
   7737.47    9.575527e-02
   7737.76    9.669867e-02
   7738.04    9.750824e-02
   7738.33    9.816327e-02
   7738.62    9.865377e-02
   7738.91    9.898811e-02
   7739.20    9.918991e-02
   7739.49    9.929330e-02
   7739.78    9.933565e-02
   7740.07    9.938049e-02
   7740.36    9.949090e-02
   7740.64    9.960131e-02
   7740.93    9.971172e-02
   7741.22    1.000531e-01
   7741.51    1.004637e-01
   7741.80    1.008744e-01
   7742.09    1.013653e-01
   7742.38    1.020369e-01
   7742.67    1.027085e-01
   7742.96    1.033800e-01
   7743.24    1.040705e-01
   7743.53    1.047645e-01
   7743.82    1.054584e-01
   7744.11    1.060465e-01
   7744.40    1.064653e-01
   7744.69    1.068841e-01
   7744.98    1.073030e-01
   7745.27    1.072679e-01
   7745.56    1.071951e-01
   7745.84    1.071222e-01
   7746.13    1.068106e-01
   7746.42    1.062203e-01
   7746.71    1.056300e-01
   7747.00    1.050398e-01
   7747.29    1.040962e-01
   7747.58    1.031527e-01
   7747.87    1.022091e-01
   7748.16    1.012031e-01
   7748.44    1.001435e-01
   7748.73    9.908389e-02
   7749.02    9.802978e-02
   7749.31    9.704170e-02
   7749.60    9.605362e-02
   7749.89    9.506554e-02
   7750.18    9.417732e-02
   7750.47    9.335151e-02
   7750.76    9.252570e-02
   7751.04    9.172651e-02
   7751.33    9.107380e-02
   7751.62    9.042108e-02
   7751.91    8.976836e-02
   7752.20    8.921377e-02
   7752.49    8.870279e-02
   7752.78    8.819181e-02
   7753.07    8.770343e-02
   7753.36    8.729038e-02
   7753.64    8.687733e-02
   7753.93    8.646429e-02
   7754.22    8.609433e-02
   7754.51    8.573731e-02
   7754.80    8.538029e-02
   7755.09    8.503053e-02
   7755.38    8.469712e-02
   7755.67    8.436370e-02
   7755.96    8.403028e-02
   7756.24    8.369934e-02
   7756.53    8.336885e-02
   7756.82    8.303836e-02
   7757.11    8.270607e-02
   7757.40    8.237090e-02
   7757.69    8.203573e-02
   7757.98    8.170057e-02
   7758.27    8.137212e-02
   7758.56    8.104423e-02
   7758.84    8.071635e-02
   7759.13    8.040933e-02
   7759.42    8.012664e-02
   7759.71    7.984396e-02
   7760.00    7.956127e-02
