 FDMNES
  energy    <xanes>
   7695.00    5.251194e-04
   7695.29    5.306822e-04
   7695.58    5.362451e-04
   7695.87    5.418079e-04
   7696.16    5.475776e-04
   7696.44    5.535245e-04
   7696.73    5.594714e-04
   7697.02    5.654510e-04
   7697.31    5.718220e-04
   7697.60    5.781930e-04
   7697.89    5.845640e-04
   7698.18    5.912242e-04
   7698.47    5.980650e-04
   7698.76    6.049058e-04
   7699.04    6.118270e-04
   7699.33    6.191901e-04
   7699.62    6.265532e-04
   7699.91    6.339164e-04
   7700.20    6.416829e-04
   7700.49    6.496288e-04
   7700.78    6.575746e-04
   7701.07    6.656711e-04
   7701.36    6.742698e-04
   7701.64    6.828684e-04
   7701.93    6.914670e-04
   7702.22    7.006306e-04
   7702.51    7.099637e-04
   7702.80    7.192967e-04
   7703.09    7.288852e-04
   7703.38    7.390483e-04
   7703.67    7.492114e-04
   7703.96    7.593745e-04
   7704.24    7.703354e-04
   7704.53    7.814414e-04
   7704.82    7.925475e-04
   7705.11    8.040677e-04
   7705.40    8.162506e-04
   7705.69    8.284336e-04
   7705.98    8.406166e-04
   7706.27    8.539418e-04
   7706.56    8.673622e-04
   7706.84    8.807826e-04
   7707.13    8.948636e-04
   7707.42    9.097153e-04
   7707.71    9.245669e-04
   7708.00    9.394186e-04
   7708.29    9.559377e-04
   7708.58    9.724568e-04
   7708.87    9.889759e-04
   7709.16    1.006549e-03
   7709.44    1.025027e-03
   7709.73    1.043504e-03
   7710.02    1.062160e-03
   7710.31    1.082959e-03
   7710.60    1.103757e-03
   7710.89    1.124555e-03
   7711.18    1.147064e-03
   7711.47    1.170640e-03
   7711.76    1.194217e-03
   7712.04    1.218312e-03
   7712.33    1.245254e-03
   7712.62    1.272196e-03
   7712.91    1.299138e-03
   7713.20    1.328939e-03
   7713.49    1.360011e-03
   7713.78    1.391083e-03
   7714.07    1.423343e-03
   7714.36    1.459563e-03
   7714.64    1.495783e-03
   7714.93    1.532002e-03
   7715.22    1.573248e-03
   7715.51    1.616001e-03
   7715.80    1.658754e-03
   7716.09    1.704115e-03
   7716.38    1.755345e-03
   7716.67    1.806574e-03
   7716.96    1.857803e-03
   7717.24    1.918591e-03
   7717.53    1.981116e-03
   7717.82    2.043641e-03
   7718.11    2.112155e-03
   7718.40    2.190254e-03
   7718.69    2.268353e-03
   7718.98    2.346451e-03
   7719.27    2.445275e-03
   7719.56    2.545827e-03
   7719.84    2.646378e-03
   7720.13    2.762823e-03
   7720.42    2.897810e-03
   7720.71    3.032797e-03
   7721.00    3.167785e-03
   7721.29    3.360681e-03
   7721.58    3.553578e-03
   7721.87    3.746475e-03
   7722.16    4.000403e-03
   7722.44    4.306644e-03
   7722.73    4.612885e-03
   7723.02    4.941798e-03
   7723.31    5.542774e-03
   7723.60    6.143749e-03
   7723.89    6.744725e-03
   7724.18    8.030883e-03
   7724.47    9.745278e-03
   7724.76    1.145967e-02
   7725.04    1.334094e-02
   7725.33    1.616981e-02
   7725.62    1.896011e-02
   7725.91    2.151776e-02
   7726.20    2.385616e-02
   7726.49    2.610320e-02
   7726.78    2.850393e-02
   7727.07    3.131635e-02
   7727.36    3.463996e-02
   7727.64    3.858337e-02
   7727.93    4.317699e-02
   7728.22    4.838846e-02
   7728.51    5.427735e-02
   7728.80    6.072109e-02
   7729.09    6.773648e-02
   7729.38    7.500964e-02
   7729.67    8.223890e-02
   7729.96    8.910270e-02
   7730.24    9.529059e-02
   7730.53    1.004059e-01
   7730.82    1.042502e-01
   7731.11    1.066998e-01
   7731.40    1.077758e-01
   7731.69    1.076778e-01
   7731.98    1.067362e-01
   7732.27    1.053205e-01
   7732.56    1.038004e-01
   7732.84    1.024258e-01
   7733.13    1.013327e-01
   7733.42    1.005892e-01
   7733.71    1.002140e-01
   7734.00    1.001919e-01
   7734.29    1.005164e-01
   7734.58    1.010912e-01
   7734.87    1.018534e-01
   7735.16    1.027346e-01
   7735.44    1.036634e-01
   7735.73    1.045679e-01
   7736.02    1.053691e-01
   7736.31    1.060007e-01
   7736.60    1.064253e-01
   7736.89    1.066189e-01
   7737.18    1.065790e-01
   7737.47    1.063237e-01
   7737.76    1.058856e-01
   7738.04    1.053067e-01
   7738.33    1.046560e-01
   7738.62    1.039830e-01
   7738.91    1.033307e-01
   7739.20    1.027335e-01
   7739.49    1.022161e-01
   7739.78    1.018019e-01
   7740.07    1.015177e-01
   7740.36    1.013887e-01
   7740.64    1.012596e-01
   7740.93    1.011306e-01
   7741.22    1.011610e-01
   7741.51    1.012393e-01
   7741.80    1.013176e-01
   7742.09    1.014005e-01
   7742.38    1.014935e-01
   7742.67    1.015866e-01
   7742.96    1.016797e-01
   7743.24    1.016439e-01
   7743.53    1.015847e-01
   7743.82    1.015255e-01
   7744.11    1.013691e-01
   7744.40    1.010571e-01
   7744.69    1.007451e-01
   7744.98    1.004331e-01
   7745.27    9.988214e-02
   7745.56    9.931129e-02
   7745.84    9.874043e-02
   7746.13    9.808964e-02
   7746.42    9.734560e-02
   7746.71    9.660156e-02
   7747.00    9.585752e-02
   7747.29    9.505149e-02
   7747.58    9.424547e-02
   7747.87    9.343944e-02
   7748.16    9.264963e-02
   7748.44    9.187373e-02
   7748.73    9.109782e-02
   7749.02    9.032844e-02
   7749.31    8.963738e-02
   7749.60    8.894632e-02
   7749.89    8.825526e-02
   7750.18    8.762586e-02
   7750.47    8.703501e-02
   7750.76    8.644416e-02
   7751.04    8.586666e-02
   7751.33    8.536262e-02
   7751.62    8.485858e-02
   7751.91    8.435454e-02
   7752.20    8.389071e-02
   7752.49    8.344474e-02
   7752.78    8.299877e-02
   7753.07    8.255853e-02
   7753.36    8.213735e-02
   7753.64    8.171618e-02
   7753.93    8.129500e-02
   7754.22    8.086981e-02
   7754.51    8.044341e-02
   7754.80    8.001702e-02
   7755.09    7.958267e-02
   7755.38    7.913043e-02
   7755.67    7.867819e-02
   7755.96    7.822596e-02
   7756.24    7.774657e-02
   7756.53    7.726226e-02
   7756.82    7.677794e-02
   7757.11    7.628612e-02
   7757.40    7.578228e-02
   7757.69    7.527845e-02
   7757.98    7.477461e-02
   7758.27    7.428649e-02
   7758.56    7.379968e-02
   7758.84    7.331287e-02
   7759.13    7.286168e-02
   7759.42    7.245203e-02
   7759.71    7.204239e-02
   7760.00    7.163275e-02
