 FDMNES
  energy    <xanes>
   7695.00    5.180644e-04
   7695.29    5.235516e-04
   7695.58    5.290389e-04
   7695.87    5.345261e-04
   7696.16    5.402171e-04
   7696.44    5.460828e-04
   7696.73    5.519484e-04
   7697.02    5.578462e-04
   7697.31    5.641297e-04
   7697.60    5.704131e-04
   7697.89    5.766965e-04
   7698.18    5.832648e-04
   7698.47    5.900110e-04
   7698.76    5.967572e-04
   7699.04    6.035826e-04
   7699.33    6.108432e-04
   7699.62    6.181038e-04
   7699.91    6.253645e-04
   7700.20    6.330224e-04
   7700.49    6.408568e-04
   7700.78    6.486913e-04
   7701.07    6.566741e-04
   7701.36    6.651513e-04
   7701.64    6.736285e-04
   7701.93    6.821057e-04
   7702.22    6.911390e-04
   7702.51    7.003392e-04
   7702.80    7.095394e-04
   7703.09    7.189910e-04
   7703.38    7.290082e-04
   7703.67    7.390253e-04
   7703.96    7.490425e-04
   7704.24    7.598448e-04
   7704.53    7.707899e-04
   7704.82    7.817350e-04
   7705.11    7.930876e-04
   7705.40    8.050923e-04
   7705.69    8.170970e-04
   7705.98    8.291016e-04
   7706.27    8.422299e-04
   7706.56    8.554519e-04
   7706.84    8.686738e-04
   7707.13    8.825453e-04
   7707.42    8.971748e-04
   7707.71    9.118042e-04
   7708.00    9.264337e-04
   7708.29    9.427025e-04
   7708.58    9.589713e-04
   7708.87    9.752401e-04
   7709.16    9.925453e-04
   7709.44    1.010739e-03
   7709.73    1.028932e-03
   7710.02    1.047301e-03
   7710.31    1.067775e-03
   7710.60    1.088249e-03
   7710.89    1.108723e-03
   7711.18    1.130876e-03
   7711.47    1.154079e-03
   7711.76    1.177281e-03
   7712.04    1.200992e-03
   7712.33    1.227498e-03
   7712.62    1.254003e-03
   7712.91    1.280509e-03
   7713.20    1.309820e-03
   7713.49    1.340377e-03
   7713.78    1.370934e-03
   7714.07    1.402655e-03
   7714.36    1.438258e-03
   7714.64    1.473861e-03
   7714.93    1.509463e-03
   7715.22    1.549988e-03
   7715.51    1.591988e-03
   7715.80    1.633988e-03
   7716.09    1.678539e-03
   7716.38    1.728829e-03
   7716.67    1.779119e-03
   7716.96    1.829408e-03
   7717.24    1.889029e-03
   7717.53    1.950346e-03
   7717.82    2.011663e-03
   7718.11    2.078815e-03
   7718.40    2.155302e-03
   7718.69    2.231788e-03
   7718.98    2.308275e-03
   7719.27    2.404889e-03
   7719.56    2.503179e-03
   7719.84    2.601470e-03
   7720.13    2.715136e-03
   7720.42    2.846738e-03
   7720.71    2.978341e-03
   7721.00    3.109944e-03
   7721.29    3.297314e-03
   7721.58    3.484684e-03
   7721.87    3.672054e-03
   7722.16    3.918017e-03
   7722.44    4.214202e-03
   7722.73    4.510387e-03
   7723.02    4.828471e-03
   7723.31    5.409338e-03
   7723.60    5.990205e-03
   7723.89    6.571072e-03
   7724.18    7.806493e-03
   7724.47    9.451011e-03
   7724.76    1.109553e-02
   7725.04    1.287008e-02
   7725.33    1.531268e-02
   7725.62    1.755957e-02
   7725.91    1.964201e-02
   7726.20    2.172138e-02
   7726.49    2.394246e-02
   7726.78    2.638467e-02
   7727.07    2.921539e-02
   7727.36    3.251634e-02
   7727.64    3.644591e-02
   7727.93    4.113914e-02
   7728.22    4.669154e-02
   7728.51    5.333348e-02
   7728.80    6.096948e-02
   7729.09    6.975541e-02
   7729.38    7.919922e-02
   7729.67    8.875581e-02
   7729.96    9.758298e-02
   7730.24    1.047899e-01
   7730.53    1.095044e-01
   7730.82    1.117158e-01
   7731.11    1.117409e-01
   7731.40    1.100897e-01
   7731.69    1.073473e-01
   7731.98    1.040651e-01
   7732.27    1.007129e-01
   7732.56    9.766046e-02
   7732.84    9.509263e-02
   7733.13    9.310322e-02
   7733.42    9.172240e-02
   7733.71    9.093720e-02
   7734.00    9.070690e-02
   7734.29    9.102570e-02
   7734.58    9.176094e-02
   7734.87    9.283902e-02
   7735.16    9.418093e-02
   7735.44    9.570172e-02
   7735.73    9.731046e-02
   7736.02    9.890441e-02
   7736.31    1.003742e-01
   7736.60    1.016340e-01
   7736.89    1.026134e-01
   7737.18    1.032669e-01
   7737.47    1.035784e-01
   7737.76    1.035585e-01
   7738.04    1.032343e-01
   7738.33    1.027054e-01
   7738.62    1.020465e-01
   7738.91    1.013311e-01
   7739.20    1.006249e-01
   7739.49    9.998133e-02
   7739.78    9.945032e-02
   7740.07    9.909638e-02
   7740.36    9.898169e-02
   7740.64    9.886699e-02
   7740.93    9.875230e-02
   7741.22    9.897879e-02
   7741.51    9.930763e-02
   7741.80    9.963648e-02
   7742.09    1.000392e-01
   7742.38    1.006083e-01
   7742.67    1.011774e-01
   7742.96    1.017465e-01
   7743.24    1.022898e-01
   7743.53    1.028284e-01
   7743.82    1.033670e-01
   7744.11    1.037923e-01
   7744.40    1.040364e-01
   7744.69    1.042805e-01
   7744.98    1.045246e-01
   7745.27    1.043392e-01
   7745.56    1.041180e-01
   7745.84    1.038968e-01
   7746.13    1.034607e-01
   7746.42    1.027737e-01
   7746.71    1.020867e-01
   7747.00    1.013998e-01
   7747.29    1.004031e-01
   7747.58    9.940646e-02
   7747.87    9.840979e-02
   7748.16    9.735742e-02
   7748.44    9.625732e-02
   7748.73    9.515721e-02
   7749.02    9.406113e-02
   7749.31    9.301329e-02
   7749.60    9.196545e-02
   7749.89    9.091761e-02
   7750.18    8.994802e-02
   7750.47    8.902733e-02
   7750.76    8.810664e-02
   7751.04    8.720745e-02
   7751.33    8.642653e-02
   7751.62    8.564561e-02
   7751.91    8.486468e-02
   7752.20    8.416386e-02
   7752.49    8.349863e-02
   7752.78    8.283340e-02
   7753.07    8.218669e-02
   7753.36    8.160168e-02
   7753.64    8.101667e-02
   7753.93    8.043166e-02
   7754.22    7.988267e-02
   7754.51    7.934448e-02
   7754.80    7.880629e-02
   7755.09    7.827453e-02
   7755.38    7.775722e-02
   7755.67    7.723991e-02
   7755.96    7.672261e-02
   7756.24    7.621155e-02
   7756.53    7.570163e-02
   7756.82    7.519170e-02
   7757.11    7.468636e-02
   7757.40    7.418835e-02
   7757.69    7.369034e-02
   7757.98    7.319233e-02
   7758.27    7.272996e-02
   7758.56    7.227056e-02
   7758.84    7.181117e-02
   7759.13    7.139019e-02
   7759.42    7.101404e-02
   7759.71    7.063789e-02
   7760.00    7.026173e-02
