 FDMNES
  energy    <xanes>
   7695.00    5.237482e-04
   7695.29    5.293420e-04
   7695.58    5.349357e-04
   7695.87    5.405295e-04
   7696.16    5.463324e-04
   7696.44    5.523147e-04
   7696.73    5.582969e-04
   7697.02    5.643121e-04
   7697.31    5.707234e-04
   7697.60    5.771348e-04
   7697.89    5.835461e-04
   7698.18    5.902500e-04
   7698.47    5.971369e-04
   7698.76    6.040237e-04
   7699.04    6.109919e-04
   7699.33    6.184075e-04
   7699.62    6.258231e-04
   7699.91    6.332387e-04
   7700.20    6.410629e-04
   7700.49    6.490687e-04
   7700.78    6.570745e-04
   7701.07    6.652328e-04
   7701.36    6.738999e-04
   7701.64    6.825670e-04
   7701.93    6.912341e-04
   7702.22    7.004736e-04
   7702.51    7.098849e-04
   7702.80    7.192961e-04
   7703.09    7.289662e-04
   7703.38    7.392188e-04
   7703.67    7.494713e-04
   7703.96    7.597239e-04
   7704.24    7.707852e-04
   7704.53    7.819936e-04
   7704.82    7.932019e-04
   7705.11    8.048303e-04
   7705.40    8.171305e-04
   7705.69    8.294307e-04
   7705.98    8.417310e-04
   7706.27    8.551893e-04
   7706.56    8.687442e-04
   7706.84    8.822991e-04
   7707.13    8.965237e-04
   7707.42    9.115296e-04
   7707.71    9.265355e-04
   7708.00    9.415415e-04
   7708.29    9.582376e-04
   7708.58    9.749338e-04
   7708.87    9.916300e-04
   7709.16    1.009395e-03
   7709.44    1.028075e-03
   7709.73    1.046756e-03
   7710.02    1.065617e-03
   7710.31    1.086649e-03
   7710.60    1.107680e-03
   7710.89    1.128711e-03
   7711.18    1.151473e-03
   7711.47    1.175316e-03
   7711.76    1.199159e-03
   7712.04    1.223525e-03
   7712.33    1.250770e-03
   7712.62    1.278014e-03
   7712.91    1.305259e-03
   7713.20    1.335389e-03
   7713.49    1.366801e-03
   7713.78    1.398213e-03
   7714.07    1.430822e-03
   7714.36    1.467417e-03
   7714.64    1.504012e-03
   7714.93    1.540607e-03
   7715.22    1.582247e-03
   7715.51    1.625400e-03
   7715.80    1.668553e-03
   7716.09    1.714312e-03
   7716.38    1.765936e-03
   7716.67    1.817559e-03
   7716.96    1.869183e-03
   7717.24    1.930300e-03
   7717.53    1.993144e-03
   7717.82    2.055988e-03
   7718.11    2.124731e-03
   7718.40    2.202914e-03
   7718.69    2.281096e-03
   7718.98    2.359278e-03
   7719.27    2.457626e-03
   7719.56    2.557655e-03
   7719.84    2.657683e-03
   7720.13    2.772904e-03
   7720.42    2.905849e-03
   7720.71    3.038795e-03
   7721.00    3.171740e-03
   7721.29    3.358594e-03
   7721.58    3.545448e-03
   7721.87    3.732303e-03
   7722.16    3.973760e-03
   7722.44    4.262020e-03
   7722.73    4.550279e-03
   7723.02    4.857714e-03
   7723.31    5.395250e-03
   7723.60    5.932785e-03
   7723.89    6.470320e-03
   7724.18    7.548871e-03
   7724.47    8.965555e-03
   7724.76    1.038224e-02
   7725.04    1.191813e-02
   7725.33    1.411700e-02
   7725.62    1.630077e-02
   7725.91    1.851183e-02
   7726.20    2.085991e-02
   7726.49    2.351378e-02
   7726.78    2.651462e-02
   7727.07    3.003023e-02
   7727.36    3.409588e-02
   7727.64    3.880388e-02
   7727.93    4.415751e-02
   7728.22    5.006177e-02
   7728.51    5.648447e-02
   7728.80    6.331750e-02
   7729.09    7.074187e-02
   7729.38    7.874380e-02
   7729.67    8.740722e-02
   7729.96    9.641915e-02
   7730.24    1.052509e-01
   7730.53    1.129790e-01
   7730.82    1.188089e-01
   7731.11    1.222333e-01
   7731.40    1.231559e-01
   7731.69    1.219215e-01
   7731.98    1.191677e-01
   7732.27    1.155985e-01
   7732.56    1.118867e-01
   7732.84    1.084599e-01
   7733.13    1.055364e-01
   7733.42    1.032154e-01
   7733.71    1.015172e-01
   7734.00    1.004138e-01
   7734.29    9.990386e-02
   7734.58    9.984310e-02
   7734.87    1.001510e-01
   7735.16    1.007451e-01
   7735.44    1.015427e-01
   7735.73    1.024612e-01
   7736.02    1.034164e-01
   7736.31    1.043194e-01
   7736.60    1.050994e-01
   7736.89    1.056982e-01
   7737.18    1.060719e-01
   7737.47    1.061941e-01
   7737.76    1.060533e-01
   7738.04    1.056435e-01
   7738.33    1.050234e-01
   7738.62    1.042368e-01
   7738.91    1.033339e-01
   7739.20    1.023662e-01
   7739.49    1.013820e-01
   7739.78    1.004275e-01
   7740.07    9.956917e-02
   7740.36    9.887283e-02
   7740.64    9.817650e-02
   7740.93    9.748017e-02
   7741.22    9.709332e-02
   7741.51    9.679932e-02
   7741.80    9.650532e-02
   7742.09    9.630364e-02
   7742.38    9.630968e-02
   7742.67    9.631572e-02
   7742.96    9.632176e-02
   7743.24    9.640543e-02
   7743.53    9.650320e-02
   7743.82    9.660098e-02
   7744.11    9.665874e-02
   7744.40    9.665247e-02
   7744.69    9.664619e-02
   7744.98    9.663992e-02
   7745.27    9.644367e-02
   7745.56    9.623158e-02
   7745.84    9.601949e-02
   7746.13    9.571368e-02
   7746.42    9.529851e-02
   7746.71    9.488335e-02
   7747.00    9.446819e-02
   7747.29    9.390362e-02
   7747.58    9.333905e-02
   7747.87    9.277448e-02
   7748.16    9.216516e-02
   7748.44    9.151748e-02
   7748.73    9.086980e-02
   7749.02    9.022059e-02
   7749.31    8.955308e-02
   7749.60    8.888558e-02
   7749.89    8.821808e-02
   7750.18    8.756836e-02
   7750.47    8.692976e-02
   7750.76    8.629116e-02
   7751.04    8.566089e-02
   7751.33    8.507646e-02
   7751.62    8.449202e-02
   7751.91    8.390758e-02
   7752.20    8.336167e-02
   7752.49    8.283287e-02
   7752.78    8.230408e-02
   7753.07    8.178466e-02
   7753.36    8.129650e-02
   7753.64    8.080834e-02
   7753.93    8.032018e-02
   7754.22    7.984613e-02
   7754.51    7.937631e-02
   7754.80    7.890649e-02
   7755.09    7.843574e-02
   7755.38    7.796286e-02
   7755.67    7.748998e-02
   7755.96    7.701710e-02
   7756.24    7.653082e-02
   7756.53    7.604211e-02
   7756.82    7.555340e-02
   7757.11    7.506025e-02
   7757.40    7.456001e-02
   7757.69    7.405977e-02
   7757.98    7.355953e-02
   7758.27    7.307660e-02
   7758.56    7.259511e-02
   7758.84    7.211362e-02
   7759.13    7.166719e-02
   7759.42    7.126166e-02
   7759.71    7.085613e-02
   7760.00    7.045060e-02
