 FDMNES
  energy    <xanes>
   7695.00    5.465156e-04
   7695.29    5.521756e-04
   7695.58    5.578355e-04
   7695.87    5.634955e-04
   7696.16    5.693636e-04
   7696.44    5.754101e-04
   7696.73    5.814567e-04
   7697.02    5.875360e-04
   7697.31    5.940093e-04
   7697.60    6.004826e-04
   7697.89    6.069558e-04
   7698.18    6.137199e-04
   7698.47    6.206658e-04
   7698.76    6.276117e-04
   7699.04    6.346384e-04
   7699.33    6.421095e-04
   7699.62    6.495806e-04
   7699.91    6.570518e-04
   7700.20    6.649285e-04
   7700.49    6.729856e-04
   7700.78    6.810426e-04
   7701.07    6.892511e-04
   7701.36    6.979643e-04
   7701.64    7.066776e-04
   7701.93    7.153909e-04
   7702.22    7.246721e-04
   7702.51    7.341235e-04
   7702.80    7.435750e-04
   7703.09    7.532833e-04
   7703.38    7.635691e-04
   7703.67    7.738549e-04
   7703.96    7.841407e-04
   7704.24    7.952286e-04
   7704.53    8.064622e-04
   7704.82    8.176958e-04
   7705.11    8.293459e-04
   7705.40    8.416622e-04
   7705.69    8.539785e-04
   7705.98    8.662948e-04
   7706.27    8.797598e-04
   7706.56    8.933205e-04
   7706.84    9.068813e-04
   7707.13    9.211065e-04
   7707.42    9.361070e-04
   7707.71    9.511076e-04
   7708.00    9.661081e-04
   7708.29    9.827870e-04
   7708.58    9.994659e-04
   7708.87    1.016145e-03
   7709.16    1.033886e-03
   7709.44    1.052537e-03
   7709.73    1.071189e-03
   7710.02    1.090021e-03
   7710.31    1.111012e-03
   7710.60    1.132004e-03
   7710.89    1.152996e-03
   7711.18    1.175714e-03
   7711.47    1.199511e-03
   7711.76    1.223308e-03
   7712.04    1.247628e-03
   7712.33    1.274828e-03
   7712.62    1.302028e-03
   7712.91    1.329228e-03
   7713.20    1.359326e-03
   7713.49    1.390711e-03
   7713.78    1.422096e-03
   7714.07    1.454688e-03
   7714.36    1.491304e-03
   7714.64    1.527920e-03
   7714.93    1.564535e-03
   7715.22    1.606275e-03
   7715.51    1.649552e-03
   7715.80    1.692830e-03
   7716.09    1.738778e-03
   7716.38    1.790735e-03
   7716.67    1.842693e-03
   7716.96    1.894650e-03
   7717.24    1.956453e-03
   7717.53    2.020046e-03
   7717.82    2.083638e-03
   7718.11    2.153448e-03
   7718.40    2.233207e-03
   7718.69    2.312965e-03
   7718.98    2.392723e-03
   7719.27    2.494223e-03
   7719.56    2.597535e-03
   7719.84    2.700846e-03
   7720.13    2.821080e-03
   7720.42    2.961058e-03
   7720.71    3.101035e-03
   7721.00    3.241013e-03
   7721.29    3.444020e-03
   7721.58    3.647027e-03
   7721.87    3.850034e-03
   7722.16    4.121782e-03
   7722.44    4.452452e-03
   7722.73    4.783121e-03
   7723.02    5.140768e-03
   7723.31    5.822146e-03
   7723.60    6.503523e-03
   7723.89    7.184901e-03
   7724.18    8.714443e-03
   7724.47    1.077409e-02
   7724.76    1.283373e-02
   7725.04    1.507048e-02
   7725.33    1.821355e-02
   7725.62    2.101768e-02
   7725.91    2.339962e-02
   7726.20    2.559656e-02
   7726.49    2.782145e-02
   7726.78    3.022968e-02
   7727.07    3.297695e-02
   7727.36    3.611976e-02
   7727.64    3.977765e-02
   7727.93    4.405076e-02
   7728.22    4.899338e-02
   7728.51    5.472924e-02
   7728.80    6.111337e-02
   7729.09    6.812365e-02
   7729.38    7.538221e-02
   7729.67    8.251323e-02
   7729.96    8.911006e-02
   7730.24    9.477770e-02
   7730.53    9.911121e-02
   7730.82    1.020727e-01
   7731.11    1.037459e-01
   7731.40    1.043409e-01
   7731.69    1.041616e-01
   7731.98    1.035232e-01
   7732.27    1.026765e-01
   7732.56    1.017910e-01
   7732.84    1.009373e-01
   7733.13    1.001241e-01
   7733.42    9.933441e-02
   7733.71    9.855160e-02
   7734.00    9.777844e-02
   7734.29    9.705317e-02
   7734.58    9.642507e-02
   7734.87    9.594806e-02
   7735.16    9.566750e-02
   7735.44    9.561201e-02
   7735.73    9.578933e-02
   7736.02    9.619822e-02
   7736.31    9.679423e-02
   7736.60    9.751492e-02
   7736.89    9.830144e-02
   7737.18    9.909433e-02
   7737.47    9.984037e-02
   7737.76    1.004964e-01
   7738.04    1.010266e-01
   7738.33    1.014369e-01
   7738.62    1.017379e-01
   7738.91    1.019507e-01
   7739.20    1.021019e-01
   7739.49    1.022190e-01
   7739.78    1.023279e-01
   7740.07    1.024600e-01
   7740.36    1.026398e-01
   7740.64    1.028197e-01
   7740.93    1.029995e-01
   7741.22    1.032452e-01
   7741.51    1.035107e-01
   7741.80    1.037762e-01
   7742.09    1.040267e-01
   7742.38    1.042434e-01
   7742.67    1.044601e-01
   7742.96    1.046768e-01
   7743.24    1.047139e-01
   7743.53    1.047185e-01
   7743.82    1.047231e-01
   7744.11    1.046092e-01
   7744.40    1.043057e-01
   7744.69    1.040023e-01
   7744.98    1.036988e-01
   7745.27    1.031162e-01
   7745.56    1.025102e-01
   7745.84    1.019043e-01
   7746.13    1.011987e-01
   7746.42    1.003768e-01
   7746.71    9.955494e-02
   7747.00    9.873307e-02
   7747.29    9.781775e-02
   7747.58    9.690243e-02
   7747.87    9.598712e-02
   7748.16    9.508345e-02
   7748.44    9.418976e-02
   7748.73    9.329608e-02
   7749.02    9.241019e-02
   7749.31    9.161793e-02
   7749.60    9.082566e-02
   7749.89    9.003339e-02
   7750.18    8.932600e-02
   7750.47    8.867165e-02
   7750.76    8.801731e-02
   7751.04    8.738472e-02
   7751.33    8.687181e-02
   7751.62    8.635889e-02
   7751.91    8.584598e-02
   7752.20    8.541840e-02
   7752.49    8.502875e-02
   7752.78    8.463909e-02
   7753.07    8.426892e-02
   7753.36    8.396370e-02
   7753.64    8.365848e-02
   7753.93    8.335325e-02
   7754.22    8.307954e-02
   7754.51    8.281528e-02
   7754.80    8.255102e-02
   7755.09    8.228868e-02
   7755.38    8.203066e-02
   7755.67    8.177265e-02
   7755.96    8.151463e-02
   7756.24    8.124413e-02
   7756.53    8.097136e-02
   7756.82    8.069859e-02
   7757.11    8.041864e-02
   7757.40    8.012720e-02
   7757.69    7.983576e-02
   7757.98    7.954432e-02
   7758.27    7.925171e-02
   7758.56    7.895900e-02
   7758.84    7.866630e-02
   7759.13    7.839139e-02
   7759.42    7.813725e-02
   7759.71    7.788312e-02
   7760.00    7.762898e-02
