 FDMNES
  energy    <xanes>
   7695.00    5.408117e-04
   7695.29    5.465792e-04
   7695.58    5.523467e-04
   7695.87    5.581142e-04
   7696.16    5.640997e-04
   7696.44    5.702719e-04
   7696.73    5.764441e-04
   7697.02    5.826508e-04
   7697.31    5.892708e-04
   7697.60    5.958909e-04
   7697.89    6.025109e-04
   7698.18    6.094369e-04
   7698.47    6.165541e-04
   7698.76    6.236713e-04
   7699.04    6.308738e-04
   7699.33    6.385450e-04
   7699.62    6.462162e-04
   7699.91    6.538874e-04
   7700.20    6.619877e-04
   7700.49    6.702787e-04
   7700.78    6.785696e-04
   7701.07    6.870212e-04
   7701.36    6.960084e-04
   7701.64    7.049955e-04
   7701.93    7.139826e-04
   7702.22    7.235740e-04
   7702.51    7.333468e-04
   7702.80    7.431195e-04
   7703.09    7.531663e-04
   7703.38    7.638298e-04
   7703.67    7.744933e-04
   7703.96    7.851568e-04
   7704.24    7.966797e-04
   7704.53    8.083587e-04
   7704.82    8.200378e-04
   7705.11    8.321647e-04
   7705.40    8.450083e-04
   7705.69    8.578518e-04
   7705.98    8.706953e-04
   7706.27    8.847792e-04
   7706.56    8.989664e-04
   7706.84    9.131537e-04
   7707.13    9.280616e-04
   7707.42    9.438103e-04
   7707.71    9.595590e-04
   7708.00    9.753077e-04
   7708.29    9.928849e-04
   7708.58    1.010462e-03
   7708.87    1.028039e-03
   7709.16    1.046780e-03
   7709.44    1.066517e-03
   7709.73    1.086254e-03
   7710.02    1.106189e-03
   7710.31    1.128502e-03
   7710.60    1.150815e-03
   7710.89    1.173128e-03
   7711.18    1.197352e-03
   7711.47    1.222770e-03
   7711.76    1.248188e-03
   7712.04    1.274190e-03
   7712.33    1.303399e-03
   7712.62    1.332607e-03
   7712.91    1.361816e-03
   7713.20    1.394274e-03
   7713.49    1.428177e-03
   7713.78    1.462079e-03
   7714.07    1.497344e-03
   7714.36    1.537154e-03
   7714.64    1.576964e-03
   7714.93    1.616774e-03
   7715.22    1.662417e-03
   7715.51    1.709811e-03
   7715.80    1.757204e-03
   7716.09    1.807664e-03
   7716.38    1.865023e-03
   7716.67    1.922382e-03
   7716.96    1.979741e-03
   7717.24    2.048507e-03
   7717.53    2.119346e-03
   7717.82    2.190185e-03
   7718.11    2.268298e-03
   7718.40    2.358049e-03
   7718.69    2.447800e-03
   7718.98    2.537550e-03
   7719.27    2.652992e-03
   7719.56    2.770576e-03
   7719.84    2.888159e-03
   7720.13    3.025940e-03
   7720.42    3.187285e-03
   7720.71    3.348630e-03
   7721.00    3.509975e-03
   7721.29    3.747216e-03
   7721.58    3.984457e-03
   7721.87    4.221698e-03
   7722.16    4.542181e-03
   7722.44    4.934014e-03
   7722.73    5.325848e-03
   7723.02    5.750334e-03
   7723.31    6.566654e-03
   7723.60    7.382975e-03
   7723.89    8.199295e-03
   7724.18    1.003455e-02
   7724.47    1.250665e-02
   7724.76    1.497875e-02
   7725.04    1.765724e-02
   7725.33    2.136328e-02
   7725.62    2.460398e-02
   7725.91    2.743987e-02
   7726.20    3.035193e-02
   7726.49    3.381789e-02
   7726.78    3.794756e-02
   7727.07    4.292352e-02
   7727.36    4.856120e-02
   7727.64    5.459048e-02
   7727.93    6.063154e-02
   7728.22    6.646161e-02
   7728.51    7.212550e-02
   7728.80    7.785840e-02
   7729.09    8.389384e-02
   7729.38    9.018638e-02
   7729.67    9.654624e-02
   7729.96    1.025864e-01
   7730.24    1.078260e-01
   7730.53    1.116843e-01
   7730.82    1.139878e-01
   7731.11    1.147761e-01
   7731.40    1.142574e-01
   7731.69    1.127438e-01
   7731.98    1.105685e-01
   7732.27    1.080211e-01
   7732.56    1.053616e-01
   7732.84    1.027752e-01
   7733.13    1.003835e-01
   7733.42    9.827585e-02
   7733.71    9.651583e-02
   7734.00    9.514448e-02
   7734.29    9.422920e-02
   7734.58    9.371552e-02
   7734.87    9.357699e-02
   7735.16    9.377022e-02
   7735.44    9.423696e-02
   7735.73    9.490651e-02
   7736.02    9.570091e-02
   7736.31    9.651961e-02
   7736.60    9.727296e-02
   7736.89    9.788603e-02
   7737.18    9.830020e-02
   7737.47    9.847886e-02
   7737.76    9.840655e-02
   7738.04    9.808088e-02
   7738.33    9.756512e-02
   7738.62    9.690915e-02
   7738.91    9.616752e-02
   7739.20    9.539329e-02
   7739.49    9.463328e-02
   7739.78    9.393194e-02
   7740.07    9.334956e-02
   7740.36    9.294460e-02
   7740.64    9.253964e-02
   7740.93    9.213467e-02
   7741.22    9.201919e-02
   7741.51    9.199054e-02
   7741.80    9.196190e-02
   7742.09    9.200619e-02
   7742.38    9.221459e-02
   7742.67    9.242299e-02
   7742.96    9.263138e-02
   7743.24    9.287508e-02
   7743.53    9.312520e-02
   7743.82    9.337531e-02
   7744.11    9.358450e-02
   7744.40    9.372823e-02
   7744.69    9.387195e-02
   7744.98    9.401567e-02
   7745.27    9.400871e-02
   7745.56    9.398919e-02
   7745.84    9.396967e-02
   7746.13    9.387923e-02
   7746.42    9.370604e-02
   7746.71    9.353285e-02
   7747.00    9.335966e-02
   7747.29    9.305687e-02
   7747.58    9.275408e-02
   7747.87    9.245129e-02
   7748.16    9.209392e-02
   7748.44    9.168975e-02
   7748.73    9.128559e-02
   7749.02    9.087713e-02
   7749.31    9.041715e-02
   7749.60    8.995717e-02
   7749.89    8.949719e-02
   7750.18    8.903059e-02
   7750.47    8.855986e-02
   7750.76    8.808912e-02
   7751.04    8.762125e-02
   7751.33    8.716914e-02
   7751.62    8.671703e-02
   7751.91    8.626491e-02
   7752.20    8.583183e-02
   7752.49    8.540720e-02
   7752.78    8.498258e-02
   7753.07    8.456232e-02
   7753.36    8.415662e-02
   7753.64    8.375092e-02
   7753.93    8.334523e-02
   7754.22    8.294061e-02
   7754.51    8.253631e-02
   7754.80    8.213201e-02
   7755.09    8.172289e-02
   7755.38    8.130289e-02
   7755.67    8.088289e-02
   7755.96    8.046289e-02
   7756.24    8.002294e-02
   7756.53    7.957936e-02
   7756.82    7.913578e-02
   7757.11    7.868667e-02
   7757.40    7.822870e-02
   7757.69    7.777072e-02
   7757.98    7.731275e-02
   7758.27    7.687169e-02
   7758.56    7.643203e-02
   7758.84    7.599237e-02
   7759.13    7.558616e-02
   7759.42    7.521896e-02
   7759.71    7.485175e-02
   7760.00    7.448455e-02
