 FDMNES
  energy    <xanes>
   7695.00    5.238598e-04
   7695.29    5.295846e-04
   7695.58    5.353093e-04
   7695.87    5.410341e-04
   7696.16    5.469775e-04
   7696.44    5.531084e-04
   7696.73    5.592393e-04
   7697.02    5.654047e-04
   7697.31    5.719851e-04
   7697.60    5.785655e-04
   7697.89    5.851458e-04
   7698.18    5.920334e-04
   7698.47    5.991129e-04
   7698.76    6.061924e-04
   7699.04    6.133574e-04
   7699.33    6.209931e-04
   7699.62    6.286289e-04
   7699.91    6.362646e-04
   7700.20    6.443311e-04
   7700.49    6.525891e-04
   7700.78    6.608470e-04
   7701.07    6.692663e-04
   7701.36    6.782232e-04
   7701.64    6.871801e-04
   7701.93    6.961371e-04
   7702.22    7.057006e-04
   7702.51    7.154461e-04
   7702.80    7.251916e-04
   7703.09    7.352122e-04
   7703.38    7.458517e-04
   7703.67    7.564912e-04
   7703.96    7.671307e-04
   7704.24    7.786322e-04
   7704.53    7.902904e-04
   7704.82    8.019487e-04
   7705.11    8.140559e-04
   7705.40    8.268817e-04
   7705.69    8.397074e-04
   7705.98    8.525331e-04
   7706.27    8.666015e-04
   7706.56    8.807734e-04
   7706.84    8.949453e-04
   7707.13    9.098386e-04
   7707.42    9.255734e-04
   7707.71    9.413081e-04
   7708.00    9.570429e-04
   7708.29    9.746056e-04
   7708.58    9.921683e-04
   7708.87    1.009731e-03
   7709.16    1.028455e-03
   7709.44    1.048173e-03
   7709.73    1.067892e-03
   7710.02    1.087807e-03
   7710.31    1.110092e-03
   7710.60    1.132377e-03
   7710.89    1.154661e-03
   7711.18    1.178845e-03
   7711.47    1.204216e-03
   7711.76    1.229588e-03
   7712.04    1.255537e-03
   7712.33    1.284664e-03
   7712.62    1.313792e-03
   7712.91    1.342920e-03
   7713.20    1.375256e-03
   7713.49    1.409018e-03
   7713.78    1.442780e-03
   7714.07    1.477883e-03
   7714.36    1.517453e-03
   7714.64    1.557023e-03
   7714.93    1.596593e-03
   7715.22    1.641867e-03
   7715.51    1.688852e-03
   7715.80    1.735836e-03
   7716.09    1.785798e-03
   7716.38    1.842459e-03
   7716.67    1.899120e-03
   7716.96    1.955781e-03
   7717.24    2.023420e-03
   7717.53    2.093055e-03
   7717.82    2.162690e-03
   7718.11    2.239247e-03
   7718.40    2.326880e-03
   7718.69    2.414512e-03
   7718.98    2.502144e-03
   7719.27    2.613865e-03
   7719.56    2.727594e-03
   7719.84    2.841322e-03
   7720.13    2.973613e-03
   7720.42    3.127560e-03
   7720.71    3.281507e-03
   7721.00    3.435454e-03
   7721.29    3.657233e-03
   7721.58    3.879011e-03
   7721.87    4.100790e-03
   7722.16    4.394022e-03
   7722.44    4.748501e-03
   7722.73    5.102979e-03
   7723.02    5.483884e-03
   7723.31    6.181904e-03
   7723.60    6.879923e-03
   7723.89    7.577943e-03
   7724.18    9.057144e-03
   7724.47    1.102458e-02
   7724.76    1.299202e-02
   7725.04    1.512946e-02
   7725.33    1.819223e-02
   7725.62    2.116294e-02
   7725.91    2.409979e-02
   7726.20    2.719362e-02
   7726.49    3.067302e-02
   7726.78    3.455040e-02
   7727.07    3.891599e-02
   7727.36    4.371864e-02
   7727.64    4.901621e-02
   7727.93    5.487703e-02
   7728.22    6.131433e-02
   7728.51    6.836979e-02
   7728.80    7.589857e-02
   7729.09    8.392997e-02
   7729.38    9.224060e-02
   7729.67    1.005383e-01
   7729.96    1.083355e-01
   7730.24    1.150373e-01
   7730.53    1.199552e-01
   7730.82    1.229478e-01
   7731.11    1.241383e-01
   7731.40    1.238335e-01
   7731.69    1.224220e-01
   7731.98    1.202821e-01
   7732.27    1.177329e-01
   7732.56    1.150649e-01
   7732.84    1.124847e-01
   7733.13    1.101144e-01
   7733.42    1.080239e-01
   7733.71    1.062482e-01
   7734.00    1.048018e-01
   7734.29    1.037224e-01
   7734.58    1.029537e-01
   7734.87    1.024636e-01
   7735.16    1.022049e-01
   7735.44    1.021185e-01
   7735.73    1.021377e-01
   7736.02    1.021925e-01
   7736.31    1.022122e-01
   7736.60    1.021479e-01
   7736.89    1.019680e-01
   7737.18    1.016588e-01
   7737.47    1.012234e-01
   7737.76    1.006782e-01
   7738.04    1.000502e-01
   7738.33    9.938644e-02
   7738.62    9.872353e-02
   7738.91    9.809463e-02
   7739.20    9.752635e-02
   7739.49    9.703715e-02
   7739.78    9.664440e-02
   7740.07    9.636382e-02
   7740.36    9.620751e-02
   7740.64    9.605120e-02
   7740.93    9.589489e-02
   7741.22    9.582447e-02
   7741.51    9.577982e-02
   7741.80    9.573517e-02
   7742.09    9.566336e-02
   7742.38    9.553044e-02
   7742.67    9.539753e-02
   7742.96    9.526461e-02
   7743.24    9.496361e-02
   7743.53    9.463205e-02
   7743.82    9.430049e-02
   7744.11    9.389686e-02
   7744.40    9.337792e-02
   7744.69    9.285898e-02
   7744.98    9.234005e-02
   7745.27    9.172807e-02
   7745.56    9.110835e-02
   7745.84    9.048862e-02
   7746.13    8.986198e-02
   7746.42    8.922726e-02
   7746.71    8.859254e-02
   7747.00    8.795782e-02
   7747.29    8.736501e-02
   7747.58    8.677220e-02
   7747.87    8.617940e-02
   7748.16    8.562671e-02
   7748.44    8.510841e-02
   7748.73    8.459010e-02
   7749.02    8.407855e-02
   7749.31    8.364791e-02
   7749.60    8.321728e-02
   7749.89    8.278665e-02
   7750.18    8.240597e-02
   7750.47    8.205651e-02
   7750.76    8.170706e-02
   7751.04    8.136638e-02
   7751.33    8.107391e-02
   7751.62    8.078145e-02
   7751.91    8.048899e-02
   7752.20    8.021166e-02
   7752.49    7.994105e-02
   7752.78    7.967043e-02
   7753.07    7.939603e-02
   7753.36    7.910899e-02
   7753.64    7.882196e-02
   7753.93    7.853492e-02
   7754.22    7.820861e-02
   7754.51    7.787053e-02
   7754.80    7.753245e-02
   7755.09    7.717118e-02
   7755.38    7.675774e-02
   7755.67    7.634429e-02
   7755.96    7.593085e-02
   7756.24    7.544858e-02
   7756.53    7.495379e-02
   7756.82    7.445899e-02
   7757.11    7.394112e-02
   7757.40    7.338632e-02
   7757.69    7.283152e-02
   7757.98    7.227671e-02
   7758.27    7.171833e-02
   7758.56    7.115964e-02
   7758.84    7.060096e-02
   7759.13    7.007998e-02
   7759.42    6.960301e-02
   7759.71    6.912603e-02
   7760.00    6.864906e-02
