 FDMNES
  energy    <xanes>
   7695.00    5.340479e-04
   7695.29    5.396106e-04
   7695.58    5.451733e-04
   7695.87    5.507359e-04
   7696.16    5.565035e-04
   7696.44    5.624466e-04
   7696.73    5.683897e-04
   7697.02    5.743652e-04
   7697.31    5.807283e-04
   7697.60    5.870914e-04
   7697.89    5.934545e-04
   7698.18    6.001039e-04
   7698.47    6.069321e-04
   7698.76    6.137603e-04
   7699.04    6.206681e-04
   7699.33    6.280132e-04
   7699.62    6.353583e-04
   7699.91    6.427034e-04
   7700.20    6.504477e-04
   7700.49    6.583695e-04
   7700.78    6.662912e-04
   7701.07    6.743619e-04
   7701.36    6.829294e-04
   7701.64    6.914970e-04
   7701.93    7.000645e-04
   7702.22    7.091908e-04
   7702.51    7.184848e-04
   7702.80    7.277787e-04
   7703.09    7.373253e-04
   7703.38    7.474403e-04
   7703.67    7.575553e-04
   7703.96    7.676703e-04
   7704.24    7.785746e-04
   7704.53    7.896223e-04
   7704.82    8.006700e-04
   7705.11    8.121275e-04
   7705.40    8.242407e-04
   7705.69    8.363539e-04
   7705.98    8.484671e-04
   7706.27    8.617108e-04
   7706.56    8.750487e-04
   7706.84    8.883865e-04
   7707.13    9.023785e-04
   7707.42    9.171335e-04
   7707.71    9.318885e-04
   7708.00    9.466435e-04
   7708.29    9.630507e-04
   7708.58    9.794578e-04
   7708.87    9.958650e-04
   7709.16    1.013318e-03
   7709.44    1.031667e-03
   7709.73    1.050017e-03
   7710.02    1.068543e-03
   7710.31    1.089197e-03
   7710.60    1.109851e-03
   7710.89    1.130505e-03
   7711.18    1.152860e-03
   7711.47    1.176277e-03
   7711.76    1.199695e-03
   7712.04    1.223628e-03
   7712.33    1.250399e-03
   7712.62    1.277171e-03
   7712.91    1.303942e-03
   7713.20    1.333571e-03
   7713.49    1.364469e-03
   7713.78    1.395368e-03
   7714.07    1.427458e-03
   7714.36    1.463518e-03
   7714.64    1.499578e-03
   7714.93    1.535638e-03
   7715.22    1.576759e-03
   7715.51    1.619399e-03
   7715.80    1.662038e-03
   7716.09    1.707319e-03
   7716.38    1.758541e-03
   7716.67    1.809763e-03
   7716.96    1.860985e-03
   7717.24    1.921953e-03
   7717.53    1.984693e-03
   7717.82    2.047432e-03
   7718.11    2.116334e-03
   7718.40    2.195095e-03
   7718.69    2.273856e-03
   7718.98    2.352618e-03
   7719.27    2.452946e-03
   7719.56    2.555071e-03
   7719.84    2.657197e-03
   7720.13    2.776107e-03
   7720.42    2.914599e-03
   7720.71    3.053092e-03
   7721.00    3.191585e-03
   7721.29    3.392415e-03
   7721.58    3.593246e-03
   7721.87    3.794076e-03
   7722.16    4.062254e-03
   7722.44    4.388157e-03
   7722.73    4.714061e-03
   7723.02    5.065784e-03
   7723.31    5.727336e-03
   7723.60    6.388887e-03
   7723.89    7.050439e-03
   7724.18    8.502671e-03
   7724.47    1.044908e-02
   7724.76    1.239549e-02
   7725.04    1.451769e-02
   7725.33    1.760262e-02
   7725.62    2.059820e-02
   7725.91    2.349568e-02
   7726.20    2.639622e-02
   7726.49    2.935428e-02
   7726.78    3.237932e-02
   7727.07    3.554007e-02
   7727.36    3.892743e-02
   7727.64    4.271350e-02
   7727.93    4.706197e-02
   7728.22    5.206925e-02
   7728.51    5.786402e-02
   7728.80    6.427437e-02
   7729.09    7.117039e-02
   7729.38    7.805237e-02
   7729.67    8.425023e-02
   7729.96    8.920651e-02
   7730.24    9.244983e-02
   7730.53    9.370389e-02
   7730.82    9.336151e-02
   7731.11    9.191846e-02
   7731.40    8.990158e-02
   7731.69    8.778620e-02
   7731.98    8.592376e-02
   7732.27    8.455314e-02
   7732.56    8.378040e-02
   7732.84    8.357413e-02
   7733.13    8.389762e-02
   7733.42    8.469319e-02
   7733.71    8.589225e-02
   7734.00    8.742152e-02
   7734.29    8.922721e-02
   7734.58    9.119649e-02
   7734.87    9.325663e-02
   7735.16    9.534164e-02
   7735.44    9.739558e-02
   7735.73    9.937349e-02
   7736.02    1.012302e-01
   7736.31    1.029343e-01
   7736.60    1.044658e-01
   7736.89    1.058009e-01
   7737.18    1.069195e-01
   7737.47    1.078081e-01
   7737.76    1.084590e-01
   7738.04    1.088625e-01
   7738.33    1.090635e-01
   7738.62    1.090915e-01
   7738.91    1.089815e-01
   7739.20    1.087710e-01
   7739.49    1.084960e-01
   7739.78    1.081886e-01
   7740.07    1.078896e-01
   7740.36    1.076339e-01
   7740.64    1.073781e-01
   7740.93    1.071224e-01
   7741.22    1.069674e-01
   7741.51    1.068426e-01
   7741.80    1.067178e-01
   7742.09    1.066000e-01
   7742.38    1.064978e-01
   7742.67    1.063957e-01
   7742.96    1.062935e-01
   7743.24    1.060713e-01
   7743.53    1.058272e-01
   7743.82    1.055832e-01
   7744.11    1.052493e-01
   7744.40    1.047717e-01
   7744.69    1.042942e-01
   7744.98    1.038166e-01
   7745.27    1.031371e-01
   7745.56    1.024408e-01
   7745.84    1.017445e-01
   7746.13    1.009845e-01
   7746.42    1.001503e-01
   7746.71    9.931598e-02
   7747.00    9.848171e-02
   7747.29    9.760550e-02
   7747.58    9.672928e-02
   7747.87    9.585307e-02
   7748.16    9.499735e-02
   7748.44    9.415920e-02
   7748.73    9.332105e-02
   7749.02    9.248967e-02
   7749.31    9.173952e-02
   7749.60    9.098936e-02
   7749.89    9.023921e-02
   7750.18    8.955492e-02
   7750.47    8.891178e-02
   7750.76    8.826865e-02
   7751.04    8.764120e-02
   7751.33    8.709998e-02
   7751.62    8.655876e-02
   7751.91    8.601754e-02
   7752.20    8.553157e-02
   7752.49    8.507015e-02
   7752.78    8.460873e-02
   7753.07    8.415930e-02
   7753.36    8.374981e-02
   7753.64    8.334032e-02
   7753.93    8.293084e-02
   7754.22    8.254091e-02
   7754.51    8.215686e-02
   7754.80    8.177280e-02
   7755.09    8.138979e-02
   7755.38    8.100911e-02
   7755.67    8.062843e-02
   7755.96    8.024775e-02
   7756.24    7.985817e-02
   7756.53    7.946697e-02
   7756.82    7.907577e-02
   7757.11    7.868068e-02
   7757.40    7.827937e-02
   7757.69    7.787806e-02
   7757.98    7.747675e-02
   7758.27    7.708703e-02
   7758.56    7.669827e-02
   7758.84    7.630951e-02
   7759.13    7.594806e-02
   7759.42    7.561848e-02
   7759.71    7.528890e-02
   7760.00    7.495932e-02
