 FDMNES
  energy    <xanes>
   7695.00    5.168457e-04
   7695.29    5.224821e-04
   7695.58    5.281186e-04
   7695.87    5.337550e-04
   7696.16    5.396057e-04
   7696.44    5.456399e-04
   7696.73    5.516741e-04
   7697.02    5.577421e-04
   7697.31    5.642163e-04
   7697.60    5.706904e-04
   7697.89    5.771645e-04
   7698.18    5.839391e-04
   7698.47    5.909014e-04
   7698.76    5.978637e-04
   7699.04    6.049097e-04
   7699.33    6.124156e-04
   7699.62    6.199216e-04
   7699.91    6.274275e-04
   7700.20    6.353542e-04
   7700.49    6.434678e-04
   7700.78    6.515814e-04
   7701.07    6.598525e-04
   7701.36    6.686481e-04
   7701.64    6.774438e-04
   7701.93    6.862394e-04
   7702.22    6.956264e-04
   7702.51    7.051909e-04
   7702.80    7.147553e-04
   7703.09    7.245877e-04
   7703.38    7.350228e-04
   7703.67    7.454579e-04
   7703.96    7.558930e-04
   7704.24    7.671668e-04
   7704.53    7.785931e-04
   7704.82    7.900194e-04
   7705.11    8.018820e-04
   7705.40    8.144428e-04
   7705.69    8.270036e-04
   7705.98    8.395644e-04
   7706.27    8.533312e-04
   7706.56    8.671986e-04
   7706.84    8.810659e-04
   7707.13    8.956323e-04
   7707.42    9.110144e-04
   7707.71    9.263964e-04
   7708.00    9.417785e-04
   7708.29    9.589294e-04
   7708.58    9.760804e-04
   7708.87    9.932313e-04
   7709.16    1.011504e-03
   7709.44    1.030737e-03
   7709.73    1.049971e-03
   7710.02    1.069395e-03
   7710.31    1.091103e-03
   7710.60    1.112811e-03
   7710.89    1.134519e-03
   7711.18    1.158054e-03
   7711.47    1.182732e-03
   7711.76    1.207410e-03
   7712.04    1.232642e-03
   7712.33    1.260925e-03
   7712.62    1.289209e-03
   7712.91    1.317492e-03
   7713.20    1.348847e-03
   7713.49    1.381566e-03
   7713.78    1.414286e-03
   7714.07    1.448284e-03
   7714.36    1.486544e-03
   7714.64    1.524805e-03
   7714.93    1.563065e-03
   7715.22    1.606746e-03
   7715.51    1.652053e-03
   7715.80    1.697360e-03
   7716.09    1.745484e-03
   7716.38    1.799944e-03
   7716.67    1.854404e-03
   7716.96    1.908865e-03
   7717.24    1.973650e-03
   7717.53    2.040312e-03
   7717.82    2.106975e-03
   7718.11    2.180100e-03
   7718.40    2.263563e-03
   7718.69    2.347027e-03
   7718.98    2.430491e-03
   7719.27    2.536225e-03
   7719.56    2.643814e-03
   7719.84    2.751403e-03
   7720.13    2.875921e-03
   7720.42    3.020189e-03
   7720.71    3.164457e-03
   7721.00    3.308725e-03
   7721.29    3.513632e-03
   7721.58    3.718538e-03
   7721.87    3.923445e-03
   7722.16    4.190268e-03
   7722.44    4.510162e-03
   7722.73    4.830056e-03
   7723.02    5.171723e-03
   7723.31    5.774659e-03
   7723.60    6.377596e-03
   7723.89    6.980533e-03
   7724.18    8.196408e-03
   7724.47    9.795371e-03
   7724.76    1.139433e-02
   7725.04    1.313553e-02
   7725.33    1.569210e-02
   7725.62    1.830922e-02
   7725.91    2.103833e-02
   7726.20    2.398061e-02
   7726.49    2.732745e-02
   7726.78    3.110264e-02
   7727.07    3.549081e-02
   7727.36    4.052683e-02
   7727.64    4.632321e-02
   7727.93    5.287415e-02
   7728.22    6.000314e-02
   7728.51    6.750073e-02
   7728.80    7.509893e-02
   7729.09    8.275511e-02
   7729.38    9.049248e-02
   7729.67    9.814704e-02
   7729.96    1.052635e-01
   7730.24    1.112276e-01
   7730.53    1.154212e-01
   7730.82    1.178721e-01
   7731.11    1.188490e-01
   7731.40    1.187119e-01
   7731.69    1.177977e-01
   7731.98    1.163627e-01
   7732.27    1.145774e-01
   7732.56    1.125876e-01
   7732.84    1.105254e-01
   7733.13    1.085011e-01
   7733.42    1.066200e-01
   7733.71    1.049707e-01
   7734.00    1.036154e-01
   7734.29    1.026247e-01
   7734.58    1.019548e-01
   7734.87    1.015718e-01
   7735.16    1.014199e-01
   7735.44    1.014282e-01
   7735.73    1.015181e-01
   7736.02    1.016072e-01
   7736.31    1.016194e-01
   7736.60    1.015091e-01
   7736.89    1.012523e-01
   7737.18    1.008472e-01
   7737.47    1.003118e-01
   7737.76    9.967723e-02
   7738.04    9.898510e-02
   7738.33    9.828764e-02
   7738.62    9.762429e-02
   7738.91    9.702801e-02
   7739.20    9.652374e-02
   7739.49    9.612799e-02
   7739.78    9.585919e-02
   7740.07    9.574090e-02
   7740.36    9.579754e-02
   7740.64    9.585419e-02
   7740.93    9.591083e-02
   7741.22    9.614077e-02
   7741.51    9.642270e-02
   7741.80    9.670464e-02
   7742.09    9.698450e-02
   7742.38    9.725970e-02
   7742.67    9.753490e-02
   7742.96    9.781011e-02
   7743.24    9.790650e-02
   7743.53    9.797037e-02
   7743.82    9.803425e-02
   7744.11    9.798032e-02
   7744.40    9.773789e-02
   7744.69    9.749547e-02
   7744.98    9.725305e-02
   7745.27    9.675924e-02
   7745.56    9.624448e-02
   7745.84    9.572972e-02
   7746.13    9.514045e-02
   7746.42    9.446427e-02
   7746.71    9.378809e-02
   7747.00    9.311191e-02
   7747.29    9.239229e-02
   7747.58    9.167268e-02
   7747.87    9.095307e-02
   7748.16    9.025277e-02
   7748.44    8.956902e-02
   7748.73    8.888528e-02
   7749.02    8.820676e-02
   7749.31    8.759099e-02
   7749.60    8.697521e-02
   7749.89    8.635943e-02
   7750.18    8.578423e-02
   7750.47    8.523437e-02
   7750.76    8.468452e-02
   7751.04    8.414157e-02
   7751.33    8.363655e-02
   7751.62    8.313154e-02
   7751.91    8.262652e-02
   7752.20    8.213263e-02
   7752.49    8.164367e-02
   7752.78    8.115471e-02
   7753.07    8.066301e-02
   7753.36    8.016218e-02
   7753.64    7.966135e-02
   7753.93    7.916052e-02
   7754.22    7.863454e-02
   7754.51    7.810101e-02
   7754.80    7.756748e-02
   7755.09    7.702111e-02
   7755.38    7.644583e-02
   7755.67    7.587055e-02
   7755.96    7.529528e-02
   7756.24    7.469030e-02
   7756.53    7.407993e-02
   7756.82    7.346956e-02
   7757.11    7.285567e-02
   7757.40    7.223616e-02
   7757.69    7.161665e-02
   7757.98    7.099715e-02
   7758.27    7.041377e-02
   7758.56    6.983341e-02
   7758.84    6.925305e-02
   7759.13    6.872085e-02
   7759.42    6.824484e-02
   7759.71    6.776883e-02
   7760.00    6.729281e-02
