 FDMNES
  energy    <xanes>
   7695.00    5.145832e-04
   7695.29    5.202480e-04
   7695.58    5.259129e-04
   7695.87    5.315778e-04
   7696.16    5.374600e-04
   7696.44    5.435287e-04
   7696.73    5.495974e-04
   7697.02    5.557004e-04
   7697.31    5.622161e-04
   7697.60    5.687318e-04
   7697.89    5.752476e-04
   7698.18    5.820689e-04
   7698.47    5.890813e-04
   7698.76    5.960937e-04
   7699.04    6.031912e-04
   7699.33    6.107573e-04
   7699.62    6.183234e-04
   7699.91    6.258895e-04
   7700.20    6.338846e-04
   7700.49    6.420704e-04
   7700.78    6.502562e-04
   7701.07    6.586027e-04
   7701.36    6.674850e-04
   7701.64    6.763672e-04
   7701.93    6.852495e-04
   7702.22    6.947366e-04
   7702.51    7.044050e-04
   7702.80    7.140735e-04
   7703.09    7.240164e-04
   7703.38    7.345768e-04
   7703.67    7.451371e-04
   7703.96    7.556974e-04
   7704.24    7.671183e-04
   7704.53    7.786956e-04
   7704.82    7.902729e-04
   7705.11    8.022988e-04
   7705.40    8.150424e-04
   7705.69    8.277860e-04
   7705.98    8.405296e-04
   7706.27    8.545157e-04
   7706.56    8.686052e-04
   7706.84    8.826948e-04
   7707.13    8.975061e-04
   7707.42    9.131596e-04
   7707.71    9.288131e-04
   7708.00    9.444666e-04
   7708.29    9.619512e-04
   7708.58    9.794358e-04
   7708.87    9.969204e-04
   7709.16    1.015569e-03
   7709.44    1.035216e-03
   7709.73    1.054862e-03
   7710.02    1.074707e-03
   7710.31    1.096931e-03
   7710.60    1.119154e-03
   7710.89    1.141378e-03
   7711.18    1.165512e-03
   7711.47    1.190840e-03
   7711.76    1.216167e-03
   7712.04    1.242077e-03
   7712.33    1.271190e-03
   7712.62    1.300303e-03
   7712.91    1.329415e-03
   7713.20    1.361767e-03
   7713.49    1.395559e-03
   7713.78    1.429351e-03
   7714.07    1.464499e-03
   7714.36    1.504169e-03
   7714.64    1.543840e-03
   7714.93    1.583510e-03
   7715.22    1.628970e-03
   7715.51    1.676168e-03
   7715.80    1.723365e-03
   7716.09    1.773596e-03
   7716.38    1.830654e-03
   7716.67    1.887711e-03
   7716.96    1.944768e-03
   7717.24    2.013064e-03
   7717.53    2.083404e-03
   7717.82    2.153743e-03
   7718.11    2.231212e-03
   7718.40    2.320088e-03
   7718.69    2.408964e-03
   7718.98    2.497840e-03
   7719.27    2.611729e-03
   7719.56    2.727702e-03
   7719.84    2.843675e-03
   7720.13    2.979143e-03
   7720.42    3.137355e-03
   7720.71    3.295566e-03
   7721.00    3.453778e-03
   7721.29    3.684436e-03
   7721.58    3.915094e-03
   7721.87    4.145751e-03
   7722.16    4.454774e-03
   7722.44    4.830966e-03
   7722.73    5.207158e-03
   7723.02    5.613607e-03
   7723.31    6.383147e-03
   7723.60    7.152687e-03
   7723.89    7.922227e-03
   7724.18    9.618378e-03
   7724.47    1.189366e-02
   7724.76    1.416895e-02
   7725.04    1.662935e-02
   7725.33    2.004102e-02
   7725.62    2.317406e-02
   7725.91    2.606588e-02
   7726.20    2.893719e-02
   7726.49    3.197934e-02
   7726.78    3.529606e-02
   7727.07    3.908262e-02
   7727.36    4.342287e-02
   7727.64    4.848812e-02
   7727.93    5.441126e-02
   7728.22    6.125710e-02
   7728.51    6.919245e-02
   7728.80    7.801563e-02
   7729.09    8.763517e-02
   7729.38    9.738828e-02
   7729.67    1.063773e-01
   7729.96    1.137499e-01
   7730.24    1.187574e-01
   7730.53    1.209614e-01
   7730.82    1.209399e-01
   7731.11    1.194105e-01
   7731.40    1.170595e-01
   7731.69    1.144331e-01
   7731.98    1.118898e-01
   7732.27    1.096356e-01
   7732.56    1.077421e-01
   7732.84    1.061775e-01
   7733.13    1.049115e-01
   7733.42    1.039105e-01
   7733.71    1.031413e-01
   7734.00    1.025697e-01
   7734.29    1.021736e-01
   7734.58    1.018891e-01
   7734.87    1.016722e-01
   7735.16    1.014775e-01
   7735.44    1.012608e-01
   7735.73    1.009827e-01
   7736.02    1.006035e-01
   7736.31    1.001023e-01
   7736.60    9.947956e-02
   7736.89    9.874411e-02
   7737.18    9.791737e-02
   7737.47    9.703076e-02
   7737.76    9.612253e-02
   7738.04    9.523968e-02
   7738.33    9.442162e-02
   7738.62    9.370111e-02
   7738.91    9.310399e-02
   7739.20    9.264845e-02
   7739.49    9.234506e-02
   7739.78    9.221018e-02
   7740.07    9.226840e-02
   7740.36    9.254811e-02
   7740.64    9.282782e-02
   7740.93    9.310753e-02
   7741.22    9.360849e-02
   7741.51    9.417583e-02
   7741.80    9.474317e-02
   7742.09    9.531070e-02
   7742.38    9.587870e-02
   7742.67    9.644669e-02
   7742.96    9.701468e-02
   7743.24    9.734593e-02
   7743.53    9.763414e-02
   7743.82    9.792234e-02
   7744.11    9.804270e-02
   7744.40    9.789450e-02
   7744.69    9.774629e-02
   7744.98    9.759809e-02
   7745.27    9.707579e-02
   7745.56    9.652232e-02
   7745.84    9.596884e-02
   7746.13    9.530045e-02
   7746.42    9.449797e-02
   7746.71    9.369550e-02
   7747.00    9.289302e-02
   7747.29    9.201067e-02
   7747.58    9.112831e-02
   7747.87    9.024596e-02
   7748.16    8.938165e-02
   7748.44    8.853280e-02
   7748.73    8.768396e-02
   7749.02    8.684151e-02
   7749.31    8.607578e-02
   7749.60    8.531005e-02
   7749.89    8.454432e-02
   7750.18    8.383323e-02
   7750.47    8.315630e-02
   7750.76    8.247936e-02
   7751.04    8.181338e-02
   7751.33    8.120766e-02
   7751.62    8.060193e-02
   7751.91    7.999621e-02
   7752.20    7.942142e-02
   7752.49    7.886038e-02
   7752.78    7.829934e-02
   7753.07    7.774257e-02
   7753.36    7.720003e-02
   7753.64    7.665750e-02
   7753.93    7.611497e-02
   7754.22    7.557184e-02
   7754.51    7.502854e-02
   7754.80    7.448523e-02
   7755.09    7.393951e-02
   7755.38    7.338837e-02
   7755.67    7.283723e-02
   7755.96    7.228608e-02
   7756.24    7.173558e-02
   7756.53    7.118520e-02
   7756.82    7.063482e-02
   7757.11    7.009395e-02
   7757.40    6.956830e-02
   7757.69    6.904264e-02
   7757.98    6.851699e-02
   7758.27    6.804659e-02
   7758.56    6.758079e-02
   7758.84    6.711499e-02
   7759.13    6.669420e-02
   7759.42    6.632592e-02
   7759.71    6.595765e-02
   7760.00    6.558938e-02
