 FDMNES
  energy    <xanes>
   7695.00    5.448948e-04
   7695.29    5.507233e-04
   7695.58    5.565518e-04
   7695.87    5.623803e-04
   7696.16    5.684296e-04
   7696.44    5.746681e-04
   7696.73    5.809067e-04
   7697.02    5.871801e-04
   7697.31    5.938724e-04
   7697.60    6.005648e-04
   7697.89    6.072571e-04
   7698.18    6.142595e-04
   7698.47    6.214557e-04
   7698.76    6.286519e-04
   7699.04    6.359345e-04
   7699.33    6.436922e-04
   7699.62    6.514499e-04
   7699.91    6.592077e-04
   7700.20    6.674003e-04
   7700.49    6.757862e-04
   7700.78    6.841721e-04
   7701.07    6.927208e-04
   7701.36    7.018124e-04
   7701.64    7.109040e-04
   7701.93    7.199956e-04
   7702.22    7.296997e-04
   7702.51    7.395876e-04
   7702.80    7.494756e-04
   7703.09    7.596413e-04
   7703.38    7.704322e-04
   7703.67    7.812231e-04
   7703.96    7.920139e-04
   7704.24    8.036757e-04
   7704.53    8.154959e-04
   7704.82    8.273161e-04
   7705.11    8.395901e-04
   7705.40    8.525903e-04
   7705.69    8.655905e-04
   7705.98    8.785907e-04
   7706.27    8.928476e-04
   7706.56    9.072091e-04
   7706.84    9.215706e-04
   7707.13    9.366620e-04
   7707.42    9.526049e-04
   7707.71    9.685478e-04
   7708.00    9.844907e-04
   7708.29    1.002284e-03
   7708.58    1.020078e-03
   7708.87    1.037872e-03
   7709.16    1.056842e-03
   7709.44    1.076820e-03
   7709.73    1.096799e-03
   7710.02    1.116977e-03
   7710.31    1.139559e-03
   7710.60    1.162140e-03
   7710.89    1.184721e-03
   7711.18    1.209231e-03
   7711.47    1.234947e-03
   7711.76    1.260663e-03
   7712.04    1.286966e-03
   7712.33    1.316501e-03
   7712.62    1.346036e-03
   7712.91    1.375571e-03
   7713.20    1.408373e-03
   7713.49    1.442627e-03
   7713.78    1.476881e-03
   7714.07    1.512502e-03
   7714.36    1.552679e-03
   7714.64    1.592856e-03
   7714.93    1.633033e-03
   7715.22    1.679036e-03
   7715.51    1.726788e-03
   7715.80    1.774540e-03
   7716.09    1.825339e-03
   7716.38    1.882994e-03
   7716.67    1.940650e-03
   7716.96    1.998306e-03
   7717.24    2.067220e-03
   7717.53    2.138182e-03
   7717.82    2.209144e-03
   7718.11    2.287218e-03
   7718.40    2.376674e-03
   7718.69    2.466129e-03
   7718.98    2.555584e-03
   7719.27    2.669837e-03
   7719.56    2.786156e-03
   7719.84    2.902476e-03
   7720.13    3.037925e-03
   7720.42    3.195694e-03
   7720.71    3.353462e-03
   7721.00    3.511231e-03
   7721.29    3.738882e-03
   7721.58    3.966534e-03
   7721.87    4.194186e-03
   7722.16    4.495175e-03
   7722.44    4.859025e-03
   7722.73    5.222875e-03
   7723.02    5.613534e-03
   7723.31    6.325904e-03
   7723.60    7.038274e-03
   7723.89    7.750644e-03
   7724.18    9.250344e-03
   7724.47    1.124212e-02
   7724.76    1.323391e-02
   7725.04    1.541142e-02
   7725.33    1.864624e-02
   7725.62    2.190523e-02
   7725.91    2.514911e-02
   7726.20    2.843309e-02
   7726.49    3.185700e-02
   7726.78    3.552407e-02
   7727.07    3.972939e-02
   7727.36    4.469354e-02
   7727.64    5.071310e-02
   7727.93    5.788335e-02
   7728.22    6.597775e-02
   7728.51    7.462222e-02
   7728.80    8.329687e-02
   7729.09    9.177790e-02
   7729.38    1.001119e-01
   7729.67    1.081587e-01
   7729.96    1.155948e-01
   7730.24    1.218990e-01
   7730.53    1.264148e-01
   7730.82    1.289473e-01
   7731.11    1.294856e-01
   7731.40    1.282116e-01
   7731.69    1.254959e-01
   7731.98    1.218148e-01
   7732.27    1.176372e-01
   7732.56    1.133953e-01
   7732.84    1.093703e-01
   7733.13    1.057213e-01
   7733.42    1.025371e-01
   7733.71    9.985738e-02
   7734.00    9.768609e-02
   7734.29    9.605353e-02
   7734.58    9.485248e-02
   7734.87    9.402235e-02
   7735.16    9.349311e-02
   7735.44    9.318911e-02
   7735.73    9.303322e-02
   7736.02    9.295141e-02
   7736.31    9.286759e-02
   7736.60    9.272769e-02
   7736.89    9.249705e-02
   7737.18    9.215874e-02
   7737.47    9.171326e-02
   7737.76    9.117522e-02
   7738.04    9.057070e-02
   7738.33    8.994367e-02
   7738.62    8.933026e-02
   7738.91    8.876422e-02
   7739.20    8.827442e-02
   7739.49    8.788351e-02
   7739.78    8.761789e-02
   7740.07    8.751920e-02
   7740.36    8.763360e-02
   7740.64    8.774800e-02
   7740.93    8.786240e-02
   7741.22    8.827283e-02
   7741.51    8.877207e-02
   7741.80    8.927131e-02
   7742.09    8.983698e-02
   7742.38    9.055211e-02
   7742.67    9.126724e-02
   7742.96    9.198237e-02
   7743.24    9.268225e-02
   7743.53    9.337935e-02
   7743.82    9.407645e-02
   7744.11    9.468063e-02
   7744.40    9.513612e-02
   7744.69    9.559162e-02
   7744.98    9.604711e-02
   7745.27    9.615825e-02
   7745.56    9.624070e-02
   7745.84    9.632315e-02
   7746.13    9.623459e-02
   7746.42    9.594654e-02
   7746.71    9.565849e-02
   7747.00    9.537043e-02
   7747.29    9.481842e-02
   7747.58    9.426640e-02
   7747.87    9.371438e-02
   7748.16    9.309834e-02
   7748.44    9.242741e-02
   7748.73    9.175649e-02
   7749.02    9.108624e-02
   7749.31    9.042410e-02
   7749.60    8.976196e-02
   7749.89    8.909983e-02
   7750.18    8.848629e-02
   7750.47    8.790312e-02
   7750.76    8.731995e-02
   7751.04    8.675128e-02
   7751.33    8.626233e-02
   7751.62    8.577339e-02
   7751.91    8.528444e-02
   7752.20    8.484797e-02
   7752.49    8.443483e-02
   7752.78    8.402168e-02
   7753.07    8.361853e-02
   7753.36    8.324872e-02
   7753.64    8.287891e-02
   7753.93    8.250909e-02
   7754.22    8.214772e-02
   7754.51    8.178888e-02
   7754.80    8.143004e-02
   7755.09    8.106730e-02
   7755.38    8.069576e-02
   7755.67    8.032422e-02
   7755.96    7.995269e-02
   7756.24    7.956201e-02
   7756.53    7.916786e-02
   7756.82    7.877371e-02
   7757.11    7.837385e-02
   7757.40    7.796486e-02
   7757.69    7.755586e-02
   7757.98    7.714687e-02
   7758.27    7.675128e-02
   7758.56    7.635681e-02
   7758.84    7.596234e-02
   7759.13    7.559720e-02
   7759.42    7.526629e-02
   7759.71    7.493538e-02
   7760.00    7.460447e-02
