 FDMNES
  energy    <xanes>
   7695.00    5.223151e-04
   7695.29    5.280877e-04
   7695.58    5.338603e-04
   7695.87    5.396329e-04
   7696.16    5.456283e-04
   7696.44    5.518145e-04
   7696.73    5.580007e-04
   7697.02    5.642222e-04
   7697.31    5.708666e-04
   7697.60    5.775109e-04
   7697.89    5.841553e-04
   7698.18    5.911130e-04
   7698.47    5.982665e-04
   7698.76    6.054200e-04
   7699.04    6.126609e-04
   7699.33    6.203823e-04
   7699.62    6.281038e-04
   7699.91    6.358252e-04
   7700.20    6.439869e-04
   7700.49    6.523442e-04
   7700.78    6.607015e-04
   7701.07    6.692238e-04
   7701.36    6.782961e-04
   7701.64    6.873684e-04
   7701.93    6.964407e-04
   7702.22    7.061342e-04
   7702.51    7.160139e-04
   7702.80    7.258937e-04
   7703.09    7.360554e-04
   7703.38    7.468514e-04
   7703.67    7.576475e-04
   7703.96    7.684436e-04
   7704.24    7.801241e-04
   7704.53    7.919655e-04
   7704.82    8.038068e-04
   7705.11    8.161094e-04
   7705.40    8.291500e-04
   7705.69    8.421906e-04
   7705.98    8.552311e-04
   7706.27    8.695495e-04
   7706.56    8.839744e-04
   7706.84    8.983992e-04
   7707.13    9.135667e-04
   7707.42    9.296004e-04
   7707.71    9.456342e-04
   7708.00    9.616679e-04
   7708.29    9.795856e-04
   7708.58    9.975033e-04
   7708.87    1.015421e-03
   7709.16    1.034536e-03
   7709.44    1.054678e-03
   7709.73    1.074820e-03
   7710.02    1.095166e-03
   7710.31    1.117959e-03
   7710.60    1.140752e-03
   7710.89    1.163545e-03
   7711.18    1.188301e-03
   7711.47    1.214286e-03
   7711.76    1.240270e-03
   7712.04    1.266853e-03
   7712.33    1.296725e-03
   7712.62    1.326598e-03
   7712.91    1.356470e-03
   7713.20    1.389667e-03
   7713.49    1.424340e-03
   7713.78    1.459014e-03
   7714.07    1.495077e-03
   7714.36    1.535770e-03
   7714.64    1.576464e-03
   7714.93    1.617158e-03
   7715.22    1.663765e-03
   7715.51    1.712147e-03
   7715.80    1.760528e-03
   7716.09    1.811995e-03
   7716.38    1.870407e-03
   7716.67    1.928818e-03
   7716.96    1.987230e-03
   7717.24    2.057010e-03
   7717.53    2.128858e-03
   7717.82    2.200705e-03
   7718.11    2.279705e-03
   7718.40    2.370151e-03
   7718.69    2.460596e-03
   7718.98    2.551041e-03
   7719.27    2.666286e-03
   7719.56    2.783598e-03
   7719.84    2.900909e-03
   7720.13    3.037210e-03
   7720.42    3.195665e-03
   7720.71    3.354119e-03
   7721.00    3.512574e-03
   7721.29    3.739715e-03
   7721.58    3.966855e-03
   7721.87    4.193996e-03
   7722.16    4.492342e-03
   7722.44    4.851723e-03
   7722.73    5.211104e-03
   7723.02    5.596217e-03
   7723.31    6.290121e-03
   7723.60    6.984025e-03
   7723.89    7.677929e-03
   7724.18    9.115373e-03
   7724.47    1.101753e-02
   7724.76    1.291969e-02
   7725.04    1.498330e-02
   7725.33    1.793373e-02
   7725.62    2.083176e-02
   7725.91    2.374073e-02
   7726.20    2.680558e-02
   7726.49    3.019499e-02
   7726.78    3.392111e-02
   7727.07    3.813187e-02
   7727.36    4.289629e-02
   7727.64    4.842319e-02
   7727.93    5.490099e-02
   7728.22    6.244343e-02
   7728.51    7.133510e-02
   7728.80    8.149964e-02
   7729.09    9.322947e-02
   7729.38    1.059159e-01
   7729.67    1.187845e-01
   7729.96    1.305371e-01
   7730.24    1.397683e-01
   7730.53    1.451398e-01
   7730.82    1.467380e-01
   7731.11    1.451956e-01
   7731.40    1.413980e-01
   7731.69    1.362431e-01
   7731.98    1.304792e-01
   7732.27    1.246741e-01
   7732.56    1.192290e-01
   7732.84    1.143204e-01
   7733.13    1.100288e-01
   7733.42    1.063708e-01
   7733.71    1.033227e-01
   7734.00    1.008352e-01
   7734.29    9.889788e-02
   7734.58    9.737935e-02
   7734.87    9.621292e-02
   7735.16    9.533115e-02
   7735.44    9.466645e-02
   7735.73    9.415256e-02
   7736.02    9.372890e-02
   7736.31    9.333144e-02
   7736.60    9.291386e-02
   7736.89    9.244769e-02
   7737.18    9.191991e-02
   7737.47    9.133286e-02
   7737.76    9.070207e-02
   7738.04    9.005608e-02
   7738.33    8.943139e-02
   7738.62    8.886073e-02
   7738.91    8.837376e-02
   7739.20    8.799480e-02
   7739.49    8.774156e-02
   7739.78    8.763645e-02
   7740.07    8.771215e-02
   7740.36    8.800382e-02
   7740.64    8.829548e-02
   7740.93    8.858715e-02
   7741.22    8.911611e-02
   7741.51    8.971627e-02
   7741.80    9.031642e-02
   7742.09    9.092799e-02
   7742.38    9.156525e-02
   7742.67    9.220250e-02
   7742.96    9.283976e-02
   7743.24    9.326875e-02
   7743.53    9.365987e-02
   7743.82    9.405099e-02
   7744.11    9.428817e-02
   7744.40    9.427907e-02
   7744.69    9.426997e-02
   7744.98    9.426087e-02
   7745.27    9.390283e-02
   7745.56    9.351572e-02
   7745.84    9.312861e-02
   7746.13    9.263086e-02
   7746.42    9.200405e-02
   7746.71    9.137724e-02
   7747.00    9.075043e-02
   7747.29    9.003879e-02
   7747.58    8.932714e-02
   7747.87    8.861550e-02
   7748.16    8.791689e-02
   7748.44    8.722947e-02
   7748.73    8.654204e-02
   7749.02    8.586028e-02
   7749.31    8.524648e-02
   7749.60    8.463268e-02
   7749.89    8.401888e-02
   7750.18    8.345173e-02
   7750.47    8.291373e-02
   7750.76    8.237574e-02
   7751.04    8.184574e-02
   7751.33    8.135967e-02
   7751.62    8.087361e-02
   7751.91    8.038755e-02
   7752.20    7.991563e-02
   7752.49    7.945001e-02
   7752.78    7.898439e-02
   7753.07    7.851708e-02
   7753.36    7.804414e-02
   7753.64    7.757120e-02
   7753.93    7.709827e-02
   7754.22    7.660587e-02
   7754.51    7.610763e-02
   7754.80    7.560939e-02
   7755.09    7.510206e-02
   7755.38    7.457428e-02
   7755.67    7.404649e-02
   7755.96    7.351871e-02
   7756.24    7.297616e-02
   7756.53    7.243092e-02
   7756.82    7.188568e-02
   7757.11    7.134476e-02
   7757.40    7.081074e-02
   7757.69    7.027673e-02
   7757.98    6.974271e-02
   7758.27    6.925785e-02
   7758.56    6.877709e-02
   7758.84    6.829633e-02
   7759.13    6.786111e-02
   7759.42    6.747904e-02
   7759.71    6.709697e-02
   7760.00    6.671489e-02
