 FDMNES
  energy    <xanes>
   7695.00    5.059693e-04
   7695.29    5.115931e-04
   7695.58    5.172168e-04
   7695.87    5.228406e-04
   7696.16    5.286810e-04
   7696.44    5.347071e-04
   7696.73    5.407332e-04
   7697.02    5.467936e-04
   7697.31    5.532651e-04
   7697.60    5.597366e-04
   7697.89    5.662082e-04
   7698.18    5.729843e-04
   7698.47    5.799506e-04
   7698.76    5.869170e-04
   7699.04    5.939683e-04
   7699.33    6.014863e-04
   7699.62    6.090044e-04
   7699.91    6.165224e-04
   7700.20    6.244679e-04
   7700.49    6.326033e-04
   7700.78    6.407387e-04
   7701.07    6.490342e-04
   7701.36    6.578634e-04
   7701.64    6.666925e-04
   7701.93    6.755216e-04
   7702.22    6.849531e-04
   7702.51    6.945652e-04
   7702.80    7.041773e-04
   7703.09    7.140626e-04
   7703.38    7.245626e-04
   7703.67    7.350626e-04
   7703.96    7.455627e-04
   7704.24    7.569191e-04
   7704.53    7.684313e-04
   7704.82    7.799435e-04
   7705.11    7.919019e-04
   7705.40    8.045744e-04
   7705.69    8.172468e-04
   7705.98    8.299192e-04
   7706.27    8.438270e-04
   7706.56    8.578376e-04
   7706.84    8.718483e-04
   7707.13    8.865762e-04
   7707.42    9.021408e-04
   7707.71    9.177054e-04
   7708.00    9.332699e-04
   7708.29    9.506523e-04
   7708.58    9.680347e-04
   7708.87    9.854171e-04
   7709.16    1.003954e-03
   7709.44    1.023480e-03
   7709.73    1.043007e-03
   7710.02    1.062730e-03
   7710.31    1.084808e-03
   7710.60    1.106887e-03
   7710.89    1.128966e-03
   7711.18    1.152933e-03
   7711.47    1.178082e-03
   7711.76    1.203230e-03
   7712.04    1.228952e-03
   7712.33    1.257836e-03
   7712.62    1.286719e-03
   7712.91    1.315602e-03
   7713.20    1.347674e-03
   7713.49    1.381163e-03
   7713.78    1.414653e-03
   7714.07    1.449473e-03
   7714.36    1.488731e-03
   7714.64    1.527989e-03
   7714.93    1.567247e-03
   7715.22    1.612164e-03
   7715.51    1.658779e-03
   7715.80    1.705394e-03
   7716.09    1.754960e-03
   7716.38    1.811163e-03
   7716.67    1.867367e-03
   7716.96    1.923570e-03
   7717.24    1.990632e-03
   7717.53    2.059668e-03
   7717.82    2.128703e-03
   7718.11    2.204567e-03
   7718.40    2.291356e-03
   7718.69    2.378145e-03
   7718.98    2.464934e-03
   7719.27    2.575402e-03
   7719.56    2.687842e-03
   7719.84    2.800282e-03
   7720.13    2.930881e-03
   7720.42    3.082665e-03
   7720.71    3.234449e-03
   7721.00    3.386233e-03
   7721.29    3.603949e-03
   7721.58    3.821666e-03
   7721.87    4.039383e-03
   7722.16    4.325966e-03
   7722.44    4.671576e-03
   7722.73    5.017187e-03
   7723.02    5.387959e-03
   7723.31    6.060670e-03
   7723.60    6.733381e-03
   7723.89    7.406092e-03
   7724.18    8.829921e-03
   7724.47    1.072320e-02
   7724.76    1.261647e-02
   7725.04    1.469760e-02
   7725.33    1.785357e-02
   7725.62    2.096940e-02
   7725.91    2.378518e-02
   7726.20    2.633278e-02
   7726.49    2.879563e-02
   7726.78    3.144387e-02
   7727.07    3.455517e-02
   7727.36    3.829361e-02
   7727.64    4.293072e-02
   7727.93    4.868391e-02
   7728.22    5.567190e-02
   7728.51    6.419492e-02
   7728.80    7.413958e-02
   7729.09    8.583022e-02
   7729.38    9.860199e-02
   7729.67    1.116098e-01
   7729.96    1.234184e-01
   7730.24    1.325210e-01
   7730.53    1.376367e-01
   7730.82    1.390800e-01
   7731.11    1.376556e-01
   7731.40    1.342927e-01
   7731.69    1.298318e-01
   7731.98    1.249204e-01
   7732.27    1.200195e-01
   7732.56    1.154345e-01
   7732.84    1.112940e-01
   7733.13    1.076637e-01
   7733.42    1.045644e-01
   7733.71    1.019868e-01
   7734.00    9.990262e-02
   7734.29    9.832080e-02
   7734.58    9.713382e-02
   7734.87    9.628421e-02
   7735.16    9.570744e-02
   7735.44    9.533385e-02
   7735.73    9.509192e-02
   7736.02    9.491262e-02
   7736.31    9.472674e-02
   7736.60    9.448746e-02
   7736.89    9.416745e-02
   7737.18    9.375691e-02
   7737.47    9.326228e-02
   7737.76    9.270279e-02
   7738.04    9.210917e-02
   7738.33    9.152274e-02
   7738.62    9.097910e-02
   7738.91    9.051133e-02
   7739.20    9.014784e-02
   7739.49    8.991093e-02
   7739.78    8.982865e-02
   7740.07    8.994377e-02
   7740.36    9.030221e-02
   7740.64    9.066066e-02
   7740.93    9.101910e-02
   7741.22    9.166692e-02
   7741.51    9.240156e-02
   7741.80    9.313620e-02
   7742.09    9.389534e-02
   7742.38    9.470962e-02
   7742.67    9.552390e-02
   7742.96    9.633818e-02
   7743.24    9.692752e-02
   7743.53    9.747596e-02
   7743.82    9.802440e-02
   7744.11    9.838262e-02
   7744.40    9.843647e-02
   7744.69    9.849033e-02
   7744.98    9.854418e-02
   7745.27    9.812303e-02
   7745.56    9.766230e-02
   7745.84    9.720157e-02
   7746.13    9.657619e-02
   7746.42    9.575873e-02
   7746.71    9.494126e-02
   7747.00    9.412380e-02
   7747.29    9.316342e-02
   7747.58    9.220304e-02
   7747.87    9.124266e-02
   7748.16    9.029278e-02
   7748.44    8.935191e-02
   7748.73    8.841104e-02
   7749.02    8.747765e-02
   7749.31    8.663403e-02
   7749.60    8.579041e-02
   7749.89    8.494679e-02
   7750.18    8.416987e-02
   7750.47    8.343464e-02
   7750.76    8.269941e-02
   7751.04    8.197694e-02
   7751.33    8.132464e-02
   7751.62    8.067235e-02
   7751.91    8.002005e-02
   7752.20    7.939869e-02
   7752.49    7.879108e-02
   7752.78    7.818348e-02
   7753.07    7.757784e-02
   7753.36    7.697877e-02
   7753.64    7.637969e-02
   7753.93    7.578062e-02
   7754.22    7.516893e-02
   7754.51    7.455346e-02
   7754.80    7.393798e-02
   7755.09    7.331509e-02
   7755.38    7.267552e-02
   7755.67    7.203594e-02
   7755.96    7.139637e-02
   7756.24    7.074662e-02
   7756.53    7.009501e-02
   7756.82    6.944340e-02
   7757.11    6.879900e-02
   7757.40    6.816611e-02
   7757.69    6.753323e-02
   7757.98    6.690035e-02
   7758.27    6.632705e-02
   7758.56    6.575871e-02
   7758.84    6.519037e-02
   7759.13    6.467545e-02
   7759.42    6.422285e-02
   7759.71    6.377025e-02
   7760.00    6.331765e-02
