 FDMNES
  energy    <xanes>
   7695.00    5.158384e-04
   7695.29    5.213976e-04
   7695.58    5.269568e-04
   7695.87    5.325160e-04
   7696.16    5.382843e-04
   7696.44    5.442321e-04
   7696.73    5.501798e-04
   7697.02    5.561605e-04
   7697.31    5.625377e-04
   7697.60    5.689149e-04
   7697.89    5.752921e-04
   7698.18    5.819623e-04
   7698.47    5.888157e-04
   7698.76    5.956691e-04
   7699.04    6.026041e-04
   7699.33    6.099875e-04
   7699.62    6.173709e-04
   7699.91    6.247543e-04
   7700.20    6.325475e-04
   7700.49    6.405229e-04
   7700.78    6.484984e-04
   7701.07    6.566270e-04
   7701.36    6.652664e-04
   7701.64    6.739058e-04
   7701.93    6.825452e-04
   7702.22    6.917600e-04
   7702.51    7.011474e-04
   7702.80    7.105348e-04
   7703.09    7.201827e-04
   7703.38    7.304166e-04
   7703.67    7.406506e-04
   7703.96    7.508846e-04
   7704.24    7.619335e-04
   7704.53    7.731306e-04
   7704.82    7.843277e-04
   7705.11    7.959485e-04
   7705.40    8.082474e-04
   7705.69    8.205464e-04
   7705.98    8.328453e-04
   7706.27    8.463149e-04
   7706.56    8.598821e-04
   7706.84    8.734493e-04
   7707.13    8.876948e-04
   7707.42    9.027317e-04
   7707.71    9.177686e-04
   7708.00    9.328055e-04
   7708.29    9.495583e-04
   7708.58    9.663111e-04
   7708.87    9.830639e-04
   7709.16    1.000904e-03
   7709.44    1.019677e-03
   7709.73    1.038450e-03
   7710.02    1.057407e-03
   7710.31    1.078580e-03
   7710.60    1.099753e-03
   7710.89    1.120926e-03
   7711.18    1.143872e-03
   7711.47    1.167927e-03
   7711.76    1.191981e-03
   7712.04    1.216575e-03
   7712.33    1.244131e-03
   7712.62    1.271687e-03
   7712.91    1.299243e-03
   7713.20    1.329785e-03
   7713.49    1.361655e-03
   7713.78    1.393524e-03
   7714.07    1.426640e-03
   7714.36    1.463908e-03
   7714.64    1.501176e-03
   7714.93    1.538444e-03
   7715.22    1.581009e-03
   7715.51    1.625163e-03
   7715.80    1.669317e-03
   7716.09    1.716235e-03
   7716.38    1.769372e-03
   7716.67    1.822510e-03
   7716.96    1.875648e-03
   7717.24    1.938983e-03
   7717.53    2.004172e-03
   7717.82    2.069361e-03
   7718.11    2.140991e-03
   7718.40    2.222927e-03
   7718.69    2.304864e-03
   7718.98    2.386800e-03
   7719.27    2.491236e-03
   7719.56    2.597546e-03
   7719.84    2.703857e-03
   7720.13    2.827622e-03
   7720.42    2.971750e-03
   7720.71    3.115878e-03
   7721.00    3.260006e-03
   7721.29    3.468653e-03
   7721.58    3.677301e-03
   7721.87    3.885948e-03
   7722.16    4.163873e-03
   7722.44    4.501178e-03
   7722.73    4.838483e-03
   7723.02    5.202186e-03
   7723.31    5.882658e-03
   7723.60    6.563130e-03
   7723.89    7.243602e-03
   7724.18    8.732757e-03
   7724.47    1.072734e-02
   7724.76    1.272192e-02
   7725.04    1.489746e-02
   7725.33    1.805269e-02
   7725.62    2.103881e-02
   7725.91    2.375233e-02
   7726.20    2.632416e-02
   7726.49    2.892925e-02
   7726.78    3.176980e-02
   7727.07    3.512399e-02
   7727.36    3.911447e-02
   7727.64    4.390383e-02
   7727.93    4.956139e-02
   7728.22    5.604741e-02
   7728.51    6.335714e-02
   7728.80    7.116635e-02
   7729.09    7.912810e-02
   7729.38    8.668993e-02
   7729.67    9.306547e-02
   7729.96    9.778027e-02
   7730.24    1.004882e-01
   7730.53    1.011738e-01
   7730.82    1.005145e-01
   7731.11    9.913409e-02
   7731.40    9.751364e-02
   7731.69    9.596514e-02
   7731.98    9.466009e-02
   7732.27    9.370070e-02
   7732.56    9.313165e-02
   7732.84    9.293880e-02
   7733.13    9.311919e-02
   7733.42    9.366064e-02
   7733.71    9.454159e-02
   7734.00    9.572990e-02
   7734.29    9.720526e-02
   7734.58    9.886938e-02
   7734.87    1.006457e-01
   7735.16    1.024468e-01
   7735.44    1.041792e-01
   7735.73    1.057510e-01
   7736.02    1.070585e-01
   7736.31    1.080347e-01
   7736.60    1.086589e-01
   7736.89    1.089245e-01
   7737.18    1.088517e-01
   7737.47    1.084831e-01
   7737.76    1.078750e-01
   7738.04    1.070895e-01
   7738.33    1.062184e-01
   7738.62    1.053246e-01
   7738.91    1.044620e-01
   7739.20    1.036736e-01
   7739.49    1.029906e-01
   7739.78    1.024443e-01
   7740.07    1.020753e-01
   7740.36    1.019246e-01
   7740.64    1.017739e-01
   7740.93    1.016231e-01
   7741.22    1.017220e-01
   7741.51    1.018957e-01
   7741.80    1.020694e-01
   7742.09    1.022571e-01
   7742.38    1.024760e-01
   7742.67    1.026950e-01
   7742.96    1.029139e-01
   7743.24    1.029262e-01
   7743.53    1.029009e-01
   7743.82    1.028757e-01
   7744.11    1.026974e-01
   7744.40    1.022742e-01
   7744.69    1.018510e-01
   7744.98    1.014278e-01
   7745.27    1.006769e-01
   7745.56    9.989883e-02
   7745.84    9.912072e-02
   7746.13    9.825959e-02
   7746.42    9.730160e-02
   7746.71    9.634361e-02
   7747.00    9.538562e-02
   7747.29    9.443250e-02
   7747.58    9.347939e-02
   7747.87    9.252628e-02
   7748.16    9.162894e-02
   7748.44    9.077942e-02
   7748.73    8.992990e-02
   7749.02    8.909020e-02
   7749.31    8.836838e-02
   7749.60    8.764656e-02
   7749.89    8.692474e-02
   7750.18    8.627354e-02
   7750.47    8.566648e-02
   7750.76    8.505941e-02
   7751.04    8.446551e-02
   7751.33    8.394404e-02
   7751.62    8.342256e-02
   7751.91    8.290108e-02
   7752.20    8.241454e-02
   7752.49    8.194353e-02
   7752.78    8.147251e-02
   7753.07    8.100494e-02
   7753.36    8.054884e-02
   7753.64    8.009273e-02
   7753.93    7.963663e-02
   7754.22    7.916751e-02
   7754.51    7.869448e-02
   7754.80    7.822145e-02
   7755.09    7.773611e-02
   7755.38    7.722307e-02
   7755.67    7.671002e-02
   7755.96    7.619698e-02
   7756.24    7.564360e-02
   7756.53    7.508290e-02
   7756.82    7.452220e-02
   7757.11    7.394926e-02
   7757.40    7.335674e-02
   7757.69    7.276422e-02
   7757.98    7.217170e-02
   7758.27    7.159327e-02
   7758.56    7.101602e-02
   7758.84    7.043876e-02
   7759.13    6.990337e-02
   7759.42    6.941681e-02
   7759.71    6.893025e-02
   7760.00    6.844369e-02
