 FDMNES
  energy    <xanes>
   7695.00    5.214933e-04
   7695.29    5.270157e-04
   7695.58    5.325381e-04
   7695.87    5.380605e-04
   7696.16    5.437882e-04
   7696.44    5.496920e-04
   7696.73    5.555958e-04
   7697.02    5.615319e-04
   7697.31    5.678569e-04
   7697.60    5.741819e-04
   7697.89    5.805068e-04
   7698.18    5.871189e-04
   7698.47    5.939105e-04
   7698.76    6.007021e-04
   7699.04    6.075735e-04
   7699.33    6.148839e-04
   7699.62    6.221943e-04
   7699.91    6.295046e-04
   7700.20    6.372158e-04
   7700.49    6.451051e-04
   7700.78    6.529944e-04
   7701.07    6.610333e-04
   7701.36    6.695712e-04
   7701.64    6.781090e-04
   7701.93    6.866469e-04
   7702.22    6.957461e-04
   7702.51    7.050138e-04
   7702.80    7.142814e-04
   7703.09    7.238028e-04
   7703.38    7.338954e-04
   7703.67    7.439880e-04
   7703.96    7.540805e-04
   7704.24    7.649661e-04
   7704.53    7.759959e-04
   7704.82    7.870257e-04
   7705.11    7.984673e-04
   7705.40    8.105677e-04
   7705.69    8.226682e-04
   7705.98    8.347686e-04
   7706.27    8.480049e-04
   7706.56    8.613357e-04
   7706.84    8.746666e-04
   7707.13    8.886545e-04
   7707.42    9.034087e-04
   7707.71    9.181630e-04
   7708.00    9.329173e-04
   7708.29    9.493302e-04
   7708.58    9.657431e-04
   7708.87    9.821560e-04
   7709.16    9.996180e-04
   7709.44    1.017979e-03
   7709.73    1.036341e-03
   7710.02    1.054879e-03
   7710.31    1.075550e-03
   7710.60    1.096221e-03
   7710.89    1.116892e-03
   7711.18    1.139264e-03
   7711.47    1.162701e-03
   7711.76    1.186137e-03
   7712.04    1.210088e-03
   7712.33    1.236874e-03
   7712.62    1.263660e-03
   7712.91    1.290446e-03
   7713.20    1.320079e-03
   7713.49    1.350977e-03
   7713.78    1.381874e-03
   7714.07    1.413955e-03
   7714.36    1.449977e-03
   7714.64    1.486000e-03
   7714.93    1.522022e-03
   7715.22    1.563048e-03
   7715.51    1.605574e-03
   7715.80    1.648101e-03
   7716.09    1.693223e-03
   7716.38    1.744184e-03
   7716.67    1.795146e-03
   7716.96    1.846108e-03
   7717.24    1.906576e-03
   7717.53    1.968773e-03
   7717.82    2.030970e-03
   7718.11    2.099118e-03
   7718.40    2.176788e-03
   7718.69    2.254458e-03
   7718.98    2.332128e-03
   7719.27    2.430357e-03
   7719.56    2.530298e-03
   7719.84    2.630239e-03
   7720.13    2.745905e-03
   7720.42    2.879915e-03
   7720.71    3.013925e-03
   7721.00    3.147935e-03
   7721.29    3.339027e-03
   7721.58    3.530119e-03
   7721.87    3.721211e-03
   7722.16    3.972220e-03
   7722.44    4.274588e-03
   7722.73    4.576955e-03
   7723.02    4.901583e-03
   7723.31    5.493335e-03
   7723.60    6.085087e-03
   7723.89    6.676839e-03
   7724.18    7.932257e-03
   7724.47    9.602467e-03
   7724.76    1.127268e-02
   7725.04    1.308247e-02
   7725.33    1.563213e-02
   7725.62    1.802966e-02
   7725.91    2.027765e-02
   7726.20    2.252991e-02
   7726.49    2.496367e-02
   7726.78    2.767832e-02
   7727.07    3.085884e-02
   7727.36    3.455836e-02
   7727.64    3.888041e-02
   7727.93    4.386922e-02
   7728.22    4.951196e-02
   7728.51    5.588116e-02
   7728.80    6.283088e-02
   7729.09    7.035974e-02
   7729.38    7.816468e-02
   7729.67    8.596844e-02
   7729.96    9.339134e-02
   7730.24    9.995836e-02
   7730.53    1.050028e-01
   7730.82    1.082355e-01
   7731.11    1.096530e-01
   7731.40    1.095425e-01
   7731.69    1.083811e-01
   7731.98    1.066709e-01
   7732.27    1.048254e-01
   7732.56    1.031267e-01
   7732.84    1.016784e-01
   7733.13    1.005059e-01
   7733.42    9.960236e-02
   7733.71    9.894940e-02
   7734.00    9.852542e-02
   7734.29    9.832907e-02
   7734.58    9.830827e-02
   7734.87    9.843450e-02
   7735.16    9.867578e-02
   7735.44    9.899666e-02
   7735.73    9.935866e-02
   7736.02    9.971826e-02
   7736.31    1.000285e-01
   7736.60    1.002520e-01
   7736.89    1.003576e-01
   7737.18    1.003241e-01
   7737.47    1.001434e-01
   7737.76    9.981963e-02
   7738.04    9.936682e-02
   7738.33    9.883300e-02
   7738.62    9.825815e-02
   7738.91    9.768377e-02
   7739.20    9.714886e-02
   7739.49    9.668678e-02
   7739.78    9.633304e-02
   7740.07    9.613915e-02
   7740.36    9.615794e-02
   7740.64    9.617673e-02
   7740.93    9.619552e-02
   7741.22    9.651334e-02
   7741.51    9.692086e-02
   7741.80    9.732839e-02
   7742.09    9.779437e-02
   7742.38    9.839189e-02
   7742.67    9.898940e-02
   7742.96    9.958691e-02
   7743.24    1.001250e-01
   7743.53    1.006524e-01
   7743.82    1.011797e-01
   7744.11    1.015945e-01
   7744.40    1.018294e-01
   7744.69    1.020642e-01
   7744.98    1.022991e-01
   7745.27    1.021611e-01
   7745.56    1.019921e-01
   7745.84    1.018230e-01
   7746.13    1.014774e-01
   7746.42    1.009259e-01
   7746.71    1.003744e-01
   7747.00    9.982287e-02
   7747.29    9.900701e-02
   7747.58    9.819116e-02
   7747.87    9.737530e-02
   7748.16    9.649747e-02
   7748.44    9.556651e-02
   7748.73    9.463555e-02
   7749.02    9.370551e-02
   7749.31    9.278653e-02
   7749.60    9.186755e-02
   7749.89    9.094857e-02
   7750.18    9.008487e-02
   7750.47    8.925572e-02
   7750.76    8.842657e-02
   7751.04    8.761434e-02
   7751.33    8.689522e-02
   7751.62    8.617610e-02
   7751.91    8.545698e-02
   7752.20    8.480370e-02
   7752.49    8.417969e-02
   7752.78    8.355568e-02
   7753.07    8.294726e-02
   7753.36    8.239082e-02
   7753.64    8.183438e-02
   7753.93    8.127794e-02
   7754.22    8.075119e-02
   7754.51    8.023333e-02
   7754.80    7.971548e-02
   7755.09    7.920209e-02
   7755.38    7.869873e-02
   7755.67    7.819537e-02
   7755.96    7.769201e-02
   7756.24    7.718920e-02
   7756.53    7.668649e-02
   7756.82    7.618378e-02
   7757.11    7.568232e-02
   7757.40    7.518286e-02
   7757.69    7.468340e-02
   7757.98    7.418394e-02
   7758.27    7.371156e-02
   7758.56    7.324145e-02
   7758.84    7.277133e-02
   7759.13    7.233768e-02
   7759.42    7.194656e-02
   7759.71    7.155544e-02
   7760.00    7.116432e-02
