 FDMNES
  energy    <xanes>
   7695.00    5.179771e-04
   7695.29    5.236549e-04
   7695.58    5.293326e-04
   7695.87    5.350104e-04
   7696.16    5.409052e-04
   7696.44    5.469859e-04
   7696.73    5.530667e-04
   7697.02    5.591818e-04
   7697.31    5.657086e-04
   7697.60    5.722354e-04
   7697.89    5.787622e-04
   7698.18    5.855938e-04
   7698.47    5.926158e-04
   7698.76    5.996378e-04
   7699.04    6.067447e-04
   7699.33    6.143184e-04
   7699.62    6.218922e-04
   7699.91    6.294660e-04
   7700.20    6.374670e-04
   7700.49    6.456579e-04
   7700.78    6.538488e-04
   7701.07    6.621997e-04
   7701.36    6.710836e-04
   7701.64    6.799676e-04
   7701.93    6.888515e-04
   7702.22    6.983368e-04
   7702.51    7.080025e-04
   7702.80    7.176682e-04
   7703.09    7.276065e-04
   7703.38    7.381581e-04
   7703.67    7.487097e-04
   7703.96    7.592613e-04
   7704.24    7.706668e-04
   7704.53    7.822275e-04
   7704.82    7.937883e-04
   7705.11    8.057936e-04
   7705.40    8.185103e-04
   7705.69    8.312270e-04
   7705.98    8.439437e-04
   7706.27    8.578901e-04
   7706.56    8.719390e-04
   7706.84    8.859878e-04
   7707.13    9.007500e-04
   7707.42    9.163444e-04
   7707.71    9.319387e-04
   7708.00    9.475331e-04
   7708.29    9.649337e-04
   7708.58    9.823342e-04
   7708.87    9.997348e-04
   7709.16    1.018281e-03
   7709.44    1.037810e-03
   7709.73    1.057339e-03
   7710.02    1.077062e-03
   7710.31    1.099121e-03
   7710.60    1.121180e-03
   7710.89    1.143239e-03
   7711.18    1.167167e-03
   7711.47    1.192265e-03
   7711.76    1.217363e-03
   7712.04    1.243029e-03
   7712.33    1.271819e-03
   7712.62    1.300609e-03
   7712.91    1.329398e-03
   7713.20    1.361335e-03
   7713.49    1.394670e-03
   7713.78    1.428004e-03
   7714.07    1.462650e-03
   7714.36    1.501665e-03
   7714.64    1.540680e-03
   7714.93    1.579695e-03
   7715.22    1.624268e-03
   7715.51    1.670509e-03
   7715.80    1.716750e-03
   7716.09    1.765879e-03
   7716.38    1.821508e-03
   7716.67    1.877137e-03
   7716.96    1.932765e-03
   7717.24    1.998982e-03
   7717.53    2.067125e-03
   7717.82    2.135267e-03
   7718.11    2.210033e-03
   7718.40    2.295398e-03
   7718.69    2.380762e-03
   7718.98    2.466127e-03
   7719.27    2.574296e-03
   7719.56    2.684366e-03
   7719.84    2.794436e-03
   7720.13    2.921814e-03
   7720.42    3.069386e-03
   7720.71    3.216958e-03
   7721.00    3.364530e-03
   7721.29    3.573965e-03
   7721.58    3.783400e-03
   7721.87    3.992835e-03
   7722.16    4.265277e-03
   7722.44    4.591725e-03
   7722.73    4.918173e-03
   7723.02    5.266746e-03
   7723.31    5.880824e-03
   7723.60    6.494901e-03
   7723.89    7.108979e-03
   7724.18    8.346313e-03
   7724.47    9.973183e-03
   7724.76    1.160005e-02
   7725.04    1.337057e-02
   7725.33    1.596065e-02
   7725.62    1.859649e-02
   7725.91    2.131720e-02
   7726.20    2.421467e-02
   7726.49    2.745141e-02
   7726.78    3.105125e-02
   7727.07    3.518079e-02
   7727.36    3.988283e-02
   7727.64    4.528698e-02
   7727.93    5.146826e-02
   7728.22    5.842356e-02
   7728.51    6.624377e-02
   7728.80    7.479392e-02
   7729.09    8.420568e-02
   7729.38    9.417374e-02
   7729.67    1.043866e-01
   7729.96    1.142442e-01
   7730.24    1.230335e-01
   7730.53    1.298661e-01
   7730.82    1.343695e-01
   7731.11    1.364450e-01
   7731.40    1.362466e-01
   7731.69    1.341373e-01
   7731.98    1.305980e-01
   7732.27    1.261164e-01
   7732.56    1.212087e-01
   7732.84    1.162914e-01
   7733.13    1.116358e-01
   7733.42    1.074323e-01
   7733.71    1.038011e-01
   7734.00    1.008047e-01
   7734.29    9.853608e-02
   7734.58    9.689449e-02
   7734.87    9.583195e-02
   7735.16    9.528149e-02
   7735.44    9.516024e-02
   7735.73    9.537212e-02
   7736.02    9.581870e-02
   7736.31    9.636907e-02
   7736.60    9.690643e-02
   7736.89    9.733847e-02
   7737.18    9.759520e-02
   7737.47    9.763529e-02
   7737.76    9.744520e-02
   7738.04    9.703222e-02
   7738.33    9.646673e-02
   7738.62    9.580749e-02
   7738.91    9.511574e-02
   7739.20    9.444775e-02
   7739.49    9.384976e-02
   7739.78    9.336584e-02
   7740.07    9.305020e-02
   7740.36    9.295301e-02
   7740.64    9.285581e-02
   7740.93    9.275862e-02
   7741.22    9.293214e-02
   7741.51    9.318688e-02
   7741.80    9.344161e-02
   7742.09    9.372696e-02
   7742.38    9.408119e-02
   7742.67    9.443542e-02
   7742.96    9.478964e-02
   7743.24    9.499823e-02
   7743.53    9.518034e-02
   7743.82    9.536244e-02
   7744.11    9.541166e-02
   7744.40    9.524824e-02
   7744.69    9.508483e-02
   7744.98    9.492141e-02
   7745.27    9.444096e-02
   7745.56    9.393409e-02
   7745.84    9.342721e-02
   7746.13    9.282337e-02
   7746.42    9.210641e-02
   7746.71    9.138944e-02
   7747.00    9.067247e-02
   7747.29    8.990396e-02
   7747.58    8.913545e-02
   7747.87    8.836693e-02
   7748.16    8.762999e-02
   7748.44    8.692011e-02
   7748.73    8.621023e-02
   7749.02    8.550834e-02
   7749.31    8.490226e-02
   7749.60    8.429618e-02
   7749.89    8.369010e-02
   7750.18    8.314554e-02
   7750.47    8.263942e-02
   7750.76    8.213331e-02
   7751.04    8.163790e-02
   7751.33    8.120141e-02
   7751.62    8.076491e-02
   7751.91    8.032842e-02
   7752.20    7.991306e-02
   7752.49    7.950711e-02
   7752.78    7.910116e-02
   7753.07    7.869381e-02
   7753.36    7.828183e-02
   7753.64    7.786984e-02
   7753.93    7.745786e-02
   7754.22    7.702003e-02
   7754.51    7.657446e-02
   7754.80    7.612888e-02
   7755.09    7.566866e-02
   7755.38    7.517547e-02
   7755.67    7.468228e-02
   7755.96    7.418909e-02
   7756.24    7.365863e-02
   7756.53    7.312140e-02
   7756.82    7.258417e-02
   7757.11    7.203952e-02
   7757.40    7.148301e-02
   7757.69    7.092651e-02
   7757.98    7.037000e-02
   7758.27    6.984000e-02
   7758.56    6.931222e-02
   7758.84    6.878443e-02
   7759.13    6.829946e-02
   7759.42    6.786445e-02
   7759.71    6.742945e-02
   7760.00    6.699444e-02
