 FDMNES
  energy    <xanes>
   7695.00    5.042053e-04
   7695.29    5.098352e-04
   7695.58    5.154652e-04
   7695.87    5.210951e-04
   7696.16    5.269428e-04
   7696.44    5.329773e-04
   7696.73    5.390118e-04
   7697.02    5.450808e-04
   7697.31    5.515634e-04
   7697.60    5.580460e-04
   7697.89    5.645286e-04
   7698.18    5.713176e-04
   7698.47    5.782982e-04
   7698.76    5.852788e-04
   7699.04    5.923448e-04
   7699.33    5.998808e-04
   7699.62    6.074169e-04
   7699.91    6.149529e-04
   7700.20    6.229194e-04
   7700.49    6.310773e-04
   7700.78    6.392351e-04
   7701.07    6.475543e-04
   7701.36    6.564113e-04
   7701.64    6.652682e-04
   7701.93    6.741252e-04
   7702.22    6.835894e-04
   7702.51    6.932358e-04
   7702.80    7.028822e-04
   7703.09    7.128042e-04
   7703.38    7.233463e-04
   7703.67    7.338884e-04
   7703.96    7.444305e-04
   7704.24    7.558370e-04
   7704.53    7.674007e-04
   7704.82    7.789644e-04
   7705.11    7.909788e-04
   7705.40    8.037143e-04
   7705.69    8.164498e-04
   7705.98    8.291853e-04
   7706.27    8.431691e-04
   7706.56    8.572569e-04
   7706.84    8.713448e-04
   7707.13    8.861579e-04
   7707.42    9.018170e-04
   7707.71    9.174762e-04
   7708.00    9.331354e-04
   7708.29    9.506340e-04
   7708.58    9.681327e-04
   7708.87    9.856313e-04
   7709.16    1.004299e-03
   7709.44    1.023969e-03
   7709.73    1.043639e-03
   7710.02    1.063507e-03
   7710.31    1.085763e-03
   7710.60    1.108020e-03
   7710.89    1.130276e-03
   7711.18    1.154448e-03
   7711.47    1.179817e-03
   7711.76    1.205186e-03
   7712.04    1.231139e-03
   7712.33    1.260299e-03
   7712.62    1.289459e-03
   7712.91    1.318619e-03
   7713.20    1.351019e-03
   7713.49    1.384858e-03
   7713.78    1.418697e-03
   7714.07    1.453889e-03
   7714.36    1.493592e-03
   7714.64    1.533295e-03
   7714.93    1.572998e-03
   7715.22    1.618458e-03
   7715.51    1.665645e-03
   7715.80    1.712832e-03
   7716.09    1.763021e-03
   7716.38    1.819965e-03
   7716.67    1.876910e-03
   7716.96    1.933854e-03
   7717.24    2.001847e-03
   7717.53    2.071850e-03
   7717.82    2.141852e-03
   7718.11    2.218796e-03
   7718.40    2.306848e-03
   7718.69    2.394899e-03
   7718.98    2.482951e-03
   7719.27    2.595014e-03
   7719.56    2.709077e-03
   7719.84    2.823141e-03
   7720.13    2.955511e-03
   7720.42    3.109238e-03
   7720.71    3.262965e-03
   7721.00    3.416692e-03
   7721.29    3.636051e-03
   7721.58    3.855409e-03
   7721.87    4.074768e-03
   7722.16    4.360846e-03
   7722.44    4.704111e-03
   7722.73    5.047376e-03
   7723.02    5.413681e-03
   7723.31    6.056465e-03
   7723.60    6.699249e-03
   7723.89    7.342033e-03
   7724.18    8.620239e-03
   7724.47    1.029558e-02
   7724.76    1.197093e-02
   7725.04    1.380670e-02
   7725.33    1.660918e-02
   7725.62    1.964015e-02
   7725.91    2.297886e-02
   7726.20    2.668023e-02
   7726.49    3.089797e-02
   7726.78    3.551315e-02
   7727.07    4.050541e-02
   7727.36    4.578830e-02
   7727.64    5.145666e-02
   7727.93    5.771307e-02
   7728.22    6.476592e-02
   7728.51    7.288373e-02
   7728.80    8.191239e-02
   7729.09    9.180732e-02
   7729.38    1.019723e-01
   7729.67    1.116304e-01
   7729.96    1.198894e-01
   7730.24    1.258458e-01
   7730.53    1.288201e-01
   7730.82    1.292683e-01
   7731.11    1.279044e-01
   7731.40    1.254427e-01
   7731.69    1.224423e-01
   7731.98    1.192680e-01
   7732.27    1.161467e-01
   7732.56    1.132249e-01
   7732.84    1.105712e-01
   7733.13    1.082315e-01
   7733.42    1.062300e-01
   7733.71    1.045717e-01
   7734.00    1.032426e-01
   7734.29    1.022383e-01
   7734.58    1.014634e-01
   7734.87    1.008467e-01
   7735.16    1.003091e-01
   7735.44    9.977244e-02
   7735.73    9.916877e-02
   7736.02    9.844002e-02
   7736.31    9.756613e-02
   7736.60    9.656473e-02
   7736.89    9.546999e-02
   7737.18    9.433164e-02
   7737.47    9.320637e-02
   7737.76    9.215190e-02
   7738.04    9.123148e-02
   7738.33    9.047127e-02
   7738.62    8.989335e-02
   7738.91    8.950865e-02
   7739.20    8.931861e-02
   7739.49    8.931726e-02
   7739.78    8.950653e-02
   7740.07    8.988931e-02
   7740.36    9.047202e-02
   7740.64    9.105472e-02
   7740.93    9.163742e-02
   7741.22    9.234404e-02
   7741.51    9.308782e-02
   7741.80    9.383161e-02
   7742.09    9.452469e-02
   7742.38    9.510368e-02
   7742.67    9.568267e-02
   7742.96    9.626166e-02
   7743.24    9.651085e-02
   7743.53    9.670008e-02
   7743.82    9.688931e-02
   7744.11    9.690717e-02
   7744.40    9.665086e-02
   7744.69    9.639455e-02
   7744.98    9.613824e-02
   7745.27    9.555325e-02
   7745.56    9.494087e-02
   7745.84    9.432848e-02
   7746.13    9.362104e-02
   7746.42    9.280269e-02
   7746.71    9.198434e-02
   7747.00    9.116599e-02
   7747.29    9.028161e-02
   7747.58    8.939723e-02
   7747.87    8.851285e-02
   7748.16    8.764289e-02
   7748.44    8.678528e-02
   7748.73    8.592767e-02
   7749.02    8.507516e-02
   7749.31    8.428391e-02
   7749.60    8.349266e-02
   7749.89    8.270140e-02
   7750.18    8.195186e-02
   7750.47    8.122837e-02
   7750.76    8.050489e-02
   7751.04    7.978927e-02
   7751.33    7.911691e-02
   7751.62    7.844455e-02
   7751.91    7.777220e-02
   7752.20    7.712130e-02
   7752.49    7.647994e-02
   7752.78    7.583857e-02
   7753.07    7.520082e-02
   7753.36    7.457509e-02
   7753.64    7.394935e-02
   7753.93    7.332362e-02
   7754.22    7.270508e-02
   7754.51    7.208870e-02
   7754.80    7.147232e-02
   7755.09    7.085990e-02
   7755.38    7.025643e-02
   7755.67    6.965295e-02
   7755.96    6.904947e-02
   7756.24    6.846685e-02
   7756.53    6.788801e-02
   7756.82    6.730918e-02
   7757.11    6.674701e-02
   7757.40    6.621149e-02
   7757.69    6.567597e-02
   7757.98    6.514044e-02
   7758.27    6.466893e-02
   7758.56    6.420275e-02
   7758.84    6.373657e-02
   7759.13    6.331640e-02
   7759.42    6.294990e-02
   7759.71    6.258340e-02
   7760.00    6.221690e-02
