 FDMNES
  energy    <xanes>
   7695.00    5.280351e-04
   7695.29    5.336367e-04
   7695.58    5.392384e-04
   7695.87    5.448401e-04
   7696.16    5.506513e-04
   7696.44    5.566420e-04
   7696.73    5.626328e-04
   7697.02    5.686566e-04
   7697.31    5.750774e-04
   7697.60    5.814982e-04
   7697.89    5.879190e-04
   7698.18    5.946332e-04
   7698.47    6.015309e-04
   7698.76    6.084285e-04
   7699.04    6.154078e-04
   7699.33    6.228362e-04
   7699.62    6.302645e-04
   7699.91    6.376929e-04
   7700.20    6.455317e-04
   7700.49    6.535529e-04
   7700.78    6.615741e-04
   7701.07    6.697489e-04
   7701.36    6.784352e-04
   7701.64    6.871215e-04
   7701.93    6.958078e-04
   7702.22    7.050705e-04
   7702.51    7.145061e-04
   7702.80    7.239418e-04
   7703.09    7.336384e-04
   7703.38    7.439225e-04
   7703.67    7.542065e-04
   7703.96    7.644905e-04
   7704.24    7.755915e-04
   7704.53    7.868411e-04
   7704.82    7.980907e-04
   7705.11    8.097653e-04
   7705.40    8.221200e-04
   7705.69    8.344746e-04
   7705.98    8.468293e-04
   7706.27    8.603589e-04
   7706.56    8.739865e-04
   7706.84    8.876140e-04
   7707.13    9.019228e-04
   7707.42    9.170263e-04
   7707.71    9.321299e-04
   7708.00    9.472335e-04
   7708.29    9.640619e-04
   7708.58    9.808904e-04
   7708.87    9.977188e-04
   7709.16    1.015642e-03
   7709.44    1.034503e-03
   7709.73    1.053364e-03
   7710.02    1.072411e-03
   7710.31    1.093690e-03
   7710.60    1.114969e-03
   7710.89    1.136248e-03
   7711.18    1.159317e-03
   7711.47    1.183504e-03
   7711.76    1.207691e-03
   7712.04    1.232422e-03
   7712.33    1.260149e-03
   7712.62    1.287875e-03
   7712.91    1.315601e-03
   7713.20    1.346353e-03
   7713.49    1.378448e-03
   7713.78    1.410543e-03
   7714.07    1.443904e-03
   7714.36    1.481481e-03
   7714.64    1.519058e-03
   7714.93    1.556635e-03
   7715.22    1.599606e-03
   7715.51    1.644195e-03
   7715.80    1.688785e-03
   7716.09    1.736198e-03
   7716.38    1.789967e-03
   7716.67    1.843736e-03
   7716.96    1.897505e-03
   7717.24    1.961736e-03
   7717.53    2.027869e-03
   7717.82    2.094002e-03
   7718.11    2.166774e-03
   7718.40    2.250170e-03
   7718.69    2.333565e-03
   7718.98    2.416960e-03
   7719.27    2.523673e-03
   7719.56    2.632328e-03
   7719.84    2.740984e-03
   7720.13    2.867839e-03
   7720.42    3.015927e-03
   7720.71    3.164014e-03
   7721.00    3.312102e-03
   7721.29    3.527882e-03
   7721.58    3.743662e-03
   7721.87    3.959442e-03
   7722.16    4.248240e-03
   7722.44    4.599624e-03
   7722.73    4.951008e-03
   7723.02    5.330152e-03
   7723.31    6.042412e-03
   7723.60    6.754672e-03
   7723.89    7.466932e-03
   7724.18    9.023454e-03
   7724.47    1.110764e-02
   7724.76    1.319182e-02
   7725.04    1.547396e-02
   7725.33    1.887851e-02
   7725.62    2.231175e-02
   7725.91    2.577102e-02
   7726.20    2.929811e-02
   7726.49    3.282206e-02
   7726.78    3.618315e-02
   7727.07    3.925608e-02
   7727.36    4.224764e-02
   7727.64    4.562909e-02
   7727.93    4.988061e-02
   7728.22    5.524593e-02
   7728.51    6.193354e-02
   7728.80    6.965039e-02
   7729.09    7.824667e-02
   7729.38    8.700791e-02
   7729.67    9.509157e-02
   7729.96    1.017330e-01
   7730.24    1.062427e-01
   7730.53    1.081169e-01
   7730.82    1.077671e-01
   7731.11    1.058241e-01
   7731.40    1.029804e-01
   7731.69    9.982714e-02
   7731.98    9.676093e-02
   7732.27    9.401440e-02
   7732.56    9.168050e-02
   7732.84    8.974043e-02
   7733.13    8.817738e-02
   7733.42    8.697222e-02
   7733.71    8.610922e-02
   7734.00    8.557740e-02
   7734.29    8.540781e-02
   7734.58    8.555475e-02
   7734.87    8.600636e-02
   7735.16    8.674206e-02
   7735.44    8.773048e-02
   7735.73    8.892895e-02
   7736.02    9.029108e-02
   7736.31    9.174480e-02
   7736.60    9.322060e-02
   7736.89    9.466173e-02
   7737.18    9.602215e-02
   7737.47    9.727061e-02
   7737.76    9.839010e-02
   7738.04    9.937195e-02
   7738.33    1.002441e-01
   7738.62    1.010274e-01
   7738.91    1.017442e-01
   7739.20    1.024154e-01
   7739.49    1.030582e-01
   7739.78    1.036837e-01
   7740.07    1.042931e-01
   7740.36    1.048759e-01
   7740.64    1.054587e-01
   7740.93    1.060415e-01
   7741.22    1.065044e-01
   7741.51    1.069314e-01
   7741.80    1.073583e-01
   7742.09    1.076880e-01
   7742.38    1.077989e-01
   7742.67    1.079098e-01
   7742.96    1.080207e-01
   7743.24    1.077832e-01
   7743.53    1.074822e-01
   7743.82    1.071813e-01
   7744.11    1.067306e-01
   7744.40    1.060402e-01
   7744.69    1.053498e-01
   7744.98    1.046594e-01
   7745.27    1.037205e-01
   7745.56    1.027608e-01
   7745.84    1.018011e-01
   7746.13    1.007913e-01
   7746.42    9.972301e-02
   7746.71    9.865472e-02
   7747.00    9.758643e-02
   7747.29    9.655154e-02
   7747.58    9.551664e-02
   7747.87    9.448174e-02
   7748.16    9.351168e-02
   7748.44    9.259719e-02
   7748.73    9.168270e-02
   7749.02    9.077973e-02
   7749.31    9.001506e-02
   7749.60    8.925039e-02
   7749.89    8.848571e-02
   7750.18    8.780657e-02
   7750.47    8.718088e-02
   7750.76    8.655519e-02
   7751.04    8.594583e-02
   7751.33    8.542628e-02
   7751.62    8.490673e-02
   7751.91    8.438718e-02
   7752.20    8.391263e-02
   7752.49    8.345807e-02
   7752.78    8.300352e-02
   7753.07    8.255525e-02
   7753.36    8.212792e-02
   7753.64    8.170059e-02
   7753.93    8.127326e-02
   7754.22    8.084535e-02
   7754.51    8.041726e-02
   7754.80    7.998916e-02
   7755.09    7.955600e-02
   7755.38    7.911140e-02
   7755.67    7.866681e-02
   7755.96    7.822222e-02
   7756.24    7.776210e-02
   7756.53    7.729916e-02
   7756.82    7.683621e-02
   7757.11    7.637158e-02
   7757.40    7.590425e-02
   7757.69    7.543692e-02
   7757.98    7.496959e-02
   7758.27    7.452810e-02
   7758.56    7.408876e-02
   7758.84    7.364942e-02
   7759.13    7.324533e-02
   7759.42    7.288238e-02
   7759.71    7.251942e-02
   7760.00    7.215647e-02
