 FDMNES
  energy    <xanes>
   7695.00    5.233764e-04
   7695.29    5.291667e-04
   7695.58    5.349569e-04
   7695.87    5.407471e-04
   7696.16    5.467609e-04
   7696.44    5.529665e-04
   7696.73    5.591720e-04
   7697.02    5.654129e-04
   7697.31    5.720786e-04
   7697.60    5.787443e-04
   7697.89    5.854099e-04
   7698.18    5.923904e-04
   7698.47    5.995676e-04
   7698.76    6.067447e-04
   7699.04    6.140097e-04
   7699.33    6.217576e-04
   7699.62    6.295055e-04
   7699.91    6.372534e-04
   7700.20    6.454438e-04
   7700.49    6.538309e-04
   7700.78    6.622180e-04
   7701.07    6.707710e-04
   7701.36    6.798771e-04
   7701.64    6.889832e-04
   7701.93    6.980893e-04
   7702.22    7.078203e-04
   7702.51    7.177388e-04
   7702.80    7.276573e-04
   7703.09    7.378596e-04
   7703.38    7.487005e-04
   7703.67    7.595415e-04
   7703.96    7.703824e-04
   7704.24    7.821142e-04
   7704.53    7.940080e-04
   7704.82    8.059018e-04
   7705.11    8.182606e-04
   7705.40    8.313633e-04
   7705.69    8.444660e-04
   7705.98    8.575687e-04
   7706.27    8.719606e-04
   7706.56    8.864600e-04
   7706.84    9.009595e-04
   7707.13    9.162089e-04
   7707.42    9.323334e-04
   7707.71    9.484579e-04
   7708.00    9.645823e-04
   7708.29    9.826122e-04
   7708.58    1.000642e-03
   7708.87    1.018672e-03
   7709.16    1.037915e-03
   7709.44    1.058198e-03
   7709.73    1.078481e-03
   7710.02    1.098971e-03
   7710.31    1.121944e-03
   7710.60    1.144917e-03
   7710.89    1.167890e-03
   7711.18    1.192861e-03
   7711.47    1.219081e-03
   7711.76    1.245300e-03
   7712.04    1.272130e-03
   7712.33    1.302316e-03
   7712.62    1.332502e-03
   7712.91    1.362689e-03
   7713.20    1.396278e-03
   7713.49    1.431379e-03
   7713.78    1.466480e-03
   7714.07    1.503010e-03
   7714.36    1.544302e-03
   7714.64    1.585594e-03
   7714.93    1.626887e-03
   7715.22    1.674295e-03
   7715.51    1.723538e-03
   7715.80    1.772781e-03
   7716.09    1.825240e-03
   7716.38    1.884934e-03
   7716.67    1.944629e-03
   7716.96    2.004323e-03
   7717.24    2.075980e-03
   7717.53    2.149811e-03
   7717.82    2.223642e-03
   7718.11    2.305100e-03
   7718.40    2.398761e-03
   7718.69    2.492421e-03
   7718.98    2.586082e-03
   7719.27    2.706672e-03
   7719.56    2.829507e-03
   7719.84    2.952341e-03
   7720.13    3.096346e-03
   7720.42    3.265048e-03
   7720.71    3.433751e-03
   7721.00    3.602454e-03
   7721.29    3.850789e-03
   7721.58    4.099125e-03
   7721.87    4.347460e-03
   7722.16    4.683511e-03
   7722.44    5.094746e-03
   7722.73    5.505981e-03
   7723.02    5.952007e-03
   7723.31    6.815531e-03
   7723.60    7.679055e-03
   7723.89    8.542578e-03
   7724.18    1.051256e-02
   7724.47    1.317408e-02
   7724.76    1.583560e-02
   7725.04    1.872429e-02
   7725.33    2.272432e-02
   7725.62    2.607575e-02
   7725.91    2.867654e-02
   7726.20    3.107902e-02
   7726.49    3.379190e-02
   7726.78    3.699417e-02
   7727.07    4.086108e-02
   7727.36    4.538141e-02
   7727.64    5.069520e-02
   7727.93    5.694589e-02
   7728.22    6.421703e-02
   7728.51    7.269101e-02
   7728.80    8.213648e-02
   7729.09    9.247049e-02
   7729.38    1.030129e-01
   7729.67    1.128633e-01
   7729.96    1.211340e-01
   7730.24    1.270706e-01
   7730.53    1.302435e-01
   7730.82    1.311657e-01
   7731.11    1.303934e-01
   7731.40    1.283971e-01
   7731.69    1.255339e-01
   7731.98    1.220777e-01
   7732.27    1.182551e-01
   7732.56    1.143076e-01
   7732.84    1.104467e-01
   7733.13    1.068357e-01
   7733.42    1.036047e-01
   7733.71    1.008440e-01
   7734.00    9.860336e-02
   7734.29    9.695881e-02
   7734.58    9.582516e-02
   7734.87    9.515712e-02
   7735.16    9.489034e-02
   7735.44    9.494514e-02
   7735.73    9.523107e-02
   7736.02    9.565532e-02
   7736.31    9.611037e-02
   7736.60    9.651207e-02
   7736.89    9.680215e-02
   7737.18    9.694625e-02
   7737.47    9.693468e-02
   7737.76    9.677770e-02
   7738.04    9.649904e-02
   7738.33    9.615237e-02
   7738.62    9.577828e-02
   7738.91    9.541381e-02
   7739.20    9.508945e-02
   7739.49    9.482766e-02
   7739.78    9.464942e-02
   7740.07    9.457708e-02
   7740.36    9.462955e-02
   7740.64    9.468202e-02
   7740.93    9.473448e-02
   7741.22    9.489375e-02
   7741.51    9.508507e-02
   7741.80    9.527638e-02
   7742.09    9.544574e-02
   7742.38    9.556569e-02
   7742.67    9.568564e-02
   7742.96    9.580560e-02
   7743.24    9.572333e-02
   7743.53    9.560429e-02
   7743.82    9.548525e-02
   7744.11    9.525600e-02
   7744.40    9.485043e-02
   7744.69    9.444486e-02
   7744.98    9.403929e-02
   7745.27    9.343147e-02
   7745.56    9.280680e-02
   7745.84    9.218212e-02
   7746.13    9.151030e-02
   7746.42    9.078347e-02
   7746.71    9.005665e-02
   7747.00    8.932982e-02
   7747.29    8.861169e-02
   7747.58    8.789357e-02
   7747.87    8.717544e-02
   7748.16    8.650311e-02
   7748.44    8.587004e-02
   7748.73    8.523697e-02
   7749.02    8.461282e-02
   7749.31    8.409581e-02
   7749.60    8.357880e-02
   7749.89    8.306179e-02
   7750.18    8.261004e-02
   7750.47    8.219909e-02
   7750.76    8.178814e-02
   7751.04    8.138791e-02
   7751.33    8.104661e-02
   7751.62    8.070531e-02
   7751.91    8.036402e-02
   7752.20    8.003853e-02
   7752.49    7.972008e-02
   7752.78    7.940163e-02
   7753.07    7.907803e-02
   7753.36    7.873726e-02
   7753.64    7.839650e-02
   7753.93    7.805574e-02
   7754.22    7.767063e-02
   7754.51    7.727222e-02
   7754.80    7.687381e-02
   7755.09    7.645177e-02
   7755.38    7.597656e-02
   7755.67    7.550135e-02
   7755.96    7.502614e-02
   7756.24    7.448815e-02
   7756.53    7.393875e-02
   7756.82    7.338935e-02
   7757.11    7.282260e-02
   7757.40    7.222806e-02
   7757.69    7.163353e-02
   7757.98    7.103900e-02
   7758.27    7.045684e-02
   7758.56    6.987571e-02
   7758.84    6.929458e-02
   7759.13    6.875688e-02
   7759.42    6.826984e-02
   7759.71    6.778280e-02
   7760.00    6.729576e-02
