 FDMNES
  energy    <xanes>
   7695.00    5.052130e-04
   7695.29    5.108147e-04
   7695.58    5.164165e-04
   7695.87    5.220182e-04
   7696.16    5.278351e-04
   7696.44    5.338364e-04
   7696.73    5.398377e-04
   7697.02    5.458730e-04
   7697.31    5.523166e-04
   7697.60    5.587602e-04
   7697.89    5.652038e-04
   7698.18    5.719496e-04
   7698.47    5.788844e-04
   7698.76    5.858191e-04
   7699.04    5.928381e-04
   7699.33    6.003203e-04
   7699.62    6.078025e-04
   7699.91    6.152846e-04
   7700.20    6.231908e-04
   7700.49    6.312853e-04
   7700.78    6.393799e-04
   7701.07    6.476332e-04
   7701.36    6.564157e-04
   7701.64    6.651982e-04
   7701.93    6.739806e-04
   7702.22    6.833601e-04
   7702.51    6.929187e-04
   7702.80    7.024773e-04
   7703.09    7.123066e-04
   7703.38    7.227450e-04
   7703.67    7.331834e-04
   7703.96    7.436219e-04
   7704.24    7.549085e-04
   7704.53    7.663495e-04
   7704.82    7.777904e-04
   7705.11    7.896731e-04
   7705.40    8.022628e-04
   7705.69    8.148524e-04
   7705.98    8.274421e-04
   7706.27    8.412542e-04
   7706.56    8.551682e-04
   7706.84    8.690822e-04
   7707.13    8.837056e-04
   7707.42    8.991567e-04
   7707.71    9.146078e-04
   7708.00    9.300589e-04
   7708.29    9.473073e-04
   7708.58    9.645556e-04
   7708.87    9.818040e-04
   7709.16    1.000193e-03
   7709.44    1.019560e-03
   7709.73    1.038927e-03
   7710.02    1.058488e-03
   7710.31    1.080376e-03
   7710.60    1.102264e-03
   7710.89    1.124152e-03
   7711.18    1.147904e-03
   7711.47    1.172822e-03
   7711.76    1.197740e-03
   7712.04    1.223225e-03
   7712.33    1.251827e-03
   7712.62    1.280430e-03
   7712.91    1.309033e-03
   7713.20    1.340779e-03
   7713.49    1.373923e-03
   7713.78    1.407067e-03
   7714.07    1.441522e-03
   7714.36    1.480350e-03
   7714.64    1.519177e-03
   7714.93    1.558005e-03
   7715.22    1.602403e-03
   7715.51    1.648474e-03
   7715.80    1.694544e-03
   7716.09    1.743516e-03
   7716.38    1.799018e-03
   7716.67    1.854519e-03
   7716.96    1.910020e-03
   7717.24    1.976188e-03
   7717.53    2.044296e-03
   7717.82    2.112403e-03
   7718.11    2.187207e-03
   7718.40    2.272724e-03
   7718.69    2.358242e-03
   7718.98    2.443759e-03
   7719.27    2.552434e-03
   7719.56    2.663037e-03
   7719.84    2.773641e-03
   7720.13    2.901917e-03
   7720.42    3.050811e-03
   7720.71    3.199705e-03
   7721.00    3.348599e-03
   7721.29    3.561064e-03
   7721.58    3.773529e-03
   7721.87    3.985994e-03
   7722.16    4.263600e-03
   7722.44    4.597041e-03
   7722.73    4.930482e-03
   7723.02    5.286806e-03
   7723.31    5.917721e-03
   7723.60    6.548636e-03
   7723.89    7.179550e-03
   7724.18    8.454226e-03
   7724.47    1.013125e-02
   7724.76    1.180828e-02
   7725.04    1.364459e-02
   7725.33    1.642996e-02
   7725.62    1.941118e-02
   7725.91    2.266202e-02
   7726.20    2.619827e-02
   7726.49    2.999996e-02
   7726.78    3.388228e-02
   7727.07    3.786801e-02
   7727.36    4.217193e-02
   7727.64    4.714463e-02
   7727.93    5.303936e-02
   7728.22    5.995008e-02
   7728.51    6.803170e-02
   7728.80    7.702552e-02
   7729.09    8.676917e-02
   7729.38    9.655594e-02
   7729.67    1.054832e-01
   7729.96    1.128279e-01
   7730.24    1.180359e-01
   7730.53    1.208152e-01
   7730.82    1.216537e-01
   7731.11    1.210922e-01
   7731.40    1.196297e-01
   7731.69    1.176586e-01
   7731.98    1.154430e-01
   7732.27    1.131462e-01
   7732.56    1.108783e-01
   7732.84    1.087090e-01
   7733.13    1.066973e-01
   7733.42    1.048985e-01
   7733.71    1.033601e-01
   7734.00    1.021163e-01
   7734.29    1.012225e-01
   7734.58    1.006378e-01
   7734.87    1.003380e-01
   7735.16    1.002815e-01
   7735.44    1.004107e-01
   7735.73    1.006557e-01
   7736.02    1.009361e-01
   7736.31    1.011621e-01
   7736.60    1.012653e-01
   7736.89    1.011964e-01
   7737.18    1.009300e-01
   7737.47    1.004668e-01
   7737.76    9.982957e-02
   7738.04    9.905715e-02
   7738.33    9.822116e-02
   7738.62    9.737644e-02
   7738.91    9.657218e-02
   7739.20    9.584824e-02
   7739.49    9.523351e-02
   7739.78    9.475726e-02
   7740.07    9.445753e-02
   7740.36    9.437324e-02
   7740.64    9.428895e-02
   7740.93    9.420465e-02
   7741.22    9.437581e-02
   7741.51    9.462360e-02
   7741.80    9.487140e-02
   7742.09    9.515313e-02
   7742.38    9.551123e-02
   7742.67    9.586933e-02
   7742.96    9.622742e-02
   7743.24    9.647545e-02
   7743.53    9.670346e-02
   7743.82    9.693146e-02
   7744.11    9.703867e-02
   7744.40    9.695261e-02
   7744.69    9.686654e-02
   7744.98    9.678048e-02
   7745.27    9.636182e-02
   7745.56    9.591545e-02
   7745.84    9.546907e-02
   7746.13    9.489808e-02
   7746.42    9.418171e-02
   7746.71    9.346533e-02
   7747.00    9.274895e-02
   7747.29    9.191242e-02
   7747.58    9.107589e-02
   7747.87    9.023937e-02
   7748.16    8.940678e-02
   7748.44    8.857758e-02
   7748.73    8.774838e-02
   7749.02    8.692483e-02
   7749.31    8.616919e-02
   7749.60    8.541354e-02
   7749.89    8.465790e-02
   7750.18    8.395363e-02
   7750.47    8.328148e-02
   7750.76    8.260932e-02
   7751.04    8.194659e-02
   7751.33    8.133566e-02
   7751.62    8.072473e-02
   7751.91    8.011380e-02
   7752.20    7.952258e-02
   7752.49    7.894013e-02
   7752.78    7.835767e-02
   7753.07    7.777483e-02
   7753.36    7.719069e-02
   7753.64    7.660656e-02
   7753.93    7.602243e-02
   7754.22    7.542105e-02
   7754.51    7.481450e-02
   7754.80    7.420795e-02
   7755.09    7.359239e-02
   7755.38    7.295653e-02
   7755.67    7.232067e-02
   7755.96    7.168481e-02
   7756.24    7.103281e-02
   7756.53    7.037787e-02
   7756.82    6.972294e-02
   7757.11    6.907194e-02
   7757.40    6.842725e-02
   7757.69    6.778256e-02
   7757.98    6.713788e-02
   7758.27    6.654686e-02
   7758.56    6.596032e-02
   7758.84    6.537378e-02
   7759.13    6.484049e-02
   7759.42    6.436931e-02
   7759.71    6.389813e-02
   7760.00    6.342695e-02
