 FDMNES
  energy    <xanes>
   7695.00    5.273155e-04
   7695.29    5.329110e-04
   7695.58    5.385065e-04
   7695.87    5.441020e-04
   7696.16    5.499066e-04
   7696.44    5.558903e-04
   7696.73    5.618740e-04
   7697.02    5.678908e-04
   7697.31    5.743035e-04
   7697.60    5.807162e-04
   7697.89    5.871289e-04
   7698.18    5.938343e-04
   7698.47    6.007226e-04
   7698.76    6.076109e-04
   7699.04    6.145806e-04
   7699.33    6.219979e-04
   7699.62    6.294153e-04
   7699.91    6.368326e-04
   7700.20    6.446589e-04
   7700.49    6.526670e-04
   7700.78    6.606751e-04
   7701.07    6.688361e-04
   7701.36    6.775065e-04
   7701.64    6.861770e-04
   7701.93    6.948474e-04
   7702.22    7.040916e-04
   7702.51    7.135078e-04
   7702.80    7.229241e-04
   7703.09    7.326000e-04
   7703.38    7.428601e-04
   7703.67    7.531203e-04
   7703.96    7.633804e-04
   7704.24    7.744524e-04
   7704.53    7.856720e-04
   7704.82    7.968917e-04
   7705.11    8.085333e-04
   7705.40    8.208502e-04
   7705.69    8.331671e-04
   7705.98    8.454840e-04
   7706.27    8.589661e-04
   7706.56    8.725454e-04
   7706.84    8.861246e-04
   7707.13    9.003786e-04
   7707.42    9.154197e-04
   7707.71    9.304609e-04
   7708.00    9.455021e-04
   7708.29    9.622490e-04
   7708.58    9.789959e-04
   7708.87    9.957428e-04
   7709.16    1.013570e-03
   7709.44    1.032323e-03
   7709.73    1.051077e-03
   7710.02    1.070013e-03
   7710.31    1.091148e-03
   7710.60    1.112283e-03
   7710.89    1.133418e-03
   7711.18    1.156311e-03
   7711.47    1.180302e-03
   7711.76    1.204294e-03
   7712.04    1.228818e-03
   7712.33    1.256276e-03
   7712.62    1.283733e-03
   7712.91    1.311191e-03
   7713.20    1.341599e-03
   7713.49    1.373318e-03
   7713.78    1.405038e-03
   7714.07    1.437986e-03
   7714.36    1.475028e-03
   7714.64    1.512070e-03
   7714.93    1.549112e-03
   7715.22    1.591362e-03
   7715.51    1.635174e-03
   7715.80    1.678985e-03
   7716.09    1.725505e-03
   7716.38    1.778115e-03
   7716.67    1.830725e-03
   7716.96    1.883336e-03
   7717.24    1.945883e-03
   7717.53    2.010238e-03
   7717.82    2.074592e-03
   7718.11    2.145180e-03
   7718.40    2.225741e-03
   7718.69    2.306303e-03
   7718.98    2.386864e-03
   7719.27    2.488990e-03
   7719.56    2.592912e-03
   7719.84    2.696834e-03
   7720.13    2.817254e-03
   7720.42    2.956921e-03
   7720.71    3.096588e-03
   7721.00    3.236255e-03
   7721.29    3.435665e-03
   7721.58    3.635075e-03
   7721.87    3.834485e-03
   7722.16    4.096094e-03
   7722.44    4.411016e-03
   7722.73    4.725937e-03
   7723.02    5.063521e-03
   7723.31    5.673045e-03
   7723.60    6.282570e-03
   7723.89    6.892094e-03
   7724.18    8.162046e-03
   7724.47    9.844766e-03
   7724.76    1.152748e-02
   7725.04    1.335330e-02
   7725.33    1.596118e-02
   7725.62    1.850384e-02
   7725.91    2.102481e-02
   7726.20    2.366788e-02
   7726.49    2.662695e-02
   7726.78    2.995893e-02
   7727.07    3.385308e-02
   7727.36    3.835546e-02
   7727.64    4.358153e-02
   7727.93    4.955365e-02
   7728.22    5.616553e-02
   7728.51    6.330332e-02
   7728.80    7.067732e-02
   7729.09    7.809662e-02
   7729.38    8.541784e-02
   7729.67    9.250839e-02
   7729.96    9.920877e-02
   7730.24    1.051527e-01
   7730.53    1.096800e-01
   7730.82    1.124157e-01
   7731.11    1.132776e-01
   7731.40    1.125170e-01
   7731.69    1.106116e-01
   7731.98    1.080726e-01
   7732.27    1.053173e-01
   7732.56    1.026475e-01
   7732.84    1.002167e-01
   7733.13    9.811021e-02
   7733.42    9.637897e-02
   7733.71    9.504821e-02
   7734.00    9.412198e-02
   7734.29    9.362833e-02
   7734.58    9.348483e-02
   7734.87    9.364573e-02
   7735.16    9.405734e-02
   7735.44    9.466061e-02
   7735.73    9.539321e-02
   7736.02    9.619131e-02
   7736.31    9.698185e-02
   7736.60    9.770416e-02
   7736.89    9.830871e-02
   7737.18    9.875801e-02
   7737.47    9.902981e-02
   7737.76    9.911592e-02
   7738.04    9.901668e-02
   7738.33    9.878007e-02
   7738.62    9.844477e-02
   7738.91    9.805410e-02
   7739.20    9.765152e-02
   7739.49    9.727682e-02
   7739.78    9.697077e-02
   7740.07    9.679317e-02
   7740.36    9.680420e-02
   7740.64    9.681523e-02
   7740.93    9.682626e-02
   7741.22    9.714416e-02
   7741.51    9.755413e-02
   7741.80    9.796409e-02
   7742.09    9.844520e-02
   7742.38    9.908635e-02
   7742.67    9.972750e-02
   7742.96    1.003687e-01
   7743.24    1.009470e-01
   7743.53    1.015140e-01
   7743.82    1.020809e-01
   7744.11    1.024951e-01
   7744.40    1.026650e-01
   7744.69    1.028348e-01
   7744.98    1.030047e-01
   7745.27    1.026556e-01
   7745.56    1.022632e-01
   7745.84    1.018708e-01
   7746.13    1.012638e-01
   7746.42    1.004063e-01
   7746.71    9.954887e-02
   7747.00    9.869141e-02
   7747.29    9.762448e-02
   7747.58    9.655755e-02
   7747.87    9.549063e-02
   7748.16    9.443377e-02
   7748.44    9.338553e-02
   7748.73    9.233730e-02
   7749.02    9.129958e-02
   7749.31    9.038816e-02
   7749.60    8.947673e-02
   7749.89    8.856530e-02
   7750.18    8.775394e-02
   7750.47    8.700513e-02
   7750.76    8.625631e-02
   7751.04    8.552834e-02
   7751.33    8.491501e-02
   7751.62    8.430168e-02
   7751.91    8.368836e-02
   7752.20    8.313904e-02
   7752.49    8.261818e-02
   7752.78    8.209731e-02
   7753.07    8.158881e-02
   7753.36    8.112151e-02
   7753.64    8.065421e-02
   7753.93    8.018691e-02
   7754.22    7.973885e-02
   7754.51    7.929656e-02
   7754.80    7.885427e-02
   7755.09    7.841455e-02
   7755.38    7.798061e-02
   7755.67    7.754667e-02
   7755.96    7.711273e-02
   7756.24    7.668210e-02
   7756.53    7.625207e-02
   7756.82    7.582204e-02
   7757.11    7.539672e-02
   7757.40    7.497893e-02
   7757.69    7.456115e-02
   7757.98    7.414336e-02
   7758.27    7.375769e-02
   7758.56    7.337470e-02
   7758.84    7.299171e-02
   7759.13    7.264109e-02
   7759.42    7.232823e-02
   7759.71    7.201538e-02
   7760.00    7.170252e-02
