 FDMNES
  energy    <xanes>
   7695.00    5.183768e-04
   7695.29    5.240697e-04
   7695.58    5.297626e-04
   7695.87    5.354555e-04
   7696.16    5.413669e-04
   7696.44    5.474656e-04
   7696.73    5.535642e-04
   7697.02    5.596975e-04
   7697.31    5.662454e-04
   7697.60    5.727934e-04
   7697.89    5.793414e-04
   7698.18    5.861965e-04
   7698.47    5.932437e-04
   7698.76    6.002908e-04
   7699.04    6.074236e-04
   7699.33    6.150273e-04
   7699.62    6.226310e-04
   7699.91    6.302347e-04
   7700.20    6.382696e-04
   7700.49    6.464963e-04
   7700.78    6.547230e-04
   7701.07    6.631112e-04
   7701.36    6.720380e-04
   7701.64    6.809649e-04
   7701.93    6.898917e-04
   7702.22    6.994267e-04
   7702.51    7.091440e-04
   7702.80    7.188613e-04
   7703.09    7.288546e-04
   7703.38    7.394687e-04
   7703.67    7.500828e-04
   7703.96    7.606970e-04
   7704.24    7.721764e-04
   7704.53    7.838133e-04
   7704.82    7.954501e-04
   7705.11    8.075380e-04
   7705.40    8.203478e-04
   7705.69    8.331576e-04
   7705.98    8.459674e-04
   7706.27    8.600267e-04
   7706.56    8.741902e-04
   7706.84    8.883537e-04
   7707.13    9.032432e-04
   7707.42    9.189798e-04
   7707.71    9.347163e-04
   7708.00    9.504528e-04
   7708.29    9.680312e-04
   7708.58    9.856095e-04
   7708.87    1.003188e-03
   7709.16    1.021937e-03
   7709.44    1.041690e-03
   7709.73    1.061443e-03
   7710.02    1.081395e-03
   7710.31    1.103740e-03
   7710.60    1.126084e-03
   7710.89    1.148429e-03
   7711.18    1.172694e-03
   7711.47    1.198160e-03
   7711.76    1.223626e-03
   7712.04    1.249677e-03
   7712.33    1.278947e-03
   7712.62    1.308217e-03
   7712.91    1.337487e-03
   7713.20    1.370012e-03
   7713.49    1.403983e-03
   7713.78    1.437954e-03
   7714.07    1.473286e-03
   7714.36    1.513157e-03
   7714.64    1.553029e-03
   7714.93    1.592900e-03
   7715.22    1.638575e-03
   7715.51    1.685992e-03
   7715.80    1.733409e-03
   7716.09    1.783861e-03
   7716.38    1.841142e-03
   7716.67    1.898423e-03
   7716.96    1.955704e-03
   7717.24    2.024196e-03
   7717.53    2.094726e-03
   7717.82    2.165255e-03
   7718.11    2.242863e-03
   7718.40    2.331797e-03
   7718.69    2.420730e-03
   7718.98    2.509664e-03
   7719.27    2.623250e-03
   7719.56    2.738891e-03
   7719.84    2.854532e-03
   7720.13    2.989159e-03
   7720.42    3.145938e-03
   7720.71    3.302716e-03
   7721.00    3.459495e-03
   7721.29    3.685423e-03
   7721.58    3.911352e-03
   7721.87    4.137280e-03
   7722.16    4.435387e-03
   7722.44    4.795362e-03
   7722.73    5.155336e-03
   7723.02    5.541469e-03
   7723.31    6.241497e-03
   7723.60    6.941526e-03
   7723.89    7.641554e-03
   7724.18    9.095637e-03
   7724.47    1.102100e-02
   7724.76    1.294637e-02
   7725.04    1.504032e-02
   7725.33    1.808373e-02
   7725.62    2.115676e-02
   7725.91    2.433466e-02
   7726.20    2.773578e-02
   7726.49    3.157038e-02
   7726.78    3.590486e-02
   7727.07    4.101135e-02
   7727.36    4.690781e-02
   7727.64    5.354129e-02
   7727.93    6.061547e-02
   7728.22    6.782832e-02
   7728.51    7.521895e-02
   7728.80    8.302080e-02
   7729.09    9.155645e-02
   7729.38    1.005311e-01
   7729.67    1.093345e-01
   7729.96    1.170466e-01
   7730.24    1.226737e-01
   7730.53    1.253550e-01
   7730.82    1.253609e-01
   7731.11    1.233434e-01
   7731.40    1.200759e-01
   7731.69    1.162448e-01
   7731.98    1.123448e-01
   7732.27    1.087115e-01
   7732.56    1.055431e-01
   7732.84    1.028874e-01
   7733.13    1.007580e-01
   7733.42    9.913511e-02
   7733.71    9.797865e-02
   7734.00    9.723664e-02
   7734.29    9.688489e-02
   7734.58    9.681135e-02
   7734.87    9.694881e-02
   7735.16    9.722813e-02
   7735.44    9.758015e-02
   7735.73    9.793855e-02
   7736.02    9.823660e-02
   7736.31    9.842165e-02
   7736.60    9.846753e-02
   7736.89    9.836241e-02
   7737.18    9.811177e-02
   7737.47    9.773598e-02
   7737.76    9.726536e-02
   7738.04    9.673712e-02
   7738.33    9.619783e-02
   7738.62    9.568139e-02
   7738.91    9.521583e-02
   7739.20    9.482226e-02
   7739.49    9.451472e-02
   7739.78    9.430845e-02
   7740.07    9.422195e-02
   7740.36    9.427364e-02
   7740.64    9.432533e-02
   7740.93    9.437701e-02
   7741.22    9.455787e-02
   7741.51    9.477749e-02
   7741.80    9.499710e-02
   7742.09    9.520820e-02
   7742.38    9.540015e-02
   7742.67    9.559209e-02
   7742.96    9.578404e-02
   7743.24    9.580743e-02
   7743.53    9.580018e-02
   7743.82    9.579292e-02
   7744.11    9.567671e-02
   7744.40    9.538618e-02
   7744.69    9.509565e-02
   7744.98    9.480512e-02
   7745.27    9.427775e-02
   7745.56    9.373064e-02
   7745.84    9.318353e-02
   7746.13    9.256531e-02
   7746.42    9.186414e-02
   7746.71    9.116296e-02
   7747.00    9.046178e-02
   7747.29    8.972163e-02
   7747.58    8.898148e-02
   7747.87    8.824133e-02
   7748.16    8.752354e-02
   7748.44    8.682492e-02
   7748.73    8.612630e-02
   7749.02    8.543347e-02
   7749.31    8.481009e-02
   7749.60    8.418670e-02
   7749.89    8.356332e-02
   7750.18    8.298506e-02
   7750.47    8.243501e-02
   7750.76    8.188497e-02
   7751.04    8.134301e-02
   7751.33    8.084557e-02
   7751.62    8.034812e-02
   7751.91    7.985068e-02
   7752.20    7.937142e-02
   7752.49    7.890025e-02
   7752.78    7.842907e-02
   7753.07    7.795856e-02
   7753.36    7.749023e-02
   7753.64    7.702191e-02
   7753.93    7.655359e-02
   7754.22    7.607565e-02
   7754.51    7.559482e-02
   7754.80    7.511400e-02
   7755.09    7.462800e-02
   7755.38    7.413035e-02
   7755.67    7.363271e-02
   7755.96    7.313506e-02
   7756.24    7.262972e-02
   7756.53    7.212298e-02
   7756.82    7.161624e-02
   7757.11    7.111352e-02
   7757.40    7.061723e-02
   7757.69    7.012094e-02
   7757.98    6.962465e-02
   7758.27    6.916771e-02
   7758.56    6.871404e-02
   7758.84    6.826038e-02
   7759.13    6.784621e-02
   7759.42    6.747811e-02
   7759.71    6.711002e-02
   7760.00    6.674192e-02
