 FDMNES
  energy    <xanes>
   7695.00    5.414519e-04
   7695.29    5.471653e-04
   7695.58    5.528787e-04
   7695.87    5.585921e-04
   7696.16    5.645192e-04
   7696.44    5.706295e-04
   7696.73    5.767398e-04
   7697.02    5.828838e-04
   7697.31    5.894329e-04
   7697.60    5.959819e-04
   7697.89    6.025309e-04
   7698.18    6.093794e-04
   7698.47    6.164150e-04
   7698.76    6.234507e-04
   7699.04    6.305696e-04
   7699.33    6.381469e-04
   7699.62    6.457241e-04
   7699.91    6.533014e-04
   7700.20    6.612976e-04
   7700.49    6.694800e-04
   7700.78    6.776624e-04
   7701.07    6.860015e-04
   7701.36    6.948629e-04
   7701.64    7.037242e-04
   7701.93    7.125856e-04
   7702.22    7.220355e-04
   7702.51    7.316619e-04
   7702.80    7.412883e-04
   7703.09    7.511813e-04
   7703.38    7.616741e-04
   7703.67    7.721668e-04
   7703.96    7.826595e-04
   7704.24    7.939866e-04
   7704.53    8.054653e-04
   7704.82    8.169441e-04
   7705.11    8.288569e-04
   7705.40    8.414643e-04
   7705.69    8.540717e-04
   7705.98    8.666791e-04
   7706.27    8.804864e-04
   7706.56    8.943938e-04
   7706.84    9.083011e-04
   7707.13    9.229042e-04
   7707.42    9.383189e-04
   7707.71    9.537337e-04
   7708.00    9.691485e-04
   7708.29    9.863246e-04
   7708.58    1.003501e-03
   7708.87    1.020677e-03
   7709.16    1.038970e-03
   7709.44    1.058222e-03
   7709.73    1.077473e-03
   7710.02    1.096914e-03
   7710.31    1.118634e-03
   7710.60    1.140353e-03
   7710.89    1.162072e-03
   7711.18    1.185617e-03
   7711.47    1.210303e-03
   7711.76    1.234989e-03
   7712.04    1.260230e-03
   7712.33    1.288524e-03
   7712.62    1.316818e-03
   7712.91    1.345112e-03
   7713.20    1.376486e-03
   7713.49    1.409230e-03
   7713.78    1.441974e-03
   7714.07    1.476005e-03
   7714.36    1.514326e-03
   7714.64    1.552646e-03
   7714.93    1.590966e-03
   7715.22    1.634765e-03
   7715.51    1.680206e-03
   7715.80    1.725648e-03
   7716.09    1.773952e-03
   7716.38    1.828695e-03
   7716.67    1.883439e-03
   7716.96    1.938182e-03
   7717.24    2.003496e-03
   7717.53    2.070732e-03
   7717.82    2.137967e-03
   7718.11    2.211885e-03
   7718.40    2.296494e-03
   7718.69    2.381104e-03
   7718.98    2.465713e-03
   7719.27    2.573674e-03
   7719.56    2.683580e-03
   7719.84    2.793486e-03
   7720.13    2.921502e-03
   7720.42    3.070644e-03
   7720.71    3.219787e-03
   7721.00    3.368929e-03
   7721.29    3.584911e-03
   7721.58    3.800893e-03
   7721.87    4.016875e-03
   7722.16    4.304406e-03
   7722.44    4.653265e-03
   7722.73    5.002124e-03
   7723.02    5.378141e-03
   7723.31    6.080066e-03
   7723.60    6.781990e-03
   7723.89    7.483914e-03
   7724.18    9.006579e-03
   7724.47    1.104221e-02
   7724.76    1.307783e-02
   7725.04    1.528406e-02
   7725.33    1.838939e-02
   7725.62    2.130339e-02
   7725.91    2.405683e-02
   7726.20    2.684881e-02
   7726.49    2.990283e-02
   7726.78    3.333242e-02
   7727.07    3.738048e-02
   7727.36    4.211069e-02
   7727.64    4.760278e-02
   7727.93    5.377124e-02
   7728.22    6.038869e-02
   7728.51    6.725589e-02
   7728.80    7.416573e-02
   7729.09    8.099440e-02
   7729.38    8.766248e-02
   7729.67    9.397782e-02
   7729.96    9.975621e-02
   7730.24    1.047091e-01
   7730.53    1.084416e-01
   7730.82    1.108474e-01
   7731.11    1.119430e-01
   7731.40    1.118696e-01
   7731.69    1.108596e-01
   7731.98    1.091747e-01
   7732.27    1.070492e-01
   7732.56    1.047120e-01
   7732.84    1.023517e-01
   7733.13    1.001035e-01
   7733.42    9.807737e-02
   7733.71    9.635545e-02
   7734.00    9.499216e-02
   7734.29    9.406181e-02
   7734.58    9.351745e-02
   7734.87    9.333475e-02
   7735.16    9.347191e-02
   7735.44    9.387400e-02
   7735.73    9.447771e-02
   7736.02    9.522097e-02
   7736.31    9.602802e-02
   7736.60    9.683682e-02
   7736.89    9.760256e-02
   7737.18    9.829308e-02
   7737.47    9.888901e-02
   7737.76    9.938110e-02
   7738.04    9.976445e-02
   7738.33    1.000608e-01
   7738.62    1.002857e-01
   7738.91    1.004564e-01
   7739.20    1.005899e-01
   7739.49    1.007014e-01
   7739.78    1.008028e-01
   7740.07    1.009019e-01
   7740.36    1.009990e-01
   7740.64    1.010961e-01
   7740.93    1.011932e-01
   7741.22    1.012398e-01
   7741.51    1.012711e-01
   7741.80    1.013025e-01
   7742.09    1.012763e-01
   7742.38    1.011205e-01
   7742.67    1.009646e-01
   7742.96    1.008088e-01
   7743.24    1.004435e-01
   7743.53    1.000400e-01
   7743.82    9.963658e-02
   7744.11    9.915501e-02
   7744.40    9.854841e-02
   7744.69    9.794181e-02
   7744.98    9.733521e-02
   7745.27    9.662944e-02
   7745.56    9.591541e-02
   7745.84    9.520138e-02
   7746.13    9.447591e-02
   7746.42    9.373710e-02
   7746.71    9.299829e-02
   7747.00    9.225948e-02
   7747.29    9.154530e-02
   7747.58    9.083111e-02
   7747.87    9.011693e-02
   7748.16    8.943140e-02
   7748.44    8.877042e-02
   7748.73    8.810944e-02
   7749.02    8.745412e-02
   7749.31    8.686666e-02
   7749.60    8.627920e-02
   7749.89    8.569174e-02
   7750.18    8.515670e-02
   7750.47    8.465441e-02
   7750.76    8.415213e-02
   7751.04    8.366288e-02
   7751.33    8.324531e-02
   7751.62    8.282774e-02
   7751.91    8.241017e-02
   7752.20    8.204305e-02
   7752.49    8.169835e-02
   7752.78    8.135365e-02
   7753.07    8.102106e-02
   7753.36    8.072880e-02
   7753.64    8.043655e-02
   7753.93    8.014430e-02
   7754.22    7.987541e-02
   7754.51    7.961353e-02
   7754.80    7.935166e-02
   7755.09    7.909322e-02
   7755.38    7.884250e-02
   7755.67    7.859179e-02
   7755.96    7.834108e-02
   7756.24    7.808753e-02
   7756.53    7.783347e-02
   7756.82    7.757941e-02
   7757.11    7.732174e-02
   7757.40    7.705831e-02
   7757.69    7.679488e-02
   7757.98    7.653146e-02
   7758.27    7.626905e-02
   7758.56    7.600673e-02
   7758.84    7.574441e-02
   7759.13    7.549778e-02
   7759.42    7.526944e-02
   7759.71    7.504109e-02
   7760.00    7.481275e-02
