 FDMNES
  energy    <xanes>
   7695.00    5.121638e-04
   7695.29    5.178565e-04
   7695.58    5.235492e-04
   7695.87    5.292419e-04
   7696.16    5.351547e-04
   7696.44    5.412562e-04
   7696.73    5.473576e-04
   7697.02    5.534940e-04
   7697.31    5.600483e-04
   7697.60    5.666027e-04
   7697.89    5.731570e-04
   7698.18    5.800211e-04
   7698.47    5.870788e-04
   7698.76    5.941365e-04
   7699.04    6.012806e-04
   7699.33    6.088997e-04
   7699.62    6.165188e-04
   7699.91    6.241379e-04
   7700.20    6.321923e-04
   7700.49    6.404401e-04
   7700.78    6.486879e-04
   7701.07    6.570988e-04
   7701.36    6.660535e-04
   7701.64    6.750082e-04
   7701.93    6.839629e-04
   7702.22    6.935317e-04
   7702.51    7.032847e-04
   7702.80    7.130377e-04
   7703.09    7.230695e-04
   7703.38    7.337286e-04
   7703.67    7.443876e-04
   7703.96    7.550466e-04
   7704.24    7.665802e-04
   7704.53    7.782727e-04
   7704.82    7.899653e-04
   7705.11    8.021139e-04
   7705.40    8.149922e-04
   7705.69    8.278704e-04
   7705.98    8.407487e-04
   7706.27    8.548904e-04
   7706.56    8.691374e-04
   7706.84    8.833844e-04
   7707.13    8.983656e-04
   7707.42    9.142033e-04
   7707.71    9.300410e-04
   7708.00    9.458787e-04
   7708.29    9.635790e-04
   7708.58    9.812793e-04
   7708.87    9.989796e-04
   7709.16    1.017864e-03
   7709.44    1.037763e-03
   7709.73    1.057662e-03
   7710.02    1.077763e-03
   7710.31    1.100283e-03
   7710.60    1.122802e-03
   7710.89    1.145322e-03
   7711.18    1.169782e-03
   7711.47    1.195456e-03
   7711.76    1.221130e-03
   7712.04    1.247395e-03
   7712.33    1.276911e-03
   7712.62    1.306427e-03
   7712.91    1.335943e-03
   7713.20    1.368742e-03
   7713.49    1.403001e-03
   7713.78    1.437259e-03
   7714.07    1.472890e-03
   7714.36    1.513093e-03
   7714.64    1.553296e-03
   7714.93    1.593499e-03
   7715.22    1.639538e-03
   7715.51    1.687328e-03
   7715.80    1.735117e-03
   7716.09    1.785950e-03
   7716.38    1.843629e-03
   7716.67    1.901308e-03
   7716.96    1.958987e-03
   7717.24    2.027860e-03
   7717.53    2.098768e-03
   7717.82    2.169676e-03
   7718.11    2.247612e-03
   7718.40    2.336792e-03
   7718.69    2.425973e-03
   7718.98    2.515153e-03
   7719.27    2.628613e-03
   7719.56    2.744095e-03
   7719.84    2.859578e-03
   7720.13    2.993539e-03
   7720.42    3.149057e-03
   7720.71    3.304576e-03
   7721.00    3.460095e-03
   7721.29    3.681728e-03
   7721.58    3.903362e-03
   7721.87    4.124995e-03
   7722.16    4.413782e-03
   7722.44    4.760129e-03
   7722.73    5.106476e-03
   7723.02    5.476171e-03
   7723.31    6.126041e-03
   7723.60    6.775911e-03
   7723.89    7.425780e-03
   7724.18    8.721941e-03
   7724.47    1.042203e-02
   7724.76    1.212212e-02
   7725.04    1.396829e-02
   7725.33    1.664407e-02
   7725.62    1.936314e-02
   7725.91    2.220526e-02
   7726.20    2.532108e-02
   7726.49    2.900832e-02
   7726.78    3.334187e-02
   7727.07    3.861583e-02
   7727.36    4.483073e-02
   7727.64    5.200255e-02
   7727.93    5.999029e-02
   7728.22    6.867080e-02
   7728.51    7.822761e-02
   7728.80    8.862968e-02
   7729.09    9.978979e-02
   7729.38    1.108669e-01
   7729.67    1.206235e-01
   7729.96    1.281426e-01
   7730.24    1.328173e-01
   7730.53    1.345181e-01
   7730.82    1.340395e-01
   7731.11    1.320542e-01
   7731.40    1.290614e-01
   7731.69    1.254149e-01
   7731.98    1.213718e-01
   7732.27    1.171434e-01
   7732.56    1.129469e-01
   7732.84    1.089606e-01
   7733.13    1.053272e-01
   7733.42    1.021551e-01
   7733.71    9.951563e-02
   7734.00    9.744361e-02
   7734.29    9.600383e-02
   7734.58    9.509060e-02
   7734.87    9.464270e-02
   7735.16    9.458124e-02
   7735.44    9.481433e-02
   7735.73    9.524153e-02
   7736.02    9.575799e-02
   7736.31    9.624822e-02
   7736.60    9.662331e-02
   7736.89    9.681870e-02
   7737.18    9.679578e-02
   7737.47    9.654426e-02
   7737.76    9.607782e-02
   7738.04    9.542743e-02
   7738.33    9.467029e-02
   7738.62    9.386696e-02
   7738.91    9.307563e-02
   7739.20    9.234702e-02
   7739.49    9.172109e-02
   7739.78    9.123778e-02
   7740.07    9.094706e-02
   7740.36    9.089628e-02
   7740.64    9.084549e-02
   7740.93    9.079470e-02
   7741.22    9.101205e-02
   7741.51    9.130983e-02
   7741.80    9.160761e-02
   7742.09    9.191789e-02
   7742.38    9.225625e-02
   7742.67    9.259462e-02
   7742.96    9.293299e-02
   7743.24    9.308337e-02
   7743.53    9.319957e-02
   7743.82    9.331577e-02
   7744.11    9.330979e-02
   7744.40    9.310830e-02
   7744.69    9.290681e-02
   7744.98    9.270532e-02
   7745.27    9.225887e-02
   7745.56    9.179201e-02
   7745.84    9.132515e-02
   7746.13    9.078651e-02
   7746.42    9.016413e-02
   7746.71    8.954175e-02
   7747.00    8.891937e-02
   7747.29    8.824729e-02
   7747.58    8.757520e-02
   7747.87    8.690311e-02
   7748.16    8.624225e-02
   7748.44    8.559101e-02
   7748.73    8.493977e-02
   7749.02    8.429223e-02
   7749.31    8.368914e-02
   7749.60    8.308605e-02
   7749.89    8.248296e-02
   7750.18    8.190737e-02
   7750.47    8.134897e-02
   7750.76    8.079056e-02
   7751.04    8.023638e-02
   7751.33    7.970546e-02
   7751.62    7.917454e-02
   7751.91    7.864362e-02
   7752.20    7.811829e-02
   7752.49    7.759545e-02
   7752.78    7.707261e-02
   7753.07    7.654804e-02
   7753.36    7.601769e-02
   7753.64    7.548733e-02
   7753.93    7.495698e-02
   7754.22    7.441458e-02
   7754.51    7.386857e-02
   7754.80    7.332255e-02
   7755.09    7.277236e-02
   7755.38    7.221277e-02
   7755.67    7.165319e-02
   7755.96    7.109361e-02
   7756.24    7.053449e-02
   7756.53    6.997545e-02
   7756.82    6.941642e-02
   7757.11    6.886758e-02
   7757.40    6.833506e-02
   7757.69    6.780253e-02
   7757.98    6.727000e-02
   7758.27    6.679464e-02
   7758.56    6.632405e-02
   7758.84    6.585345e-02
   7759.13    6.542883e-02
   7759.42    6.505784e-02
   7759.71    6.468684e-02
   7760.00    6.431585e-02
