 FDMNES
  energy    <xanes>
   7695.00    5.285093e-04
   7695.29    5.343116e-04
   7695.58    5.401140e-04
   7695.87    5.459164e-04
   7696.16    5.519418e-04
   7696.44    5.581582e-04
   7696.73    5.643747e-04
   7697.02    5.706265e-04
   7697.31    5.773016e-04
   7697.60    5.839766e-04
   7697.89    5.906517e-04
   7698.18    5.976404e-04
   7698.47    6.048250e-04
   7698.76    6.120096e-04
   7699.04    6.192817e-04
   7699.33    6.270345e-04
   7699.62    6.347874e-04
   7699.91    6.425403e-04
   7700.20    6.507335e-04
   7700.49    6.591225e-04
   7700.78    6.675115e-04
   7701.07    6.760654e-04
   7701.36    6.851695e-04
   7701.64    6.942735e-04
   7701.93    7.033775e-04
   7702.22    7.131026e-04
   7702.51    7.230141e-04
   7702.80    7.329255e-04
   7703.09    7.431188e-04
   7703.38    7.539463e-04
   7703.67    7.647737e-04
   7703.96    7.756012e-04
   7704.24    7.873127e-04
   7704.53    7.991850e-04
   7704.82    8.110573e-04
   7705.11    8.233905e-04
   7705.40    8.364612e-04
   7705.69    8.495318e-04
   7705.98    8.626025e-04
   7706.27    8.769500e-04
   7706.56    8.914038e-04
   7706.84    9.058577e-04
   7707.13    9.210534e-04
   7707.42    9.371145e-04
   7707.71    9.531757e-04
   7708.00    9.692369e-04
   7708.29    9.871800e-04
   7708.58    1.005123e-03
   7708.87    1.023066e-03
   7709.16    1.042206e-03
   7709.44    1.062370e-03
   7709.73    1.082535e-03
   7710.02    1.102904e-03
   7710.31    1.125716e-03
   7710.60    1.148528e-03
   7710.89    1.171341e-03
   7711.18    1.196115e-03
   7711.47    1.222115e-03
   7711.76    1.248115e-03
   7712.04    1.274712e-03
   7712.33    1.304597e-03
   7712.62    1.334481e-03
   7712.91    1.364365e-03
   7713.20    1.397569e-03
   7713.49    1.432250e-03
   7713.78    1.466930e-03
   7714.07    1.502999e-03
   7714.36    1.543696e-03
   7714.64    1.584392e-03
   7714.93    1.625089e-03
   7715.22    1.671697e-03
   7715.51    1.720079e-03
   7715.80    1.768461e-03
   7716.09    1.819931e-03
   7716.38    1.878346e-03
   7716.67    1.936762e-03
   7716.96    1.995177e-03
   7717.24    2.064973e-03
   7717.53    2.136839e-03
   7717.82    2.208704e-03
   7718.11    2.287737e-03
   7718.40    2.378239e-03
   7718.69    2.468741e-03
   7718.98    2.559243e-03
   7719.27    2.674625e-03
   7719.56    2.792081e-03
   7719.84    2.909538e-03
   7720.13    3.046072e-03
   7720.42    3.204865e-03
   7720.71    3.363657e-03
   7721.00    3.522450e-03
   7721.29    3.750342e-03
   7721.58    3.978234e-03
   7721.87    4.206125e-03
   7722.16    4.505690e-03
   7722.44    4.866688e-03
   7722.73    5.227687e-03
   7723.02    5.614536e-03
   7723.31    6.311599e-03
   7723.60    7.008662e-03
   7723.89    7.705725e-03
   7724.18    9.147688e-03
   7724.47    1.105521e-02
   7724.76    1.296274e-02
   7725.04    1.503297e-02
   7725.33    1.799540e-02
   7725.62    2.089265e-02
   7725.91    2.379571e-02
   7726.20    2.690645e-02
   7726.49    3.050699e-02
   7726.78    3.464301e-02
   7727.07    3.951927e-02
   7727.36    4.513150e-02
   7727.64    5.155454e-02
   7727.93    5.877593e-02
   7728.22    6.671117e-02
   7728.51    7.539929e-02
   7728.80    8.470973e-02
   7729.09    9.470273e-02
   7729.38    1.050165e-01
   7729.67    1.151323e-01
   7729.96    1.243235e-01
   7730.24    1.317280e-01
   7730.53    1.363763e-01
   7730.82    1.381499e-01
   7731.11    1.373210e-01
   7731.40    1.344457e-01
   7731.69    1.302076e-01
   7731.98    1.252525e-01
   7732.27    1.201105e-01
   7732.56    1.151947e-01
   7732.84    1.107250e-01
   7733.13    1.068181e-01
   7733.42    1.035195e-01
   7733.71    1.008265e-01
   7734.00    9.870639e-02
   7734.29    9.716229e-02
   7734.58    9.606289e-02
   7734.87    9.533845e-02
   7735.16    9.491664e-02
   7735.44    9.472504e-02
   7735.73    9.469351e-02
   7736.02    9.475913e-02
   7736.31    9.485587e-02
   7736.60    9.493565e-02
   7736.89    9.496783e-02
   7737.18    9.493590e-02
   7737.47    9.483699e-02
   7737.76    9.467953e-02
   7738.04    9.448136e-02
   7738.33    9.427253e-02
   7738.62    9.407825e-02
   7738.91    9.392151e-02
   7739.20    9.382083e-02
   7739.49    9.378895e-02
   7739.78    9.383835e-02
   7740.07    9.397711e-02
   7740.36    9.420787e-02
   7740.64    9.443863e-02
   7740.93    9.466939e-02
   7741.22    9.491753e-02
   7741.51    9.517089e-02
   7741.80    9.542425e-02
   7742.09    9.561552e-02
   7742.38    9.566709e-02
   7742.67    9.571866e-02
   7742.96    9.577024e-02
   7743.24    9.556681e-02
   7743.53    9.531702e-02
   7743.82    9.506724e-02
   7744.11    9.472359e-02
   7744.40    9.422978e-02
   7744.69    9.373596e-02
   7744.98    9.324215e-02
   7745.27    9.262986e-02
   7745.56    9.200769e-02
   7745.84    9.138553e-02
   7746.13    9.074795e-02
   7746.42    9.009239e-02
   7746.71    8.943683e-02
   7747.00    8.878126e-02
   7747.29    8.815305e-02
   7747.58    8.752483e-02
   7747.87    8.689661e-02
   7748.16    8.630156e-02
   7748.44    8.573495e-02
   7748.73    8.516834e-02
   7749.02    8.460743e-02
   7749.31    8.411495e-02
   7749.60    8.362247e-02
   7749.89    8.313000e-02
   7750.18    8.267941e-02
   7750.47    8.225500e-02
   7750.76    8.183059e-02
   7751.04    8.141355e-02
   7751.33    8.103701e-02
   7751.62    8.066048e-02
   7751.91    8.028395e-02
   7752.20    7.992094e-02
   7752.49    7.956395e-02
   7752.78    7.920696e-02
   7753.07    7.884769e-02
   7753.36    7.848085e-02
   7753.64    7.811401e-02
   7753.93    7.774717e-02
   7754.22    7.735493e-02
   7754.51    7.695507e-02
   7754.80    7.655522e-02
   7755.09    7.614197e-02
   7755.38    7.569862e-02
   7755.67    7.525526e-02
   7755.96    7.481190e-02
   7756.24    7.433728e-02
   7756.53    7.385698e-02
   7756.82    7.337668e-02
   7757.11    7.289182e-02
   7757.40    7.239965e-02
   7757.69    7.190749e-02
   7757.98    7.141533e-02
   7758.27    7.095160e-02
   7758.56    7.049024e-02
   7758.84    7.002889e-02
   7759.13    6.960635e-02
   7759.42    6.922910e-02
   7759.71    6.885185e-02
   7760.00    6.847460e-02
