 FDMNES
  energy    <xanes>
   7695.00    5.455530e-04
   7695.29    5.513104e-04
   7695.58    5.570679e-04
   7695.87    5.628254e-04
   7696.16    5.687982e-04
   7696.44    5.749555e-04
   7696.73    5.811129e-04
   7697.02    5.873043e-04
   7697.31    5.939037e-04
   7697.60    6.005031e-04
   7697.89    6.071024e-04
   7698.18    6.140035e-04
   7698.47    6.210931e-04
   7698.76    6.281828e-04
   7699.04    6.353563e-04
   7699.33    6.429916e-04
   7699.62    6.506269e-04
   7699.91    6.582621e-04
   7700.20    6.663194e-04
   7700.49    6.745643e-04
   7700.78    6.828091e-04
   7701.07    6.912118e-04
   7701.36    7.001405e-04
   7701.64    7.090692e-04
   7701.93    7.179979e-04
   7702.22    7.275194e-04
   7702.51    7.372187e-04
   7702.80    7.469179e-04
   7703.09    7.568856e-04
   7703.38    7.674573e-04
   7703.67    7.780290e-04
   7703.96    7.886006e-04
   7704.24    8.000124e-04
   7704.53    8.115768e-04
   7704.82    8.231413e-04
   7705.11    8.351428e-04
   7705.40    8.478435e-04
   7705.69    8.605442e-04
   7705.98    8.732449e-04
   7706.27    8.871533e-04
   7706.56    9.011624e-04
   7706.84    9.151715e-04
   7707.13    9.298807e-04
   7707.42    9.454066e-04
   7707.71    9.609326e-04
   7708.00    9.764586e-04
   7708.29    9.937563e-04
   7708.58    1.011054e-03
   7708.87    1.028352e-03
   7709.16    1.046773e-03
   7709.44    1.066158e-03
   7709.73    1.085542e-03
   7710.02    1.105117e-03
   7710.31    1.126982e-03
   7710.60    1.148847e-03
   7710.89    1.170712e-03
   7711.18    1.194411e-03
   7711.47    1.219256e-03
   7711.76    1.244101e-03
   7712.04    1.269502e-03
   7712.33    1.297969e-03
   7712.62    1.326436e-03
   7712.91    1.354902e-03
   7713.20    1.386458e-03
   7713.49    1.419387e-03
   7713.78    1.452317e-03
   7714.07    1.486535e-03
   7714.36    1.525050e-03
   7714.64    1.563565e-03
   7714.93    1.602081e-03
   7715.22    1.646075e-03
   7715.51    1.691713e-03
   7715.80    1.737352e-03
   7716.09    1.785848e-03
   7716.38    1.840773e-03
   7716.67    1.895699e-03
   7716.96    1.950624e-03
   7717.24    2.016078e-03
   7717.53    2.083447e-03
   7717.82    2.150815e-03
   7718.11    2.224819e-03
   7718.40    2.309438e-03
   7718.69    2.394058e-03
   7718.98    2.478678e-03
   7719.27    2.586388e-03
   7719.56    2.696023e-03
   7719.84    2.805657e-03
   7720.13    2.933098e-03
   7720.42    3.081311e-03
   7720.71    3.229524e-03
   7721.00    3.377738e-03
   7721.29    3.591140e-03
   7721.58    3.804543e-03
   7721.87    4.017946e-03
   7722.16    4.300281e-03
   7722.44    4.641700e-03
   7722.73    4.983120e-03
   7723.02    5.350189e-03
   7723.31    6.025058e-03
   7723.60    6.699927e-03
   7723.89    7.374795e-03
   7724.18    8.815562e-03
   7724.47    1.073502e-02
   7724.76    1.265447e-02
   7725.04    1.474586e-02
   7725.33    1.778554e-02
   7725.62    2.075177e-02
   7725.91    2.362735e-02
   7726.20    2.653448e-02
   7726.49    2.963118e-02
   7726.78    3.299661e-02
   7727.07    3.678469e-02
   7727.36    4.101589e-02
   7727.64    4.574686e-02
   7727.93    5.100194e-02
   7728.22    5.680347e-02
   7728.51    6.329681e-02
   7728.80    7.043038e-02
   7729.09    7.830812e-02
   7729.38    8.662910e-02
   7729.67    9.511602e-02
   7729.96    1.032940e-01
   7730.24    1.105878e-01
   7730.53    1.162299e-01
   7730.82    1.198723e-01
   7731.11    1.214678e-01
   7731.40    1.212754e-01
   7731.69    1.197624e-01
   7731.98    1.174331e-01
   7732.27    1.146869e-01
   7732.56    1.118024e-01
   7732.84    1.089251e-01
   7733.13    1.061318e-01
   7733.42    1.034876e-01
   7733.71    1.010576e-01
   7734.00    9.890357e-02
   7734.29    9.711898e-02
   7734.58    9.569676e-02
   7734.87    9.464389e-02
   7735.16    9.394882e-02
   7735.44    9.358430e-02
   7735.73    9.351056e-02
   7736.02    9.369071e-02
   7736.31    9.405568e-02
   7736.60    9.453368e-02
   7736.89    9.506558e-02
   7737.18    9.559655e-02
   7737.47    9.607950e-02
   7737.76    9.647619e-02
   7738.04    9.675243e-02
   7738.33    9.691071e-02
   7738.62    9.695620e-02
   7738.91    9.690370e-02
   7739.20    9.677455e-02
   7739.49    9.659343e-02
   7739.78    9.638510e-02
   7740.07    9.618875e-02
   7740.36    9.604318e-02
   7740.64    9.589760e-02
   7740.93    9.575202e-02
   7741.22    9.575750e-02
   7741.51    9.580829e-02
   7741.80    9.585908e-02
   7742.09    9.595901e-02
   7742.38    9.616949e-02
   7742.67    9.637997e-02
   7742.96    9.659046e-02
   7743.24    9.679632e-02
   7743.53    9.700134e-02
   7743.82    9.720636e-02
   7744.11    9.733961e-02
   7744.40    9.735804e-02
   7744.69    9.737647e-02
   7744.98    9.739489e-02
   7745.27    9.715981e-02
   7745.56    9.690360e-02
   7745.84    9.664739e-02
   7746.13    9.628190e-02
   7746.42    9.578894e-02
   7746.71    9.529597e-02
   7747.00    9.480301e-02
   7747.29    9.418744e-02
   7747.58    9.357187e-02
   7747.87    9.295631e-02
   7748.16    9.233855e-02
   7748.44    9.171892e-02
   7748.73    9.109929e-02
   7749.02    9.048473e-02
   7749.31    8.993091e-02
   7749.60    8.937710e-02
   7749.89    8.882329e-02
   7750.18    8.832517e-02
   7750.47    8.786187e-02
   7750.76    8.739856e-02
   7751.04    8.694829e-02
   7751.33    8.656966e-02
   7751.62    8.619103e-02
   7751.91    8.581240e-02
   7752.20    8.547448e-02
   7752.49    8.515466e-02
   7752.78    8.483484e-02
   7753.07    8.452064e-02
   7753.36    8.422521e-02
   7753.64    8.392977e-02
   7753.93    8.363433e-02
   7754.22    8.333253e-02
   7754.51    8.302881e-02
   7754.80    8.272509e-02
   7755.09    8.241168e-02
   7755.38    8.207646e-02
   7755.67    8.174124e-02
   7755.96    8.140602e-02
   7756.24    8.103683e-02
   7756.53    8.066146e-02
   7756.82    8.028610e-02
   7757.11    7.989907e-02
   7757.40    7.949340e-02
   7757.69    7.908772e-02
   7757.98    7.868205e-02
   7758.27    7.827896e-02
   7758.56    7.787610e-02
   7758.84    7.747323e-02
   7759.13    7.709761e-02
   7759.42    7.675379e-02
   7759.71    7.640997e-02
   7760.00    7.606615e-02
