 FDMNES
  energy    <xanes>
   7695.00    5.304527e-04
   7695.29    5.361808e-04
   7695.58    5.419089e-04
   7695.87    5.476370e-04
   7696.16    5.535826e-04
   7696.44    5.597145e-04
   7696.73    5.658465e-04
   7697.02    5.720128e-04
   7697.31    5.785916e-04
   7697.60    5.851703e-04
   7697.89    5.917491e-04
   7698.18    5.986331e-04
   7698.47    6.057079e-04
   7698.76    6.127826e-04
   7699.04    6.199424e-04
   7699.33    6.275697e-04
   7699.62    6.351971e-04
   7699.91    6.428244e-04
   7700.20    6.508795e-04
   7700.49    6.591248e-04
   7700.78    6.673701e-04
   7701.07    6.757756e-04
   7701.36    6.847148e-04
   7701.64    6.936540e-04
   7701.93    7.025932e-04
   7702.22    7.121345e-04
   7702.51    7.218564e-04
   7702.80    7.315783e-04
   7703.09    7.415731e-04
   7703.38    7.521821e-04
   7703.67    7.627910e-04
   7703.96    7.733999e-04
   7704.24    7.848638e-04
   7704.53    7.964832e-04
   7704.82    8.081026e-04
   7705.11    8.201673e-04
   7705.40    8.329443e-04
   7705.69    8.457214e-04
   7705.98    8.584984e-04
   7706.27    8.725072e-04
   7706.56    8.866187e-04
   7706.84    9.007301e-04
   7707.13    9.155563e-04
   7707.42    9.312164e-04
   7707.71    9.468765e-04
   7708.00    9.625366e-04
   7708.29    9.800074e-04
   7708.58    9.974781e-04
   7708.87    1.014949e-03
   7709.16    1.033569e-03
   7709.44    1.053174e-03
   7709.73    1.072780e-03
   7710.02    1.092580e-03
   7710.31    1.114726e-03
   7710.60    1.136871e-03
   7710.89    1.159016e-03
   7711.18    1.183040e-03
   7711.47    1.208239e-03
   7711.76    1.233438e-03
   7712.04    1.259208e-03
   7712.33    1.288121e-03
   7712.62    1.317034e-03
   7712.91    1.345947e-03
   7713.20    1.378030e-03
   7713.49    1.411522e-03
   7713.78    1.445014e-03
   7714.07    1.479830e-03
   7714.36    1.519056e-03
   7714.64    1.558283e-03
   7714.93    1.597509e-03
   7715.22    1.642360e-03
   7715.51    1.688899e-03
   7715.80    1.735437e-03
   7716.09    1.784908e-03
   7716.38    1.840976e-03
   7716.67    1.897044e-03
   7716.96    1.953112e-03
   7717.24    2.019969e-03
   7717.53    2.088788e-03
   7717.82    2.157607e-03
   7718.11    2.233209e-03
   7718.40    2.319665e-03
   7718.69    2.406120e-03
   7718.98    2.492575e-03
   7719.27    2.602532e-03
   7719.56    2.714448e-03
   7719.84    2.826364e-03
   7720.13    2.956262e-03
   7720.42    3.107141e-03
   7720.71    3.258020e-03
   7721.00    3.408899e-03
   7721.29    3.624717e-03
   7721.58    3.840535e-03
   7721.87    4.056353e-03
   7722.16    4.339119e-03
   7722.44    4.679271e-03
   7722.73    5.019423e-03
   7723.02    5.383339e-03
   7723.31    6.032432e-03
   7723.60    6.681525e-03
   7723.89    7.330618e-03
   7724.18    8.655579e-03
   7724.47    1.040296e-02
   7724.76    1.215034e-02
   7725.04    1.406155e-02
   7725.33    1.693209e-02
   7725.62    1.993652e-02
   7725.91    2.312707e-02
   7726.20    2.657519e-02
   7726.49    3.042045e-02
   7726.78    3.460614e-02
   7727.07    3.918247e-02
   7727.36    4.411350e-02
   7727.64    4.946731e-02
   7727.93    5.529659e-02
   7728.22    6.155639e-02
   7728.51    6.818724e-02
   7728.80    7.507592e-02
   7729.09    8.241686e-02
   7729.38    9.032910e-02
   7729.67    9.897420e-02
   7729.96    1.079832e-01
   7730.24    1.166764e-01
   7730.53    1.239507e-01
   7730.82    1.290020e-01
   7731.11    1.314331e-01
   7731.40    1.313013e-01
   7731.69    1.290555e-01
   7731.98    1.253431e-01
   7732.27    1.208095e-01
   7732.56    1.160573e-01
   7732.84    1.114880e-01
   7733.13    1.073207e-01
   7733.42    1.036727e-01
   7733.71    1.005923e-01
   7734.00    9.808542e-02
   7734.29    9.619432e-02
   7734.58    9.481275e-02
   7734.87    9.389327e-02
   7735.16    9.338153e-02
   7735.44    9.321692e-02
   7735.73    9.333284e-02
   7736.02    9.366612e-02
   7736.31    9.412659e-02
   7736.60    9.462984e-02
   7736.89    9.510800e-02
   7737.18    9.550494e-02
   7737.47    9.578086e-02
   7737.76    9.591262e-02
   7738.04    9.588877e-02
   7738.33    9.574368e-02
   7738.62    9.550817e-02
   7738.91    9.521891e-02
   7739.20    9.491355e-02
   7739.49    9.462658e-02
   7739.78    9.439237e-02
   7740.07    9.425785e-02
   7740.36    9.426772e-02
   7740.64    9.427759e-02
   7740.93    9.428747e-02
   7741.22    9.450847e-02
   7741.51    9.479280e-02
   7741.80    9.507714e-02
   7742.09    9.538867e-02
   7742.38    9.576136e-02
   7742.67    9.613406e-02
   7742.96    9.650676e-02
   7743.24    9.673144e-02
   7743.53    9.692921e-02
   7743.82    9.712699e-02
   7744.11    9.718490e-02
   7744.40    9.701904e-02
   7744.69    9.685317e-02
   7744.98    9.668730e-02
   7745.27    9.618763e-02
   7745.56    9.566014e-02
   7745.84    9.513265e-02
   7746.13    9.451045e-02
   7746.42    9.377776e-02
   7746.71    9.304507e-02
   7747.00    9.231238e-02
   7747.29    9.153442e-02
   7747.58    9.075647e-02
   7747.87    8.997851e-02
   7748.16    8.922556e-02
   7748.44    8.849403e-02
   7748.73    8.776251e-02
   7749.02    8.703745e-02
   7749.31    8.638986e-02
   7749.60    8.574228e-02
   7749.89    8.509469e-02
   7750.18    8.450327e-02
   7750.47    8.394696e-02
   7750.76    8.339064e-02
   7751.04    8.284662e-02
   7751.33    8.237022e-02
   7751.62    8.189382e-02
   7751.91    8.141741e-02
   7752.20    8.098047e-02
   7752.49    8.056106e-02
   7752.78    8.014165e-02
   7753.07    7.972917e-02
   7753.36    7.933980e-02
   7753.64    7.895043e-02
   7753.93    7.856106e-02
   7754.22    7.817633e-02
   7754.51    7.779300e-02
   7754.80    7.740967e-02
   7755.09    7.702335e-02
   7755.38    7.663030e-02
   7755.67    7.623725e-02
   7755.96    7.584420e-02
   7756.24    7.543954e-02
   7756.53    7.503276e-02
   7756.82    7.462598e-02
   7757.11    7.421785e-02
   7757.40    7.380754e-02
   7757.69    7.339723e-02
   7757.98    7.298693e-02
   7758.27    7.259828e-02
   7758.56    7.221144e-02
   7758.84    7.182460e-02
   7759.13    7.146824e-02
   7759.42    7.114742e-02
   7759.71    7.082661e-02
   7760.00    7.050580e-02
