 FDMNES
  energy    <xanes>
   7695.00    5.259064e-04
   7695.29    5.316147e-04
   7695.58    5.373230e-04
   7695.87    5.430313e-04
   7696.16    5.489566e-04
   7696.44    5.550678e-04
   7696.73    5.611791e-04
   7697.02    5.673247e-04
   7697.31    5.738818e-04
   7697.60    5.804388e-04
   7697.89    5.869959e-04
   7698.18    5.938575e-04
   7698.47    6.009095e-04
   7698.76    6.079614e-04
   7699.04    6.150981e-04
   7699.33    6.227013e-04
   7699.62    6.303044e-04
   7699.91    6.379075e-04
   7700.20    6.459373e-04
   7700.49    6.541568e-04
   7700.78    6.623762e-04
   7701.07    6.707553e-04
   7701.36    6.796666e-04
   7701.64    6.885780e-04
   7701.93    6.974893e-04
   7702.22    7.070008e-04
   7702.51    7.166923e-04
   7702.80    7.263839e-04
   7703.09    7.363474e-04
   7703.38    7.469228e-04
   7703.67    7.574982e-04
   7703.96    7.680737e-04
   7704.24    7.795008e-04
   7704.53    7.910827e-04
   7704.82    8.026647e-04
   7705.11    8.146900e-04
   7705.40    8.274245e-04
   7705.69    8.401591e-04
   7705.98    8.528936e-04
   7706.27    8.668539e-04
   7706.56    8.809163e-04
   7706.84    8.949787e-04
   7707.13    9.097518e-04
   7707.42    9.253542e-04
   7707.71    9.409566e-04
   7708.00    9.565590e-04
   7708.29    9.739606e-04
   7708.58    9.913622e-04
   7708.87    1.008764e-03
   7709.16    1.027306e-03
   7709.44    1.046827e-03
   7709.73    1.066348e-03
   7710.02    1.086062e-03
   7710.31    1.108102e-03
   7710.60    1.130141e-03
   7710.89    1.152180e-03
   7711.18    1.176081e-03
   7711.47    1.201144e-03
   7711.76    1.226208e-03
   7712.04    1.251836e-03
   7712.33    1.280572e-03
   7712.62    1.309309e-03
   7712.91    1.338045e-03
   7713.20    1.369910e-03
   7713.49    1.403166e-03
   7713.78    1.436422e-03
   7714.07    1.470980e-03
   7714.36    1.509882e-03
   7714.64    1.548785e-03
   7714.93    1.587687e-03
   7715.22    1.632112e-03
   7715.51    1.678194e-03
   7715.80    1.724276e-03
   7716.09    1.773227e-03
   7716.38    1.828634e-03
   7716.67    1.884040e-03
   7716.96    1.939447e-03
   7717.24    2.005364e-03
   7717.53    2.073193e-03
   7717.82    2.141022e-03
   7718.11    2.215423e-03
   7718.40    2.300337e-03
   7718.69    2.385252e-03
   7718.98    2.470167e-03
   7719.27    2.577685e-03
   7719.56    2.687087e-03
   7719.84    2.796488e-03
   7720.13    2.923020e-03
   7720.42    3.069536e-03
   7720.71    3.216052e-03
   7721.00    3.362568e-03
   7721.29    3.570133e-03
   7721.58    3.777698e-03
   7721.87    3.985264e-03
   7722.16    4.254628e-03
   7722.44    4.576962e-03
   7722.73    4.899297e-03
   7723.02    5.243025e-03
   7723.31    5.843485e-03
   7723.60    6.443945e-03
   7723.89    7.044405e-03
   7724.18    8.237857e-03
   7724.47    9.801930e-03
   7724.76    1.136600e-02
   7725.04    1.307264e-02
   7725.33    1.561729e-02
   7725.62    1.829770e-02
   7725.91    2.118486e-02
   7726.20    2.434990e-02
   7726.49    2.793328e-02
   7726.78    3.186418e-02
   7727.07    3.618106e-02
   7727.36    4.084544e-02
   7727.64    4.594139e-02
   7727.93    5.158923e-02
   7728.22    5.789623e-02
   7728.51    6.505483e-02
   7728.80    7.296957e-02
   7729.09    8.173426e-02
   7729.38    9.105569e-02
   7729.67    1.008017e-01
   7729.96    1.105915e-01
   7730.24    1.198830e-01
   7730.53    1.277689e-01
   7730.82    1.335373e-01
   7731.11    1.367407e-01
   7731.40    1.372972e-01
   7731.69    1.354979e-01
   7731.98    1.318848e-01
   7732.27    1.270690e-01
   7732.56    1.217251e-01
   7732.84    1.163895e-01
   7733.13    1.113918e-01
   7733.42    1.069403e-01
   7733.71    1.031481e-01
   7734.00    1.000599e-01
   7734.29    9.775287e-02
   7734.58    9.610184e-02
   7734.87    9.504648e-02
   7735.16    9.451192e-02
   7735.44    9.441180e-02
   7735.73    9.465061e-02
   7736.02    9.513520e-02
   7736.31    9.574232e-02
   7736.60    9.636208e-02
   7736.89    9.690781e-02
   7737.18    9.731120e-02
   7737.47    9.752711e-02
   7737.76    9.753230e-02
   7738.04    9.731754e-02
   7738.33    9.693397e-02
   7738.62    9.642391e-02
   7738.91    9.583545e-02
   7739.20    9.521652e-02
   7739.49    9.461006e-02
   7739.78    9.405708e-02
   7740.07    9.361250e-02
   7740.36    9.332851e-02
   7740.64    9.304453e-02
   7740.93    9.276055e-02
   7741.22    9.272558e-02
   7741.51    9.276532e-02
   7741.80    9.280505e-02
   7742.09    9.289527e-02
   7742.38    9.309906e-02
   7742.67    9.330284e-02
   7742.96    9.350663e-02
   7743.24    9.367549e-02
   7743.53    9.383801e-02
   7743.82    9.400052e-02
   7744.11    9.408807e-02
   7744.40    9.405570e-02
   7744.69    9.402332e-02
   7744.98    9.399095e-02
   7745.27    9.373310e-02
   7745.56    9.345646e-02
   7745.84    9.317982e-02
   7746.13    9.281359e-02
   7746.42    9.234283e-02
   7746.71    9.187208e-02
   7747.00    9.140132e-02
   7747.29    9.083038e-02
   7747.58    9.025944e-02
   7747.87    8.968851e-02
   7748.16    8.910850e-02
   7748.44    8.852071e-02
   7748.73    8.793293e-02
   7749.02    8.734783e-02
   7749.31    8.679500e-02
   7749.60    8.624218e-02
   7749.89    8.568935e-02
   7750.18    8.517065e-02
   7750.47    8.467329e-02
   7750.76    8.417592e-02
   7751.04    8.368630e-02
   7751.33    8.323924e-02
   7751.62    8.279218e-02
   7751.91    8.234512e-02
   7752.20    8.191763e-02
   7752.49    8.149884e-02
   7752.78    8.108006e-02
   7753.07    8.066133e-02
   7753.36    8.024280e-02
   7753.64    7.982427e-02
   7753.93    7.940575e-02
   7754.22    7.896872e-02
   7754.51    7.852615e-02
   7754.80    7.808358e-02
   7755.09    7.762946e-02
   7755.38    7.714937e-02
   7755.67    7.666928e-02
   7755.96    7.618919e-02
   7756.24    7.567965e-02
   7756.53    7.516475e-02
   7756.82    7.464986e-02
   7757.11    7.413037e-02
   7757.40    7.360352e-02
   7757.69    7.307667e-02
   7757.98    7.254982e-02
   7758.27    7.205281e-02
   7758.56    7.155829e-02
   7758.84    7.106376e-02
   7759.13    7.061078e-02
   7759.42    7.020626e-02
   7759.71    6.980174e-02
   7760.00    6.939723e-02
