 FDMNES
  energy    <xanes>
   7695.00    5.385812e-04
   7695.29    5.442303e-04
   7695.58    5.498794e-04
   7695.87    5.555284e-04
   7696.16    5.613870e-04
   7696.44    5.674250e-04
   7696.73    5.734631e-04
   7697.02    5.795342e-04
   7697.31    5.860020e-04
   7697.60    5.924697e-04
   7697.89    5.989374e-04
   7698.18    6.056982e-04
   7698.47    6.126421e-04
   7698.76    6.195859e-04
   7699.04    6.266113e-04
   7699.33    6.340846e-04
   7699.62    6.415580e-04
   7699.91    6.490313e-04
   7700.20    6.569138e-04
   7700.49    6.649782e-04
   7700.78    6.730426e-04
   7701.07    6.812599e-04
   7701.36    6.899867e-04
   7701.64    6.987135e-04
   7701.93    7.074404e-04
   7702.22    7.167408e-04
   7702.51    7.262134e-04
   7702.80    7.356859e-04
   7703.09    7.454180e-04
   7703.38    7.557340e-04
   7703.67    7.660500e-04
   7703.96    7.763660e-04
   7704.24    7.874934e-04
   7704.53    7.987684e-04
   7704.82    8.100434e-04
   7705.11    8.217400e-04
   7705.40    8.341114e-04
   7705.69    8.464827e-04
   7705.98    8.588541e-04
   7706.27    8.723897e-04
   7706.56    8.860223e-04
   7706.84    8.996550e-04
   7707.13    9.139618e-04
   7707.42    9.290552e-04
   7707.71    9.441487e-04
   7708.00    9.592421e-04
   7708.29    9.760401e-04
   7708.58    9.928381e-04
   7708.87    1.009636e-03
   7709.16    1.027514e-03
   7709.44    1.046318e-03
   7709.73    1.065122e-03
   7710.02    1.084109e-03
   7710.31    1.105295e-03
   7710.60    1.126481e-03
   7710.89    1.147667e-03
   7711.18    1.170612e-03
   7711.47    1.194657e-03
   7711.76    1.218703e-03
   7712.04    1.243282e-03
   7712.33    1.270800e-03
   7712.62    1.298319e-03
   7712.91    1.325837e-03
   7713.20    1.356317e-03
   7713.49    1.388113e-03
   7713.78    1.419908e-03
   7714.07    1.452940e-03
   7714.36    1.490088e-03
   7714.64    1.527237e-03
   7714.93    1.564386e-03
   7715.22    1.606787e-03
   7715.51    1.650762e-03
   7715.80    1.694738e-03
   7716.09    1.741455e-03
   7716.38    1.794338e-03
   7716.67    1.847221e-03
   7716.96    1.900104e-03
   7717.24    1.963099e-03
   7717.53    2.027932e-03
   7717.82    2.092765e-03
   7718.11    2.163985e-03
   7718.40    2.245425e-03
   7718.69    2.326865e-03
   7718.98    2.408305e-03
   7719.27    2.512056e-03
   7719.56    2.617667e-03
   7719.84    2.723278e-03
   7720.13    2.846197e-03
   7720.42    2.989307e-03
   7720.71    3.132418e-03
   7721.00    3.275528e-03
   7721.29    3.482606e-03
   7721.58    3.689684e-03
   7721.87    3.896762e-03
   7722.16    4.172565e-03
   7722.44    4.507276e-03
   7722.73    4.841987e-03
   7723.02    5.203017e-03
   7723.31    5.879875e-03
   7723.60    6.556734e-03
   7723.89    7.233592e-03
   7724.18    8.705865e-03
   7724.47    1.067527e-02
   7724.76    1.264468e-02
   7725.04    1.476558e-02
   7725.33    1.764994e-02
   7725.62    2.028859e-02
   7725.91    2.280205e-02
   7726.20    2.543321e-02
   7726.49    2.840367e-02
   7726.78    3.174555e-02
   7727.07    3.560346e-02
   7727.36    4.000015e-02
   7727.64    4.506204e-02
   7727.93    5.089089e-02
   7728.22    5.751840e-02
   7728.51    6.501179e-02
   7728.80    7.307872e-02
   7729.09    8.135577e-02
   7729.38    8.916529e-02
   7729.67    9.551431e-02
   7729.96    9.983713e-02
   7730.24    1.017853e-01
   7730.53    1.014313e-01
   7730.82    9.962795e-02
   7731.11    9.715389e-02
   7731.40    9.461895e-02
   7731.69    9.240775e-02
   7731.98    9.068785e-02
   7732.27    8.949429e-02
   7732.56    8.875256e-02
   7732.84    8.834210e-02
   7733.13    8.819612e-02
   7733.42    8.827392e-02
   7733.71    8.855509e-02
   7734.00    8.903210e-02
   7734.29    8.972996e-02
   7734.58    9.063030e-02
   7734.87    9.173381e-02
   7735.16    9.303205e-02
   7735.44    9.450414e-02
   7735.73    9.611473e-02
   7736.02    9.781499e-02
   7736.31    9.952825e-02
   7736.60    1.011750e-01
   7736.89    1.026786e-01
   7737.18    1.039693e-01
   7737.47    1.049939e-01
   7737.76    1.057169e-01
   7738.04    1.061128e-01
   7738.33    1.062417e-01
   7738.62    1.061522e-01
   7738.91    1.059034e-01
   7739.20    1.055577e-01
   7739.49    1.051730e-01
   7739.78    1.048021e-01
   7740.07    1.045111e-01
   7740.36    1.043578e-01
   7740.64    1.042045e-01
   7740.93    1.040513e-01
   7741.22    1.041205e-01
   7741.51    1.042565e-01
   7741.80    1.043925e-01
   7742.09    1.045540e-01
   7742.38    1.047730e-01
   7742.67    1.049919e-01
   7742.96    1.052109e-01
   7743.24    1.052636e-01
   7743.53    1.052862e-01
   7743.82    1.053088e-01
   7744.11    1.051894e-01
   7744.40    1.048429e-01
   7744.69    1.044964e-01
   7744.98    1.041500e-01
   7745.27    1.034797e-01
   7745.56    1.027824e-01
   7745.84    1.020851e-01
   7746.13    1.012969e-01
   7746.42    1.004026e-01
   7746.71    9.950826e-02
   7747.00    9.861395e-02
   7747.29    9.769029e-02
   7747.58    9.676664e-02
   7747.87    9.584298e-02
   7748.16    9.496193e-02
   7748.44    9.411739e-02
   7748.73    9.327285e-02
   7749.02    9.243786e-02
   7749.31    9.171744e-02
   7749.60    9.099702e-02
   7749.89    9.027660e-02
   7750.18    8.963452e-02
   7750.47    8.904140e-02
   7750.76    8.844829e-02
   7751.04    8.787164e-02
   7751.33    8.738554e-02
   7751.62    8.689943e-02
   7751.91    8.641333e-02
   7752.20    8.597929e-02
   7752.49    8.556838e-02
   7752.78    8.515747e-02
   7753.07    8.475599e-02
   7753.36    8.438596e-02
   7753.64    8.401593e-02
   7753.93    8.364589e-02
   7754.22    8.328303e-02
   7754.51    8.292231e-02
   7754.80    8.256160e-02
   7755.09    8.219585e-02
   7755.38    8.181879e-02
   7755.67    8.144173e-02
   7755.96    8.106467e-02
   7756.24    8.066079e-02
   7756.53    8.025203e-02
   7756.82    7.984327e-02
   7757.11    7.942321e-02
   7757.40    7.898508e-02
   7757.69    7.854694e-02
   7757.98    7.810881e-02
   7758.27    7.767100e-02
   7758.56    7.723321e-02
   7758.84    7.679542e-02
   7759.13    7.638556e-02
   7759.42    7.600828e-02
   7759.71    7.563100e-02
   7760.00    7.525373e-02
