 FDMNES
  energy    <xanes>
   7695.00    5.341331e-04
   7695.29    5.397158e-04
   7695.58    5.452984e-04
   7695.87    5.508810e-04
   7696.16    5.566705e-04
   7696.44    5.626375e-04
   7696.73    5.686044e-04
   7697.02    5.746040e-04
   7697.31    5.809954e-04
   7697.60    5.873868e-04
   7697.89    5.937782e-04
   7698.18    6.004591e-04
   7698.47    6.073210e-04
   7698.76    6.141828e-04
   7699.04    6.211252e-04
   7699.33    6.285103e-04
   7699.62    6.358953e-04
   7699.91    6.432804e-04
   7700.20    6.510699e-04
   7700.49    6.590390e-04
   7700.78    6.670082e-04
   7701.07    6.751285e-04
   7701.36    6.837524e-04
   7701.64    6.923763e-04
   7701.93    7.010001e-04
   7702.22    7.101910e-04
   7702.51    7.195520e-04
   7702.80    7.289131e-04
   7703.09    7.385306e-04
   7703.38    7.487254e-04
   7703.67    7.589203e-04
   7703.96    7.691151e-04
   7704.24    7.801121e-04
   7704.53    7.912550e-04
   7704.82    8.023979e-04
   7705.11    8.139577e-04
   7705.40    8.261847e-04
   7705.69    8.384116e-04
   7705.98    8.506386e-04
   7706.27    8.640168e-04
   7706.56    8.774909e-04
   7706.84    8.909650e-04
   7707.13    9.051058e-04
   7707.42    9.200245e-04
   7707.71    9.349431e-04
   7708.00    9.498618e-04
   7708.29    9.664662e-04
   7708.58    9.830705e-04
   7708.87    9.996749e-04
   7709.16    1.017347e-03
   7709.44    1.035935e-03
   7709.73    1.054523e-03
   7710.02    1.073292e-03
   7710.31    1.094235e-03
   7710.60    1.115179e-03
   7710.89    1.136122e-03
   7711.18    1.158805e-03
   7711.47    1.182576e-03
   7711.76    1.206346e-03
   7712.04    1.230645e-03
   7712.33    1.257848e-03
   7712.62    1.285052e-03
   7712.91    1.312255e-03
   7713.20    1.342385e-03
   7713.49    1.373815e-03
   7713.78    1.405246e-03
   7714.07    1.437896e-03
   7714.36    1.474613e-03
   7714.64    1.511331e-03
   7714.93    1.548048e-03
   7715.22    1.589949e-03
   7715.51    1.633404e-03
   7715.80    1.676860e-03
   7716.09    1.723018e-03
   7716.38    1.775256e-03
   7716.67    1.827494e-03
   7716.96    1.879733e-03
   7717.24    1.941928e-03
   7717.53    2.005935e-03
   7717.82    2.069941e-03
   7718.11    2.140226e-03
   7718.40    2.220558e-03
   7718.69    2.300890e-03
   7718.98    2.381222e-03
   7719.27    2.483438e-03
   7719.56    2.587477e-03
   7719.84    2.691517e-03
   7720.13    2.812479e-03
   7720.42    2.953185e-03
   7720.71    3.093891e-03
   7721.00    3.234597e-03
   7721.29    3.437577e-03
   7721.58    3.640557e-03
   7721.87    3.843537e-03
   7722.16    4.112959e-03
   7722.44    4.439330e-03
   7722.73    4.765702e-03
   7723.02    5.117182e-03
   7723.31    5.769956e-03
   7723.60    6.422729e-03
   7723.89    7.075503e-03
   7724.18    8.486652e-03
   7724.47    1.037178e-02
   7724.76    1.225692e-02
   7725.04    1.430555e-02
   7725.33    1.723569e-02
   7725.62    2.004283e-02
   7725.91    2.274333e-02
   7726.20    2.548426e-02
   7726.49    2.840151e-02
   7726.78    3.152084e-02
   7727.07    3.491499e-02
   7727.36    3.859583e-02
   7727.64    4.266403e-02
   7727.93    4.724943e-02
   7728.22    5.246033e-02
   7728.51    5.846243e-02
   7728.80    6.514626e-02
   7729.09    7.257737e-02
   7729.38    8.046325e-02
   7729.67    8.858081e-02
   7729.96    9.647274e-02
   7730.24    1.035215e-01
   7730.53    1.088574e-01
   7730.82    1.120584e-01
   7731.11    1.130428e-01
   7731.40    1.120549e-01
   7731.69    1.095858e-01
   7731.98    1.062287e-01
   7732.27    1.025497e-01
   7732.56    9.903236e-02
   7732.84    9.594561e-02
   7733.13    9.342098e-02
   7733.42    9.150184e-02
   7733.71    9.017432e-02
   7734.00    8.939186e-02
   7734.29    8.914123e-02
   7734.58    8.929055e-02
   7734.87    8.977112e-02
   7735.16    9.051453e-02
   7735.44    9.145238e-02
   7735.73    9.251662e-02
   7736.02    9.363984e-02
   7736.31    9.474761e-02
   7736.60    9.577889e-02
   7736.89    9.668286e-02
   7737.18    9.741954e-02
   7737.47    9.796242e-02
   7737.76    9.829673e-02
   7738.04    9.841162e-02
   7738.33    9.834898e-02
   7738.62    9.813928e-02
   7738.91    9.781867e-02
   7739.20    9.742515e-02
   7739.49    9.699510e-02
   7739.78    9.656259e-02
   7740.07    9.617643e-02
   7740.36    9.588398e-02
   7740.64    9.559154e-02
   7740.93    9.529909e-02
   7741.22    9.521535e-02
   7741.51    9.519422e-02
   7741.80    9.517309e-02
   7742.09    9.522414e-02
   7742.38    9.543758e-02
   7742.67    9.565101e-02
   7742.96    9.586445e-02
   7743.24    9.617358e-02
   7743.53    9.650011e-02
   7743.82    9.682663e-02
   7744.11    9.714129e-02
   7744.40    9.743696e-02
   7744.69    9.773262e-02
   7744.98    9.802829e-02
   7745.27    9.817271e-02
   7745.56    9.830453e-02
   7745.84    9.843635e-02
   7746.13    9.844919e-02
   7746.42    9.832324e-02
   7746.71    9.819728e-02
   7747.00    9.807133e-02
   7747.29    9.766515e-02
   7747.58    9.725897e-02
   7747.87    9.685279e-02
   7748.16    9.632946e-02
   7748.44    9.570570e-02
   7748.73    9.508195e-02
   7749.02    9.445025e-02
   7749.31    9.372310e-02
   7749.60    9.299596e-02
   7749.89    9.226881e-02
   7750.18    9.154331e-02
   7750.47    9.081884e-02
   7750.76    9.009437e-02
   7751.04    8.937968e-02
   7751.33    8.871878e-02
   7751.62    8.805787e-02
   7751.91    8.739697e-02
   7752.20    8.679082e-02
   7752.49    8.620900e-02
   7752.78    8.562718e-02
   7753.07    8.506068e-02
   7753.36    8.454523e-02
   7753.64    8.402978e-02
   7753.93    8.351434e-02
   7754.22    8.303321e-02
   7754.51    8.256238e-02
   7754.80    8.209155e-02
   7755.09    8.162906e-02
   7755.38    8.118534e-02
   7755.67    8.074162e-02
   7755.96    8.029790e-02
   7756.24    7.986881e-02
   7756.53    7.944238e-02
   7756.82    7.901595e-02
   7757.11    7.859751e-02
   7757.40    7.819185e-02
   7757.69    7.778619e-02
   7757.98    7.738054e-02
   7758.27    7.701248e-02
   7758.56    7.664756e-02
   7758.84    7.628264e-02
   7759.13    7.595087e-02
   7759.42    7.565778e-02
   7759.71    7.536468e-02
   7760.00    7.507159e-02
