 FDMNES
  energy    <xanes>
   7695.00    5.006474e-04
   7695.29    5.062721e-04
   7695.58    5.118968e-04
   7695.87    5.175215e-04
   7696.16    5.233643e-04
   7696.44    5.293941e-04
   7696.73    5.354238e-04
   7697.02    5.414881e-04
   7697.31    5.479666e-04
   7697.60    5.544451e-04
   7697.89    5.609236e-04
   7698.18    5.677091e-04
   7698.47    5.746864e-04
   7698.76    5.816636e-04
   7699.04    5.887265e-04
   7699.33    5.962601e-04
   7699.62    6.037937e-04
   7699.91    6.113273e-04
   7700.20    6.192922e-04
   7700.49    6.274488e-04
   7700.78    6.356055e-04
   7701.07    6.439237e-04
   7701.36    6.527809e-04
   7701.64    6.616380e-04
   7701.93    6.704951e-04
   7702.22    6.799609e-04
   7702.51    6.896092e-04
   7702.80    6.992575e-04
   7703.09    7.091821e-04
   7703.38    7.197284e-04
   7703.67    7.302747e-04
   7703.96    7.408210e-04
   7704.24    7.522342e-04
   7704.53    7.638049e-04
   7704.82    7.753757e-04
   7705.11    7.873986e-04
   7705.40    8.001448e-04
   7705.69    8.128911e-04
   7705.98    8.256373e-04
   7706.27    8.396363e-04
   7706.56    8.537397e-04
   7706.84    8.678431e-04
   7707.13    8.826747e-04
   7707.42    8.983559e-04
   7707.71    9.140370e-04
   7708.00    9.297181e-04
   7708.29    9.472472e-04
   7708.58    9.647764e-04
   7708.87    9.823055e-04
   7709.16    1.001010e-03
   7709.44    1.020722e-03
   7709.73    1.040434e-03
   7710.02    1.060346e-03
   7710.31    1.082660e-03
   7710.60    1.104974e-03
   7710.89    1.127289e-03
   7711.18    1.151533e-03
   7711.47    1.176983e-03
   7711.76    1.202433e-03
   7712.04    1.228471e-03
   7712.33    1.257744e-03
   7712.62    1.287017e-03
   7712.91    1.316291e-03
   7713.20    1.348836e-03
   7713.49    1.382835e-03
   7713.78    1.416835e-03
   7714.07    1.452203e-03
   7714.36    1.492138e-03
   7714.64    1.532072e-03
   7714.93    1.572006e-03
   7715.22    1.617781e-03
   7715.51    1.665308e-03
   7715.80    1.712835e-03
   7716.09    1.763417e-03
   7716.38    1.820875e-03
   7716.67    1.878332e-03
   7716.96    1.935789e-03
   7717.24    2.004537e-03
   7717.53    2.075337e-03
   7717.82    2.146138e-03
   7718.11    2.224070e-03
   7718.40    2.313413e-03
   7718.69    2.402756e-03
   7718.98    2.492099e-03
   7719.27    2.606290e-03
   7719.56    2.722552e-03
   7719.84    2.838814e-03
   7720.13    2.974217e-03
   7720.42    3.131953e-03
   7720.71    3.289689e-03
   7721.00    3.447424e-03
   7721.29    3.674874e-03
   7721.58    3.902324e-03
   7721.87    4.129773e-03
   7722.16    4.429942e-03
   7722.44    4.792443e-03
   7722.73    5.154943e-03
   7723.02    5.543734e-03
   7723.31    6.248009e-03
   7723.60    6.952284e-03
   7723.89    7.656560e-03
   7724.18    9.120919e-03
   7724.47    1.106033e-02
   7724.76    1.299974e-02
   7725.04    1.511583e-02
   7725.33    1.823792e-02
   7725.62    2.140424e-02
   7725.91    2.464781e-02
   7726.20    2.807044e-02
   7726.49    3.181814e-02
   7726.78    3.589104e-02
   7727.07    4.047595e-02
   7727.36    4.573359e-02
   7727.64    5.198782e-02
   7727.93    5.946706e-02
   7728.22    6.819600e-02
   7728.51    7.821620e-02
   7728.80    8.905164e-02
   7729.09    1.000522e-01
   7729.38    1.100549e-01
   7729.67    1.173834e-01
   7729.96    1.214811e-01
   7730.24    1.224849e-01
   7730.53    1.212648e-01
   7730.82    1.190857e-01
   7731.11    1.166011e-01
   7731.40    1.140734e-01
   7731.69    1.115710e-01
   7731.98    1.091036e-01
   7732.27    1.066955e-01
   7732.56    1.044077e-01
   7732.84    1.023104e-01
   7733.13    1.004722e-01
   7733.42    9.893777e-02
   7733.71    9.772550e-02
   7734.00    9.683229e-02
   7734.29    9.627050e-02
   7734.58    9.596668e-02
   7734.87    9.587488e-02
   7735.16    9.594126e-02
   7735.44    9.610721e-02
   7735.73    9.631337e-02
   7736.02    9.650031e-02
   7736.31    9.661829e-02
   7736.60    9.664204e-02
   7736.89    9.656300e-02
   7737.18    9.639033e-02
   7737.47    9.614829e-02
   7737.76    9.587190e-02
   7738.04    9.560685e-02
   7738.33    9.539484e-02
   7738.62    9.526930e-02
   7738.91    9.525573e-02
   7739.20    9.537067e-02
   7739.49    9.562165e-02
   7739.78    9.601838e-02
   7740.07    9.656395e-02
   7740.36    9.725649e-02
   7740.64    9.794904e-02
   7740.93    9.864158e-02
   7741.22    9.935649e-02
   7741.51    1.000781e-01
   7741.80    1.007997e-01
   7742.09    1.014177e-01
   7742.38    1.018024e-01
   7742.67    1.021872e-01
   7742.96    1.025720e-01
   7743.24    1.024869e-01
   7743.53    1.023165e-01
   7743.82    1.021461e-01
   7744.11    1.017723e-01
   7744.40    1.010730e-01
   7744.69    1.003738e-01
   7744.98    9.967460e-02
   7745.27    9.867518e-02
   7745.56    9.765074e-02
   7745.84    9.662630e-02
   7746.13    9.555796e-02
   7746.42    9.443840e-02
   7746.71    9.331884e-02
   7747.00    9.219928e-02
   7747.29    9.114308e-02
   7747.58    9.008688e-02
   7747.87    8.903068e-02
   7748.16    8.804638e-02
   7748.44    8.712371e-02
   7748.73    8.620104e-02
   7749.02    8.528912e-02
   7749.31    8.450623e-02
   7749.60    8.372334e-02
   7749.89    8.294044e-02
   7750.18    8.222607e-02
   7750.47    8.155452e-02
   7750.76    8.088296e-02
   7751.04    8.022217e-02
   7751.33    7.962051e-02
   7751.62    7.901886e-02
   7751.91    7.841721e-02
   7752.20    7.783519e-02
   7752.49    7.726190e-02
   7752.78    7.668861e-02
   7753.07    7.611380e-02
   7753.36    7.553391e-02
   7753.64    7.495403e-02
   7753.93    7.437415e-02
   7754.22    7.377042e-02
   7754.51    7.315954e-02
   7754.80    7.254865e-02
   7755.09    7.192526e-02
   7755.38    7.127371e-02
   7755.67    7.062217e-02
   7755.96    6.997062e-02
   7756.24    6.929314e-02
   7756.53    6.861094e-02
   7756.82    6.792875e-02
   7757.11    6.724758e-02
   7757.40    6.656806e-02
   7757.69    6.588854e-02
   7757.98    6.520901e-02
   7758.27    6.458295e-02
   7758.56    6.396134e-02
   7758.84    6.333973e-02
   7759.13    6.277439e-02
   7759.42    6.227468e-02
   7759.71    6.177498e-02
   7760.00    6.127527e-02
