 FDMNES
  energy    <xanes>
   7695.00    5.356404e-04
   7695.29    5.412529e-04
   7695.58    5.468655e-04
   7695.87    5.524780e-04
   7696.16    5.582982e-04
   7696.44    5.642962e-04
   7696.73    5.702943e-04
   7697.02    5.763251e-04
   7697.31    5.827488e-04
   7697.60    5.891725e-04
   7697.89    5.955962e-04
   7698.18    6.023100e-04
   7698.47    6.092052e-04
   7698.76    6.161004e-04
   7699.04    6.230762e-04
   7699.33    6.304955e-04
   7699.62    6.379147e-04
   7699.91    6.453340e-04
   7700.20    6.531581e-04
   7700.49    6.611621e-04
   7700.78    6.691661e-04
   7701.07    6.773213e-04
   7701.36    6.859803e-04
   7701.64    6.946394e-04
   7701.93    7.032985e-04
   7702.22    7.125244e-04
   7702.51    7.219205e-04
   7702.80    7.313165e-04
   7703.09    7.409689e-04
   7703.38    7.511981e-04
   7703.67    7.614272e-04
   7703.96    7.716563e-04
   7704.24    7.826864e-04
   7704.53    7.938620e-04
   7704.82    8.050377e-04
   7705.11    8.166293e-04
   7705.40    8.288863e-04
   7705.69    8.411434e-04
   7705.98    8.534004e-04
   7706.27    8.668049e-04
   7706.56    8.803049e-04
   7706.84    8.938050e-04
   7707.13    9.079689e-04
   7707.42    9.229074e-04
   7707.71    9.378459e-04
   7708.00    9.527844e-04
   7708.29    9.693997e-04
   7708.58    9.860150e-04
   7708.87    1.002630e-03
   7709.16    1.020307e-03
   7709.44    1.038894e-03
   7709.73    1.057480e-03
   7710.02    1.076246e-03
   7710.31    1.097171e-03
   7710.60    1.118096e-03
   7710.89    1.139021e-03
   7711.18    1.161671e-03
   7711.47    1.185399e-03
   7711.76    1.209127e-03
   7712.04    1.233379e-03
   7712.33    1.260508e-03
   7712.62    1.287638e-03
   7712.91    1.314767e-03
   7713.20    1.344792e-03
   7713.49    1.376105e-03
   7713.78    1.407418e-03
   7714.07    1.439937e-03
   7714.36    1.476478e-03
   7714.64    1.513019e-03
   7714.93    1.549561e-03
   7715.22    1.591226e-03
   7715.51    1.634428e-03
   7715.80    1.677630e-03
   7716.09    1.723504e-03
   7716.38    1.775389e-03
   7716.67    1.827275e-03
   7716.96    1.879160e-03
   7717.24    1.940900e-03
   7717.53    2.004432e-03
   7717.82    2.067965e-03
   7718.11    2.137728e-03
   7718.40    2.217461e-03
   7718.69    2.297194e-03
   7718.98    2.376928e-03
   7719.27    2.478496e-03
   7719.56    2.581883e-03
   7719.84    2.685271e-03
   7720.13    2.805716e-03
   7720.42    2.946063e-03
   7720.71    3.086409e-03
   7721.00    3.226756e-03
   7721.29    3.431056e-03
   7721.58    3.635356e-03
   7721.87    3.839656e-03
   7722.16    4.114526e-03
   7722.44    4.449886e-03
   7722.73    4.785245e-03
   7723.02    5.148839e-03
   7723.31    5.851251e-03
   7723.60    6.553663e-03
   7723.89    7.256074e-03
   7724.18    8.869913e-03
   7724.47    1.105339e-02
   7724.76    1.323687e-02
   7725.04    1.561488e-02
   7725.33    1.896887e-02
   7725.62    2.182247e-02
   7725.91    2.395790e-02
   7726.20    2.569013e-02
   7726.49    2.731819e-02
   7726.78    2.912384e-02
   7727.07    3.133510e-02
   7727.36    3.403391e-02
   7727.64    3.734503e-02
   7727.93    4.134866e-02
   7728.22    4.607761e-02
   7728.51    5.167696e-02
   7728.80    5.805266e-02
   7729.09    6.537199e-02
   7729.38    7.335321e-02
   7729.67    8.180258e-02
   7729.96    9.018250e-02
   7730.24    9.779295e-02
   7730.53    1.036740e-01
   7730.82    1.073754e-01
   7731.11    1.089013e-01
   7731.40    1.086584e-01
   7731.69    1.072666e-01
   7731.98    1.053242e-01
   7732.27    1.032801e-01
   7732.56    1.014095e-01
   7732.84    9.979952e-02
   7733.13    9.846391e-02
   7733.42    9.738929e-02
   7733.71    9.655734e-02
   7734.00    9.595384e-02
   7734.29    9.559694e-02
   7734.58    9.545774e-02
   7734.87    9.553374e-02
   7735.16    9.581769e-02
   7735.44    9.629424e-02
   7735.73    9.693805e-02
   7736.02    9.771935e-02
   7736.31    9.858397e-02
   7736.60    9.947478e-02
   7736.89    1.003410e-01
   7737.18    1.011368e-01
   7737.47    1.018253e-01
   7737.76    1.023801e-01
   7738.04    1.027802e-01
   7738.33    1.030475e-01
   7738.62    1.032013e-01
   7738.91    1.032689e-01
   7739.20    1.032815e-01
   7739.49    1.032703e-01
   7739.78    1.032661e-01
   7740.07    1.033102e-01
   7740.36    1.034396e-01
   7740.64    1.035691e-01
   7740.93    1.036985e-01
   7741.22    1.039625e-01
   7741.51    1.042668e-01
   7741.80    1.045712e-01
   7742.09    1.048775e-01
   7742.38    1.051883e-01
   7742.67    1.054991e-01
   7742.96    1.058100e-01
   7743.24    1.059223e-01
   7743.53    1.059985e-01
   7743.82    1.060747e-01
   7744.11    1.059986e-01
   7744.40    1.056786e-01
   7744.69    1.053587e-01
   7744.98    1.050387e-01
   7745.27    1.043546e-01
   7745.56    1.036402e-01
   7745.84    1.029258e-01
   7746.13    1.020900e-01
   7746.42    1.011127e-01
   7746.71    1.001354e-01
   7747.00    9.915812e-02
   7747.29    9.808603e-02
   7747.58    9.701395e-02
   7747.87    9.594186e-02
   7748.16    9.489692e-02
   7748.44    9.387524e-02
   7748.73    9.285357e-02
   7749.02    9.184330e-02
   7749.31    9.096992e-02
   7749.60    9.009654e-02
   7749.89    8.922316e-02
   7750.18    8.845779e-02
   7750.47    8.775991e-02
   7750.76    8.706204e-02
   7751.04    8.638813e-02
   7751.33    8.584600e-02
   7751.62    8.530388e-02
   7751.91    8.476176e-02
   7752.20    8.430031e-02
   7752.49    8.387471e-02
   7752.78    8.344912e-02
   7753.07    8.303997e-02
   7753.36    8.268565e-02
   7753.64    8.233134e-02
   7753.93    8.197702e-02
   7754.22    8.164459e-02
   7754.51    8.131872e-02
   7754.80    8.099285e-02
   7755.09    8.066508e-02
   7755.38    8.033303e-02
   7755.67    8.000098e-02
   7755.96    7.966893e-02
   7756.24    7.931358e-02
   7756.53    7.895399e-02
   7756.82    7.859440e-02
   7757.11    7.822358e-02
   7757.40    7.783481e-02
   7757.69    7.744604e-02
   7757.98    7.705727e-02
   7758.27    7.666580e-02
   7758.56    7.627409e-02
   7758.84    7.588239e-02
   7759.13    7.551483e-02
   7759.42    7.517544e-02
   7759.71    7.483605e-02
   7760.00    7.449666e-02
