 FDMNES
  energy    <xanes>
   7695.00    5.306045e-04
   7695.29    5.362109e-04
   7695.58    5.418173e-04
   7695.87    5.474238e-04
   7696.16    5.532387e-04
   7696.44    5.592324e-04
   7696.73    5.652260e-04
   7697.02    5.712525e-04
   7697.31    5.776738e-04
   7697.60    5.840951e-04
   7697.89    5.905163e-04
   7698.18    5.972292e-04
   7698.47    6.041243e-04
   7698.76    6.110194e-04
   7699.04    6.179955e-04
   7699.33    6.254174e-04
   7699.62    6.328394e-04
   7699.91    6.402613e-04
   7700.20    6.480903e-04
   7700.49    6.561001e-04
   7700.78    6.641100e-04
   7701.07    6.722719e-04
   7701.36    6.809406e-04
   7701.64    6.896093e-04
   7701.93    6.982780e-04
   7702.22    7.075170e-04
   7702.51    7.169271e-04
   7702.80    7.263371e-04
   7703.09    7.360051e-04
   7703.38    7.462533e-04
   7703.67    7.565016e-04
   7703.96    7.667498e-04
   7704.24    7.778039e-04
   7704.53    7.890046e-04
   7704.82    8.002052e-04
   7705.11    8.118244e-04
   7705.40    8.241133e-04
   7705.69    8.364021e-04
   7705.98    8.486910e-04
   7706.27    8.621344e-04
   7706.56    8.756741e-04
   7706.84    8.892138e-04
   7707.13    9.034214e-04
   7707.42    9.184083e-04
   7707.71    9.333952e-04
   7708.00    9.483821e-04
   7708.29    9.650557e-04
   7708.58    9.817294e-04
   7708.87    9.984031e-04
   7709.16    1.016144e-03
   7709.44    1.034799e-03
   7709.73    1.053455e-03
   7710.02    1.072291e-03
   7710.31    1.093296e-03
   7710.60    1.114301e-03
   7710.89    1.135306e-03
   7711.18    1.158043e-03
   7711.47    1.181862e-03
   7711.76    1.205682e-03
   7712.04    1.230025e-03
   7712.33    1.257254e-03
   7712.62    1.284482e-03
   7712.91    1.311711e-03
   7713.20    1.341837e-03
   7713.49    1.373251e-03
   7713.78    1.404666e-03
   7714.07    1.437284e-03
   7714.36    1.473916e-03
   7714.64    1.510547e-03
   7714.93    1.547179e-03
   7715.22    1.588905e-03
   7715.51    1.632160e-03
   7715.80    1.675414e-03
   7716.09    1.721311e-03
   7716.38    1.773154e-03
   7716.67    1.824998e-03
   7716.96    1.876841e-03
   7717.24    1.938362e-03
   7717.53    2.001642e-03
   7717.82    2.064923e-03
   7718.11    2.134260e-03
   7718.40    2.213286e-03
   7718.69    2.292312e-03
   7718.98    2.371338e-03
   7719.27    2.471265e-03
   7719.56    2.572934e-03
   7719.84    2.674603e-03
   7720.13    2.792231e-03
   7720.42    2.928478e-03
   7720.71    3.064726e-03
   7721.00    3.200973e-03
   7721.29    3.394972e-03
   7721.58    3.588970e-03
   7721.87    3.782969e-03
   7722.16    4.037213e-03
   7722.44    4.343097e-03
   7722.73    4.648980e-03
   7723.02    4.976975e-03
   7723.31    5.570311e-03
   7723.60    6.163647e-03
   7723.89    6.756982e-03
   7724.18    8.000700e-03
   7724.47    9.650907e-03
   7724.76    1.130111e-02
   7725.04    1.309103e-02
   7725.33    1.563973e-02
   7725.62    1.811505e-02
   7725.91    2.057483e-02
   7726.20    2.315851e-02
   7726.49    2.599498e-02
   7726.78    2.904736e-02
   7727.07    3.232379e-02
   7727.36    3.581005e-02
   7727.64    3.962580e-02
   7727.93    4.395212e-02
   7728.22    4.894879e-02
   7728.51    5.484960e-02
   7728.80    6.159878e-02
   7729.09    6.940301e-02
   7729.38    7.796701e-02
   7729.67    8.711090e-02
   7729.96    9.628404e-02
   7730.24    1.048056e-01
   7730.53    1.117450e-01
   7730.82    1.165814e-01
   7731.11    1.191434e-01
   7731.40    1.195968e-01
   7731.69    1.183451e-01
   7731.98    1.158724e-01
   7732.27    1.126206e-01
   7732.56    1.090269e-01
   7732.84    1.054394e-01
   7733.13    1.020865e-01
   7733.42    9.912543e-02
   7733.71    9.665061e-02
   7734.00    9.470610e-02
   7734.29    9.336014e-02
   7734.58    9.252397e-02
   7734.87    9.215670e-02
   7735.16    9.220619e-02
   7735.44    9.261169e-02
   7735.73    9.330538e-02
   7736.02    9.422282e-02
   7736.31    9.527137e-02
   7736.60    9.636327e-02
   7736.89    9.742588e-02
   7737.18    9.839641e-02
   7737.47    9.922656e-02
   7737.76    9.988298e-02
   7738.04    1.003405e-01
   7738.33    1.006293e-01
   7738.62    1.007749e-01
   7738.91    1.008117e-01
   7739.20    1.007774e-01
   7739.49    1.007082e-01
   7739.78    1.006375e-01
   7740.07    1.006069e-01
   7740.36    1.006519e-01
   7740.64    1.006968e-01
   7740.93    1.007418e-01
   7741.22    1.009126e-01
   7741.51    1.011212e-01
   7741.80    1.013298e-01
   7742.09    1.015516e-01
   7742.38    1.018034e-01
   7742.67    1.020551e-01
   7742.96    1.023069e-01
   7743.24    1.024523e-01
   7743.53    1.025785e-01
   7743.82    1.027046e-01
   7744.11    1.027299e-01
   7744.40    1.025938e-01
   7744.69    1.024578e-01
   7744.98    1.023217e-01
   7745.27    1.018886e-01
   7745.56    1.014308e-01
   7745.84    1.009729e-01
   7746.13    1.003846e-01
   7746.42    9.964389e-02
   7746.71    9.890322e-02
   7747.00    9.816255e-02
   7747.29    9.725843e-02
   7747.58    9.635431e-02
   7747.87    9.545019e-02
   7748.16    9.453844e-02
   7748.44    9.362014e-02
   7748.73    9.270185e-02
   7749.02    9.179152e-02
   7749.31    9.097676e-02
   7749.60    9.016199e-02
   7749.89    8.934723e-02
   7750.18    8.861886e-02
   7750.47    8.794447e-02
   7750.76    8.727009e-02
   7751.04    8.661456e-02
   7751.33    8.606267e-02
   7751.62    8.551079e-02
   7751.91    8.495891e-02
   7752.20    8.446636e-02
   7752.49    8.400019e-02
   7752.78    8.353401e-02
   7753.07    8.307849e-02
   7753.36    8.265851e-02
   7753.64    8.223853e-02
   7753.93    8.181855e-02
   7754.22    8.140740e-02
   7754.51    8.099890e-02
   7754.80    8.059039e-02
   7755.09    8.017766e-02
   7755.38    7.975543e-02
   7755.67    7.933319e-02
   7755.96    7.891096e-02
   7756.24    7.846799e-02
   7756.53    7.802124e-02
   7756.82    7.757450e-02
   7757.11    7.712172e-02
   7757.40    7.665928e-02
   7757.69    7.619685e-02
   7757.98    7.573441e-02
   7758.27    7.528782e-02
   7758.56    7.484254e-02
   7758.84    7.439727e-02
   7759.13    7.398508e-02
   7759.42    7.361150e-02
   7759.71    7.323792e-02
   7760.00    7.286434e-02
