 FDMNES
  energy    <xanes>
   7695.00    5.181602e-04
   7695.29    5.239580e-04
   7695.58    5.297558e-04
   7695.87    5.355535e-04
   7696.16    5.415772e-04
   7696.44    5.477944e-04
   7696.73    5.540117e-04
   7697.02    5.602647e-04
   7697.31    5.669470e-04
   7697.60    5.736292e-04
   7697.89    5.803115e-04
   7698.18    5.873121e-04
   7698.47    5.945116e-04
   7698.76    6.017112e-04
   7699.04    6.089996e-04
   7699.33    6.167766e-04
   7699.62    6.245537e-04
   7699.91    6.323308e-04
   7700.20    6.405559e-04
   7700.49    6.489803e-04
   7700.78    6.574046e-04
   7701.07    6.659970e-04
   7701.36    6.751499e-04
   7701.64    6.843027e-04
   7701.93    6.934556e-04
   7702.22    7.032421e-04
   7702.51    7.132186e-04
   7702.80    7.231951e-04
   7703.09    7.334596e-04
   7703.38    7.443720e-04
   7703.67    7.552844e-04
   7703.96    7.661968e-04
   7704.24    7.780137e-04
   7704.53    7.899950e-04
   7704.82    8.019764e-04
   7705.11    8.144300e-04
   7705.40    8.276394e-04
   7705.69    8.408488e-04
   7705.98    8.540581e-04
   7706.27    8.685780e-04
   7706.56    8.832071e-04
   7706.84    8.978362e-04
   7707.13    9.132280e-04
   7707.42    9.295098e-04
   7707.71    9.457916e-04
   7708.00    9.620733e-04
   7708.29    9.802937e-04
   7708.58    9.985141e-04
   7708.87    1.016735e-03
   7709.16    1.036190e-03
   7709.44    1.056704e-03
   7709.73    1.077217e-03
   7710.02    1.097942e-03
   7710.31    1.121194e-03
   7710.60    1.144447e-03
   7710.89    1.167699e-03
   7711.18    1.192986e-03
   7711.47    1.219543e-03
   7711.76    1.246101e-03
   7712.04    1.273280e-03
   7712.33    1.303874e-03
   7712.62    1.334469e-03
   7712.91    1.365064e-03
   7713.20    1.399120e-03
   7713.49    1.434714e-03
   7713.78    1.470307e-03
   7714.07    1.507353e-03
   7714.36    1.549235e-03
   7714.64    1.591118e-03
   7714.93    1.633001e-03
   7715.22    1.681083e-03
   7715.51    1.731026e-03
   7715.80    1.780968e-03
   7716.09    1.834159e-03
   7716.38    1.894660e-03
   7716.67    1.955161e-03
   7716.96    2.015662e-03
   7717.24    2.088186e-03
   7717.53    2.162895e-03
   7717.82    2.237604e-03
   7718.11    2.319917e-03
   7718.40    2.414394e-03
   7718.69    2.508871e-03
   7718.98    2.603349e-03
   7719.27    2.724332e-03
   7719.56    2.847524e-03
   7719.84    2.970716e-03
   7720.13    3.114318e-03
   7720.42    3.281731e-03
   7720.71    3.449143e-03
   7721.00    3.616556e-03
   7721.29    3.858118e-03
   7721.58    4.099680e-03
   7721.87    4.341241e-03
   7722.16    4.659646e-03
   7722.44    5.043916e-03
   7722.73    5.428186e-03
   7723.02    5.839822e-03
   7723.31    6.579864e-03
   7723.60    7.319906e-03
   7723.89    8.059947e-03
   7724.18    9.576631e-03
   7724.47    1.157872e-02
   7724.76    1.358080e-02
   7725.04    1.576817e-02
   7725.33    1.903602e-02
   7725.62    2.245118e-02
   7725.91    2.610289e-02
   7726.20    3.010217e-02
   7726.49    3.467678e-02
   7726.78    3.978372e-02
   7727.07    4.550438e-02
   7727.36    5.167422e-02
   7727.64    5.813749e-02
   7727.93    6.479920e-02
   7728.22    7.180986e-02
   7728.51    7.965643e-02
   7728.80    8.859347e-02
   7729.09    9.899651e-02
   7729.38    1.102237e-01
   7729.67    1.213498e-01
   7729.96    1.311078e-01
   7730.24    1.383044e-01
   7730.53    1.420258e-01
   7730.82    1.426556e-01
   7731.11    1.408747e-01
   7731.40    1.374118e-01
   7731.69    1.329036e-01
   7731.98    1.278442e-01
   7732.27    1.226115e-01
   7732.56    1.175199e-01
   7732.84    1.127693e-01
   7733.13    1.084916e-01
   7733.42    1.047645e-01
   7733.71    1.016155e-01
   7734.00    9.902871e-02
   7734.29    9.701099e-02
   7734.58    9.542705e-02
   7734.87    9.419966e-02
   7735.16    9.324954e-02
   7735.44    9.250074e-02
   7735.73    9.188533e-02
   7736.02    9.135000e-02
   7736.31    9.084986e-02
   7736.60    9.036219e-02
   7736.89    8.988302e-02
   7737.18    8.942053e-02
   7737.47    8.899089e-02
   7737.76    8.861516e-02
   7738.04    8.832115e-02
   7738.33    8.811820e-02
   7738.62    8.801625e-02
   7738.91    8.801966e-02
   7739.20    8.812773e-02
   7739.49    8.833552e-02
   7739.78    8.864171e-02
   7740.07    8.904249e-02
   7740.36    8.953465e-02
   7740.64    9.002681e-02
   7740.93    9.051897e-02
   7741.22    9.104036e-02
   7741.51    9.157053e-02
   7741.80    9.210069e-02
   7742.09    9.258408e-02
   7742.38    9.296224e-02
   7742.67    9.334040e-02
   7742.96    9.371856e-02
   7743.24    9.384641e-02
   7743.53    9.392875e-02
   7743.82    9.401108e-02
   7744.11    9.396696e-02
   7744.40    9.372051e-02
   7744.69    9.347405e-02
   7744.98    9.322760e-02
   7745.27    9.274291e-02
   7745.56    9.223836e-02
   7745.84    9.173382e-02
   7746.13    9.116099e-02
   7746.42    9.050850e-02
   7746.71    8.985602e-02
   7747.00    8.920353e-02
   7747.29    8.850382e-02
   7747.58    8.780411e-02
   7747.87    8.710441e-02
   7748.16    8.642008e-02
   7748.44    8.574894e-02
   7748.73    8.507781e-02
   7749.02    8.441197e-02
   7749.31    8.380977e-02
   7749.60    8.320757e-02
   7749.89    8.260537e-02
   7750.18    8.204641e-02
   7750.47    8.151448e-02
   7750.76    8.098254e-02
   7751.04    8.045746e-02
   7751.33    7.997007e-02
   7751.62    7.948267e-02
   7751.91    7.899528e-02
   7752.20    7.851453e-02
   7752.49    7.803672e-02
   7752.78    7.755892e-02
   7753.07    7.707641e-02
   7753.36    7.657824e-02
   7753.64    7.608006e-02
   7753.93    7.558188e-02
   7754.22    7.505564e-02
   7754.51    7.452098e-02
   7754.80    7.398632e-02
   7755.09    7.344116e-02
   7755.38    7.287237e-02
   7755.67    7.230359e-02
   7755.96    7.173480e-02
   7756.24    7.115515e-02
   7756.53    7.057352e-02
   7756.82    6.999190e-02
   7757.11    6.941937e-02
   7757.40    6.886141e-02
   7757.69    6.830345e-02
   7757.98    6.774549e-02
   7758.27    6.725014e-02
   7758.56    6.676001e-02
   7758.84    6.626989e-02
   7759.13    6.582952e-02
   7759.42    6.544721e-02
   7759.71    6.506490e-02
   7760.00    6.468259e-02
