 FDMNES
  energy    <xanes>
   7695.00    5.208566e-04
   7695.29    5.265966e-04
   7695.58    5.323366e-04
   7695.87    5.380766e-04
   7696.16    5.440374e-04
   7696.44    5.501875e-04
   7696.73    5.563376e-04
   7697.02    5.625226e-04
   7697.31    5.691270e-04
   7697.60    5.757313e-04
   7697.89    5.823356e-04
   7698.18    5.892505e-04
   7698.47    5.963596e-04
   7698.76    6.034686e-04
   7699.04    6.106642e-04
   7699.33    6.183361e-04
   7699.62    6.260080e-04
   7699.91    6.336799e-04
   7700.20    6.417880e-04
   7700.49    6.500900e-04
   7700.78    6.583921e-04
   7701.07    6.668576e-04
   7701.36    6.758680e-04
   7701.64    6.848783e-04
   7701.93    6.938887e-04
   7702.22    7.035144e-04
   7702.51    7.133247e-04
   7702.80    7.231350e-04
   7703.09    7.332246e-04
   7703.38    7.439425e-04
   7703.67    7.546605e-04
   7703.96    7.653784e-04
   7704.24    7.769724e-04
   7704.53    7.887256e-04
   7704.82    8.004788e-04
   7705.11    8.126889e-04
   7705.40    8.256298e-04
   7705.69    8.385707e-04
   7705.98    8.515116e-04
   7706.27    8.657180e-04
   7706.56    8.800298e-04
   7706.84    8.943417e-04
   7707.13    9.093890e-04
   7707.42    9.252944e-04
   7707.71    9.411997e-04
   7708.00    9.571051e-04
   7708.29    9.748765e-04
   7708.58    9.926479e-04
   7708.87    1.010419e-03
   7709.16    1.029377e-03
   7709.44    1.049353e-03
   7709.73    1.069328e-03
   7710.02    1.089505e-03
   7710.31    1.112107e-03
   7710.60    1.134709e-03
   7710.89    1.157311e-03
   7711.18    1.181861e-03
   7711.47    1.207627e-03
   7711.76    1.233394e-03
   7712.04    1.259754e-03
   7712.33    1.289378e-03
   7712.62    1.319003e-03
   7712.91    1.348627e-03
   7713.20    1.381552e-03
   7713.49    1.415944e-03
   7713.78    1.450336e-03
   7714.07    1.486109e-03
   7714.36    1.526486e-03
   7714.64    1.566864e-03
   7714.93    1.607241e-03
   7715.22    1.653507e-03
   7715.51    1.701540e-03
   7715.80    1.749573e-03
   7716.09    1.800686e-03
   7716.38    1.858729e-03
   7716.67    1.916772e-03
   7716.96    1.974814e-03
   7717.24    2.044235e-03
   7717.53    2.115725e-03
   7717.82    2.187214e-03
   7718.11    2.265890e-03
   7718.40    2.356062e-03
   7718.69    2.446235e-03
   7718.98    2.536408e-03
   7719.27    2.651618e-03
   7719.56    2.768915e-03
   7719.84    2.886212e-03
   7720.13    3.022806e-03
   7720.42    3.181913e-03
   7720.71    3.341021e-03
   7721.00    3.500129e-03
   7721.29    3.729622e-03
   7721.58    3.959116e-03
   7721.87    4.188610e-03
   7722.16    4.491794e-03
   7722.44    4.858141e-03
   7722.73    5.224488e-03
   7723.02    5.617687e-03
   7723.31    6.333108e-03
   7723.60    7.048528e-03
   7723.89    7.763949e-03
   7724.18    9.260338e-03
   7724.47    1.124483e-02
   7724.76    1.322933e-02
   7725.04    1.539128e-02
   7725.33    1.855666e-02
   7725.62    2.176024e-02
   7725.91    2.506815e-02
   7726.20    2.857861e-02
   7726.49    3.239324e-02
   7726.78    3.646142e-02
   7727.07    4.088831e-02
   7727.36    4.576614e-02
   7727.64    5.129845e-02
   7727.93    5.764853e-02
   7728.22    6.490478e-02
   7728.51    7.327109e-02
   7728.80    8.259692e-02
   7729.09    9.287753e-02
   7729.38    1.034391e-01
   7729.67    1.133568e-01
   7729.96    1.216775e-01
   7730.24    1.275412e-01
   7730.53    1.303506e-01
   7730.82    1.305810e-01
   7731.11    1.289033e-01
   7731.40    1.260092e-01
   7731.69    1.224922e-01
   7731.98    1.187870e-01
   7732.27    1.151869e-01
   7732.56    1.118686e-01
   7732.84    1.088905e-01
   7733.13    1.062800e-01
   7733.42    1.040404e-01
   7733.71    1.021596e-01
   7734.00    1.006142e-01
   7734.29    9.940318e-02
   7734.58    9.844615e-02
   7734.87    9.769727e-02
   7735.16    9.710793e-02
   7735.44    9.662938e-02
   7735.73    9.621594e-02
   7736.02    9.582800e-02
   7736.31    9.543307e-02
   7736.60    9.501585e-02
   7736.89    9.457437e-02
   7737.18    9.411764e-02
   7737.47    9.366302e-02
   7737.76    9.323378e-02
   7738.04    9.286108e-02
   7738.33    9.256382e-02
   7738.62    9.235962e-02
   7738.91    9.226069e-02
   7739.20    9.227330e-02
   7739.49    9.239791e-02
   7739.78    9.263759e-02
   7740.07    9.298885e-02
   7740.36    9.344475e-02
   7740.64    9.390066e-02
   7740.93    9.435656e-02
   7741.22    9.480986e-02
   7741.51    9.526237e-02
   7741.80    9.571487e-02
   7742.09    9.608796e-02
   7742.38    9.628234e-02
   7742.67    9.647672e-02
   7742.96    9.667110e-02
   7743.24    9.655943e-02
   7743.53    9.639211e-02
   7743.82    9.622479e-02
   7744.11    9.594150e-02
   7744.40    9.547264e-02
   7744.69    9.500378e-02
   7744.98    9.453492e-02
   7745.27    9.390545e-02
   7745.56    9.326259e-02
   7745.84    9.261973e-02
   7746.13    9.194908e-02
   7746.42    9.124599e-02
   7746.71    9.054291e-02
   7747.00    8.983983e-02
   7747.29    8.915601e-02
   7747.58    8.847218e-02
   7747.87    8.778836e-02
   7748.16    8.714080e-02
   7748.44    8.652432e-02
   7748.73    8.590785e-02
   7749.02    8.529801e-02
   7749.31    8.476788e-02
   7749.60    8.423776e-02
   7749.89    8.370764e-02
   7750.18    8.322644e-02
   7750.47    8.277581e-02
   7750.76    8.232519e-02
   7751.04    8.188286e-02
   7751.33    8.148618e-02
   7751.62    8.108950e-02
   7751.91    8.069281e-02
   7752.20    8.030931e-02
   7752.49    7.993166e-02
   7752.78    7.955401e-02
   7753.07    7.917258e-02
   7753.36    7.877855e-02
   7753.64    7.838453e-02
   7753.93    7.799050e-02
   7754.22    7.756192e-02
   7754.51    7.712296e-02
   7754.80    7.668401e-02
   7755.09    7.622657e-02
   7755.38    7.572755e-02
   7755.67    7.522853e-02
   7755.96    7.472951e-02
   7756.24    7.418320e-02
   7756.53    7.362830e-02
   7756.82    7.307340e-02
   7757.11    7.250775e-02
   7757.40    7.192492e-02
   7757.69    7.134209e-02
   7757.98    7.075925e-02
   7758.27    7.020002e-02
   7758.56    6.964275e-02
   7758.84    6.908548e-02
   7759.13    6.857272e-02
   7759.42    6.811187e-02
   7759.71    6.765102e-02
   7760.00    6.719017e-02
