 FDMNES
  energy    <xanes>
   7695.00    5.177081e-04
   7695.29    5.234606e-04
   7695.58    5.292130e-04
   7695.87    5.349655e-04
   7696.16    5.409406e-04
   7696.44    5.471064e-04
   7696.73    5.532721e-04
   7697.02    5.594731e-04
   7697.31    5.660968e-04
   7697.60    5.727205e-04
   7697.89    5.793442e-04
   7698.18    5.862810e-04
   7698.47    5.934137e-04
   7698.76    6.005464e-04
   7699.04    6.077664e-04
   7699.33    6.154669e-04
   7699.62    6.231674e-04
   7699.91    6.308679e-04
   7700.20    6.390087e-04
   7700.49    6.473451e-04
   7700.78    6.556816e-04
   7701.07    6.641831e-04
   7701.36    6.732348e-04
   7701.64    6.822865e-04
   7701.93    6.913382e-04
   7702.22    7.010114e-04
   7702.51    7.108710e-04
   7702.80    7.207307e-04
   7703.09    7.308725e-04
   7703.38    7.416494e-04
   7703.67    7.524262e-04
   7703.96    7.632030e-04
   7704.24    7.748654e-04
   7704.53    7.866888e-04
   7704.82    7.985122e-04
   7705.11    8.107976e-04
   7705.40    8.238222e-04
   7705.69    8.368468e-04
   7705.98    8.498713e-04
   7706.27    8.641763e-04
   7706.56    8.785880e-04
   7706.84    8.929996e-04
   7707.13    9.081557e-04
   7707.42    9.241802e-04
   7707.71    9.402048e-04
   7708.00    9.562293e-04
   7708.29    9.741434e-04
   7708.58    9.920575e-04
   7708.87    1.009972e-03
   7709.16    1.029088e-03
   7709.44    1.049234e-03
   7709.73    1.069380e-03
   7710.02    1.089731e-03
   7710.31    1.112540e-03
   7710.60    1.135348e-03
   7710.89    1.158156e-03
   7711.18    1.182938e-03
   7711.47    1.208953e-03
   7711.76    1.234969e-03
   7712.04    1.261586e-03
   7712.33    1.291512e-03
   7712.62    1.321438e-03
   7712.91    1.351364e-03
   7713.20    1.384636e-03
   7713.49    1.419395e-03
   7713.78    1.454155e-03
   7714.07    1.490314e-03
   7714.36    1.531140e-03
   7714.64    1.571965e-03
   7714.93    1.612791e-03
   7715.22    1.659583e-03
   7715.51    1.708164e-03
   7715.80    1.756745e-03
   7716.09    1.808444e-03
   7716.38    1.867156e-03
   7716.67    1.925869e-03
   7716.96    1.984581e-03
   7717.24    2.054789e-03
   7717.53    2.127088e-03
   7717.82    2.199386e-03
   7718.11    2.278925e-03
   7718.40    2.370047e-03
   7718.69    2.461169e-03
   7718.98    2.552291e-03
   7719.27    2.668517e-03
   7719.56    2.786836e-03
   7719.84    2.905155e-03
   7720.13    3.042666e-03
   7720.42    3.202569e-03
   7720.71    3.362471e-03
   7721.00    3.522374e-03
   7721.29    3.751292e-03
   7721.58    3.980210e-03
   7721.87    4.209128e-03
   7722.16    4.508452e-03
   7722.44    4.868123e-03
   7722.73    5.227794e-03
   7723.02    5.611916e-03
   7723.31    6.289447e-03
   7723.60    6.966977e-03
   7723.89    7.644507e-03
   7724.18    8.997220e-03
   7724.47    1.077192e-02
   7724.76    1.254662e-02
   7725.04    1.448389e-02
   7725.33    1.737908e-02
   7725.62    2.043989e-02
   7725.91    2.376420e-02
   7726.20    2.746199e-02
   7726.49    3.180012e-02
   7726.78    3.678366e-02
   7727.07    4.264048e-02
   7727.36    4.932431e-02
   7727.64    5.677078e-02
   7727.93    6.467868e-02
   7728.22    7.266551e-02
   7728.51    8.059967e-02
   7728.80    8.868397e-02
   7729.09    9.732422e-02
   7729.38    1.064478e-01
   7729.67    1.155869e-01
   7729.96    1.238231e-01
   7730.24    1.300997e-01
   7730.53    1.334370e-01
   7730.82    1.340050e-01
   7731.11    1.324044e-01
   7731.40    1.293736e-01
   7731.69    1.255649e-01
   7731.98    1.214415e-01
   7732.27    1.173035e-01
   7732.56    1.133517e-01
   7732.84    1.096890e-01
   7733.13    1.063823e-01
   7733.42    1.034731e-01
   7733.71    1.009861e-01
   7734.00    9.893046e-02
   7734.29    9.734677e-02
   7734.58    9.615506e-02
   7734.87    9.531095e-02
   7735.16    9.475660e-02
   7735.44    9.442423e-02
   7735.73    9.424093e-02
   7736.02    9.413505e-02
   7736.31    9.403269e-02
   7736.60    9.388358e-02
   7736.89    9.365965e-02
   7737.18    9.335294e-02
   7737.47    9.297399e-02
   7737.76    9.254760e-02
   7738.04    9.211130e-02
   7738.33    9.170598e-02
   7738.62    9.136494e-02
   7738.91    9.111503e-02
   7739.20    9.097506e-02
   7739.49    9.095551e-02
   7739.78    9.106901e-02
   7740.07    9.132768e-02
   7740.36    9.174229e-02
   7740.64    9.215689e-02
   7740.93    9.257149e-02
   7741.22    9.308864e-02
   7741.51    9.363656e-02
   7741.80    9.418447e-02
   7742.09    9.469206e-02
   7742.38    9.510892e-02
   7742.67    9.552578e-02
   7742.96    9.594264e-02
   7743.24    9.608470e-02
   7743.53    9.617679e-02
   7743.82    9.626888e-02
   7744.11    9.621642e-02
   7744.40    9.593270e-02
   7744.69    9.564897e-02
   7744.98    9.536525e-02
   7745.27    9.481081e-02
   7745.56    9.423380e-02
   7745.84    9.365680e-02
   7746.13    9.300733e-02
   7746.42    9.227334e-02
   7746.71    9.153935e-02
   7747.00    9.080536e-02
   7747.29    9.004085e-02
   7747.58    8.927635e-02
   7747.87    8.851184e-02
   7748.16    8.777671e-02
   7748.44    8.706676e-02
   7748.73    8.635680e-02
   7749.02    8.565368e-02
   7749.31    8.503256e-02
   7749.60    8.441144e-02
   7749.89    8.379032e-02
   7750.18    8.321901e-02
   7750.47    8.267883e-02
   7750.76    8.213865e-02
   7751.04    8.160609e-02
   7751.33    8.111543e-02
   7751.62    8.062477e-02
   7751.91    8.013412e-02
   7752.20    7.965221e-02
   7752.49    7.917419e-02
   7752.78    7.869618e-02
   7753.07    7.821412e-02
   7753.36    7.771860e-02
   7753.64    7.722307e-02
   7753.93    7.672755e-02
   7754.22    7.620544e-02
   7754.51    7.567535e-02
   7754.80    7.514526e-02
   7755.09    7.460402e-02
   7755.38    7.403767e-02
   7755.67    7.347132e-02
   7755.96    7.290497e-02
   7756.24    7.231946e-02
   7756.53    7.173046e-02
   7756.82    7.114147e-02
   7757.11    7.055490e-02
   7757.40    6.997220e-02
   7757.69    6.938950e-02
   7757.98    6.880681e-02
   7758.27    6.827112e-02
   7758.56    6.773934e-02
   7758.84    6.720756e-02
   7759.13    6.672384e-02
   7759.42    6.629617e-02
   7759.71    6.586851e-02
   7760.00    6.544084e-02
