 FDMNES
  energy    <xanes>
   7695.00    5.234101e-04
   7695.29    5.289892e-04
   7695.58    5.345683e-04
   7695.87    5.401475e-04
   7696.16    5.459348e-04
   7696.44    5.519007e-04
   7696.73    5.578666e-04
   7697.02    5.638653e-04
   7697.31    5.702583e-04
   7697.60    5.766514e-04
   7697.89    5.830444e-04
   7698.18    5.897287e-04
   7698.47    5.965951e-04
   7698.76    6.034615e-04
   7699.04    6.104089e-04
   7699.33    6.178017e-04
   7699.62    6.251945e-04
   7699.91    6.325873e-04
   7700.20    6.403868e-04
   7700.49    6.483670e-04
   7700.78    6.563473e-04
   7701.07    6.644795e-04
   7701.36    6.731181e-04
   7701.64    6.817567e-04
   7701.93    6.903953e-04
   7702.22    6.996039e-04
   7702.51    7.089834e-04
   7702.80    7.183628e-04
   7703.09    7.280001e-04
   7703.38    7.382172e-04
   7703.67    7.484344e-04
   7703.96    7.586515e-04
   7704.24    7.696741e-04
   7704.53    7.808432e-04
   7704.82    7.920122e-04
   7705.11    8.035995e-04
   7705.40    8.158561e-04
   7705.69    8.281127e-04
   7705.98    8.403693e-04
   7706.27    8.537798e-04
   7706.56    8.672865e-04
   7706.84    8.807932e-04
   7707.13    8.949674e-04
   7707.42    9.099205e-04
   7707.71    9.248735e-04
   7708.00    9.398266e-04
   7708.29    9.564652e-04
   7708.58    9.731039e-04
   7708.87    9.897425e-04
   7709.16    1.007447e-03
   7709.44    1.026066e-03
   7709.73    1.044685e-03
   7710.02    1.063485e-03
   7710.31    1.084451e-03
   7710.60    1.105418e-03
   7710.89    1.126384e-03
   7711.18    1.149080e-03
   7711.47    1.172858e-03
   7711.76    1.196635e-03
   7712.04    1.220936e-03
   7712.33    1.248119e-03
   7712.62    1.275301e-03
   7712.91    1.302483e-03
   7713.20    1.332558e-03
   7713.49    1.363919e-03
   7713.78    1.395280e-03
   7714.07    1.427842e-03
   7714.36    1.464410e-03
   7714.64    1.500977e-03
   7714.93    1.537545e-03
   7715.22    1.579193e-03
   7715.51    1.622366e-03
   7715.80    1.665538e-03
   7716.09    1.711345e-03
   7716.38    1.763077e-03
   7716.67    1.814810e-03
   7716.96    1.866543e-03
   7717.24    1.927911e-03
   7717.53    1.991032e-03
   7717.82    2.054153e-03
   7718.11    2.123296e-03
   7718.40    2.202074e-03
   7718.69    2.280852e-03
   7718.98    2.359631e-03
   7719.27    2.459156e-03
   7719.56    2.560410e-03
   7719.84    2.661664e-03
   7720.13    2.778719e-03
   7720.42    2.914210e-03
   7720.71    3.049700e-03
   7721.00    3.185190e-03
   7721.29    3.377649e-03
   7721.58    3.570109e-03
   7721.87    3.762568e-03
   7722.16    4.014135e-03
   7722.44    4.316367e-03
   7722.73    4.618599e-03
   7723.02    4.942367e-03
   7723.31    5.524568e-03
   7723.60    6.106770e-03
   7723.89    6.688971e-03
   7724.18    7.900248e-03
   7724.47    9.504696e-03
   7724.76    1.110914e-02
   7725.04    1.284807e-02
   7725.33    1.531605e-02
   7725.62    1.770588e-02
   7725.91    2.006024e-02
   7726.20    2.251103e-02
   7726.49    2.520568e-02
   7726.78    2.816942e-02
   7727.07    3.151601e-02
   7727.36    3.526864e-02
   7727.64    3.953107e-02
   7727.93    4.440675e-02
   7728.22    4.998693e-02
   7728.51    5.648677e-02
   7728.80    6.384348e-02
   7729.09    7.220266e-02
   7729.38    8.114709e-02
   7729.67    9.023124e-02
   7729.96    9.874278e-02
   7730.24    1.059079e-01
   7730.53    1.109269e-01
   7730.82    1.137450e-01
   7731.11    1.146533e-01
   7731.40    1.141367e-01
   7731.69    1.126968e-01
   7731.98    1.107227e-01
   7732.27    1.084652e-01
   7732.56    1.061066e-01
   7732.84    1.037862e-01
   7733.13    1.016196e-01
   7733.42    9.971134e-02
   7733.71    9.814505e-02
   7734.00    9.697587e-02
   7734.29    9.627883e-02
   7734.58    9.599589e-02
   7734.87    9.609441e-02
   7735.16    9.652247e-02
   7735.44    9.721205e-02
   7735.73    9.808249e-02
   7736.02    9.904433e-02
   7736.31    9.999059e-02
   7736.60    1.008313e-01
   7736.89    1.014936e-01
   7737.18    1.019246e-01
   7737.47    1.020959e-01
   7737.76    1.020021e-01
   7738.04    1.016525e-01
   7738.33    1.011228e-01
   7738.62    1.004734e-01
   7738.91    9.976856e-02
   7739.20    9.906954e-02
   7739.49    9.842934e-02
   7739.78    9.790052e-02
   7740.07    9.755525e-02
   7740.36    9.746445e-02
   7740.64    9.737366e-02
   7740.93    9.728287e-02
   7741.22    9.756932e-02
   7741.51    9.796893e-02
   7741.80    9.836855e-02
   7742.09    9.885019e-02
   7742.38    9.951639e-02
   7742.67    1.001826e-01
   7742.96    1.008488e-01
   7743.24    1.014692e-01
   7743.53    1.020812e-01
   7743.82    1.026933e-01
   7744.11    1.031661e-01
   7744.40    1.034160e-01
   7744.69    1.036659e-01
   7744.98    1.039158e-01
   7745.27    1.036834e-01
   7745.56    1.034107e-01
   7745.84    1.031380e-01
   7746.13    1.026575e-01
   7746.42    1.019346e-01
   7746.71    1.012116e-01
   7747.00    1.004887e-01
   7747.29    9.952764e-02
   7747.58    9.856659e-02
   7747.87    9.760554e-02
   7748.16    9.662775e-02
   7748.44    9.563560e-02
   7748.73    9.464345e-02
   7749.02    9.365855e-02
   7749.31    9.276050e-02
   7749.60    9.186246e-02
   7749.89    9.096442e-02
   7750.18    9.015019e-02
   7750.47    8.938834e-02
   7750.76    8.862650e-02
   7751.04    8.788389e-02
   7751.33    8.724712e-02
   7751.62    8.661035e-02
   7751.91    8.597357e-02
   7752.20    8.539843e-02
   7752.49    8.485067e-02
   7752.78    8.430292e-02
   7753.07    8.376585e-02
   7753.36    8.326441e-02
   7753.64    8.276296e-02
   7753.93    8.226152e-02
   7754.22    8.176557e-02
   7754.51    8.127128e-02
   7754.80    8.077698e-02
   7755.09    8.027573e-02
   7755.38    7.975882e-02
   7755.67    7.924190e-02
   7755.96    7.872499e-02
   7756.24    7.817600e-02
   7756.53    7.762119e-02
   7756.82    7.706637e-02
   7757.11    7.649959e-02
   7757.40    7.591365e-02
   7757.69    7.532772e-02
   7757.98    7.474179e-02
   7758.27    7.416406e-02
   7758.56    7.358702e-02
   7758.84    7.300997e-02
   7759.13    7.247203e-02
   7759.42    7.197971e-02
   7759.71    7.148739e-02
   7760.00    7.099507e-02
