 FDMNES
  energy    <xanes>
   7695.00    5.313542e-04
   7695.29    5.368684e-04
   7695.58    5.423826e-04
   7695.87    5.478967e-04
   7696.16    5.536134e-04
   7696.44    5.595035e-04
   7696.73    5.653936e-04
   7697.02    5.713157e-04
   7697.31    5.776207e-04
   7697.60    5.839257e-04
   7697.89    5.902307e-04
   7698.18    5.968184e-04
   7698.47    6.035827e-04
   7698.76    6.103470e-04
   7699.04    6.171899e-04
   7699.33    6.244645e-04
   7699.62    6.317392e-04
   7699.91    6.390139e-04
   7700.20    6.466825e-04
   7700.49    6.545263e-04
   7700.78    6.623700e-04
   7701.07    6.703608e-04
   7701.36    6.788418e-04
   7701.64    6.873227e-04
   7701.93    6.958036e-04
   7702.22    7.048358e-04
   7702.51    7.140332e-04
   7702.80    7.232307e-04
   7703.09    7.326773e-04
   7703.38    7.426843e-04
   7703.67    7.526914e-04
   7703.96    7.626984e-04
   7704.24    7.734833e-04
   7704.53    7.844096e-04
   7704.82    7.953360e-04
   7705.11    8.066661e-04
   7705.40    8.186422e-04
   7705.69    8.306183e-04
   7705.98    8.425944e-04
   7706.27    8.556838e-04
   7706.56    8.688661e-04
   7706.84    8.820483e-04
   7707.13    8.958743e-04
   7707.42    9.104516e-04
   7707.71    9.250288e-04
   7708.00    9.396061e-04
   7708.29    9.558089e-04
   7708.58    9.720118e-04
   7708.87    9.882146e-04
   7709.16    1.005446e-03
   7709.44    1.023559e-03
   7709.73    1.041672e-03
   7710.02    1.059959e-03
   7710.31    1.080337e-03
   7710.60    1.100715e-03
   7710.89    1.121093e-03
   7711.18    1.143142e-03
   7711.47    1.166234e-03
   7711.76    1.189327e-03
   7712.04    1.212926e-03
   7712.33    1.239312e-03
   7712.62    1.265697e-03
   7712.91    1.292082e-03
   7713.20    1.321271e-03
   7713.49    1.351705e-03
   7713.78    1.382140e-03
   7714.07    1.413742e-03
   7714.36    1.449236e-03
   7714.64    1.484731e-03
   7714.93    1.520225e-03
   7715.22    1.560678e-03
   7715.51    1.602618e-03
   7715.80    1.644558e-03
   7716.09    1.689082e-03
   7716.38    1.739423e-03
   7716.67    1.789764e-03
   7716.96    1.840105e-03
   7717.24    1.899977e-03
   7717.53    1.961583e-03
   7717.82    2.023188e-03
   7718.11    2.090816e-03
   7718.40    2.168080e-03
   7718.69    2.245344e-03
   7718.98    2.322608e-03
   7719.27    2.420940e-03
   7719.56    2.521026e-03
   7719.84    2.621113e-03
   7720.13    2.737596e-03
   7720.42    2.873208e-03
   7720.71    3.008819e-03
   7721.00    3.144431e-03
   7721.29    3.341011e-03
   7721.58    3.537591e-03
   7721.87    3.734170e-03
   7722.16    3.996879e-03
   7722.44    4.316270e-03
   7722.73    4.635661e-03
   7723.02    4.980649e-03
   7723.31    5.632797e-03
   7723.60    6.284946e-03
   7723.89    6.937094e-03
   7724.18    8.381263e-03
   7724.47    1.032044e-02
   7724.76    1.225963e-02
   7725.04    1.437116e-02
   7725.33    1.740878e-02
   7725.62    2.028443e-02
   7725.91    2.293179e-02
   7726.20    2.545298e-02
   7726.49    2.795275e-02
   7726.78    3.057743e-02
   7727.07    3.350777e-02
   7727.36    3.682168e-02
   7727.64    4.061521e-02
   7727.93    4.494056e-02
   7728.22    4.981928e-02
   7728.51    5.536521e-02
   7728.80    6.149429e-02
   7729.09    6.824558e-02
   7729.38    7.525978e-02
   7729.67    8.203004e-02
   7729.96    8.789829e-02
   7730.24    9.215665e-02
   7730.53    9.418906e-02
   7730.82    9.423585e-02
   7731.11    9.285337e-02
   7731.40    9.072744e-02
   7731.69    8.848490e-02
   7731.98    8.656596e-02
   7732.27    8.523451e-02
   7732.56    8.456041e-02
   7732.84    8.444438e-02
   7733.13    8.478583e-02
   7733.42    8.547939e-02
   7733.71    8.643392e-02
   7734.00    8.757814e-02
   7734.29    8.887331e-02
   7734.58    9.026976e-02
   7734.87    9.175024e-02
   7735.16    9.330243e-02
   7735.44    9.491268e-02
   7735.73    9.656105e-02
   7736.02    9.821601e-02
   7736.31    9.983054e-02
   7736.60    1.013546e-01
   7736.89    1.027351e-01
   7737.18    1.039213e-01
   7737.47    1.048714e-01
   7737.76    1.055535e-01
   7738.04    1.059380e-01
   7738.33    1.060703e-01
   7738.62    1.059867e-01
   7738.91    1.057371e-01
   7739.20    1.053785e-01
   7739.49    1.049687e-01
   7739.78    1.045642e-01
   7740.07    1.042454e-01
   7740.36    1.040882e-01
   7740.64    1.039310e-01
   7740.93    1.037738e-01
   7741.22    1.039300e-01
   7741.51    1.041803e-01
   7741.80    1.044306e-01
   7742.09    1.047538e-01
   7742.38    1.052412e-01
   7742.67    1.057285e-01
   7742.96    1.062159e-01
   7743.24    1.066264e-01
   7743.53    1.070229e-01
   7743.82    1.074195e-01
   7744.11    1.076626e-01
   7744.40    1.076605e-01
   7744.69    1.076584e-01
   7744.98    1.076563e-01
   7745.27    1.071620e-01
   7745.56    1.066267e-01
   7745.84    1.060914e-01
   7746.13    1.053539e-01
   7746.42    1.043806e-01
   7746.71    1.034073e-01
   7747.00    1.024339e-01
   7747.29    1.012541e-01
   7747.58    1.000743e-01
   7747.87    9.889446e-02
   7748.16    9.772107e-02
   7748.44    9.655321e-02
   7748.73    9.538534e-02
   7749.02    9.422829e-02
   7749.31    9.320097e-02
   7749.60    9.217366e-02
   7749.89    9.114635e-02
   7750.18    9.023205e-02
   7750.47    8.938838e-02
   7750.76    8.854471e-02
   7751.04    8.772696e-02
   7751.33    8.705172e-02
   7751.62    8.637647e-02
   7751.91    8.570123e-02
   7752.20    8.511668e-02
   7752.49    8.457244e-02
   7752.78    8.402820e-02
   7753.07    8.350519e-02
   7753.36    8.305299e-02
   7753.64    8.260078e-02
   7753.93    8.214858e-02
   7754.22    8.174041e-02
   7754.51    8.134544e-02
   7754.80    8.095048e-02
   7755.09    8.056430e-02
   7755.38    8.019787e-02
   7755.67    7.983145e-02
   7755.96    7.946503e-02
   7756.24    7.910562e-02
   7756.53    7.874748e-02
   7756.82    7.838935e-02
   7757.11    7.803171e-02
   7757.40    7.767486e-02
   7757.69    7.731802e-02
   7757.98    7.696117e-02
   7758.27    7.661809e-02
   7758.56    7.627616e-02
   7758.84    7.593423e-02
   7759.13    7.561625e-02
   7759.42    7.532622e-02
   7759.71    7.503619e-02
   7760.00    7.474615e-02
