 FDMNES
  energy    <xanes>
   7695.00    5.291337e-04
   7695.29    5.347447e-04
   7695.58    5.403557e-04
   7695.87    5.459668e-04
   7696.16    5.517866e-04
   7696.44    5.577854e-04
   7696.73    5.637842e-04
   7697.02    5.698159e-04
   7697.31    5.762430e-04
   7697.60    5.826701e-04
   7697.89    5.890971e-04
   7698.18    5.958162e-04
   7698.47    6.027177e-04
   7698.76    6.096192e-04
   7699.04    6.166019e-04
   7699.33    6.240309e-04
   7699.62    6.314599e-04
   7699.91    6.388889e-04
   7700.20    6.467254e-04
   7700.49    6.547430e-04
   7700.78    6.627607e-04
   7701.07    6.709304e-04
   7701.36    6.796075e-04
   7701.64    6.882845e-04
   7701.93    6.969615e-04
   7702.22    7.062092e-04
   7702.51    7.156282e-04
   7702.80    7.250471e-04
   7703.09    7.347241e-04
   7703.38    7.449817e-04
   7703.67    7.552393e-04
   7703.96    7.654969e-04
   7704.24    7.765606e-04
   7704.53    7.877709e-04
   7704.82    7.989812e-04
   7705.11    8.106101e-04
   7705.40    8.229087e-04
   7705.69    8.352074e-04
   7705.98    8.475060e-04
   7706.27    8.609590e-04
   7706.56    8.745082e-04
   7706.84    8.880574e-04
   7707.13    9.022743e-04
   7707.42    9.172702e-04
   7707.71    9.322661e-04
   7708.00    9.472619e-04
   7708.29    9.639433e-04
   7708.58    9.806248e-04
   7708.87    9.973062e-04
   7709.16    1.015054e-03
   7709.44    1.033715e-03
   7709.73    1.052376e-03
   7710.02    1.071218e-03
   7710.31    1.092226e-03
   7710.60    1.113235e-03
   7710.89    1.134243e-03
   7711.18    1.156980e-03
   7711.47    1.180798e-03
   7711.76    1.204616e-03
   7712.04    1.228958e-03
   7712.33    1.256181e-03
   7712.62    1.283403e-03
   7712.91    1.310625e-03
   7713.20    1.340741e-03
   7713.49    1.372142e-03
   7713.78    1.403544e-03
   7714.07    1.436148e-03
   7714.36    1.472760e-03
   7714.64    1.509372e-03
   7714.93    1.545985e-03
   7715.22    1.587687e-03
   7715.51    1.630917e-03
   7715.80    1.674147e-03
   7716.09    1.720021e-03
   7716.38    1.771843e-03
   7716.67    1.823665e-03
   7716.96    1.875488e-03
   7717.24    1.937012e-03
   7717.53    2.000299e-03
   7717.82    2.063587e-03
   7718.11    2.132967e-03
   7718.40    2.212094e-03
   7718.69    2.291222e-03
   7718.98    2.370349e-03
   7719.27    2.470627e-03
   7719.56    2.572667e-03
   7719.84    2.674708e-03
   7720.13    2.793059e-03
   7720.42    2.930441e-03
   7720.71    3.067823e-03
   7721.00    3.205205e-03
   7721.29    3.402622e-03
   7721.58    3.600039e-03
   7721.87    3.797456e-03
   7722.16    4.059344e-03
   7722.44    4.376493e-03
   7722.73    4.693642e-03
   7723.02    5.035603e-03
   7723.31    5.675312e-03
   7723.60    6.315021e-03
   7723.89    6.954730e-03
   7724.18    8.361873e-03
   7724.47    1.024866e-02
   7724.76    1.213545e-02
   7725.04    1.418537e-02
   7725.33    1.709212e-02
   7725.62    1.976894e-02
   7725.91    2.213533e-02
   7726.20    2.434338e-02
   7726.49    2.655537e-02
   7726.78    2.892268e-02
   7727.07    3.158550e-02
   7727.36    3.457316e-02
   7727.64    3.795156e-02
   7727.93    4.177731e-02
   7728.22    4.609722e-02
   7728.51    5.105409e-02
   7728.80    5.662415e-02
   7729.09    6.300630e-02
   7729.38    7.002767e-02
   7729.67    7.764954e-02
   7729.96    8.554720e-02
   7730.24    9.333989e-02
   7730.53    1.004762e-01
   7730.82    1.065231e-01
   7731.11    1.111906e-01
   7731.40    1.143506e-01
   7731.69    1.160399e-01
   7731.98    1.164250e-01
   7732.27    1.157248e-01
   7732.56    1.142711e-01
   7732.84    1.124196e-01
   7733.13    1.104173e-01
   7733.42    1.084582e-01
   7733.71    1.066836e-01
   7734.00    1.051858e-01
   7734.29    1.040576e-01
   7734.58    1.032738e-01
   7734.87    1.028201e-01
   7735.16    1.026638e-01
   7735.44    1.027584e-01
   7735.73    1.030481e-01
   7736.02    1.034759e-01
   7736.31    1.039667e-01
   7736.60    1.044533e-01
   7736.89    1.048810e-01
   7737.18    1.052042e-01
   7737.47    1.053891e-01
   7737.76    1.054133e-01
   7738.04    1.052591e-01
   7738.33    1.049551e-01
   7738.62    1.045248e-01
   7738.91    1.039994e-01
   7739.20    1.034137e-01
   7739.49    1.028032e-01
   7739.78    1.022031e-01
   7740.07    1.016664e-01
   7740.36    1.012461e-01
   7740.64    1.008258e-01
   7740.93    1.004055e-01
   7741.22    1.002205e-01
   7741.51    1.001061e-01
   7741.80    9.999176e-02
   7742.09    9.994212e-02
   7742.38    1.000382e-01
   7742.67    1.001342e-01
   7742.96    1.002303e-01
   7743.24    1.003290e-01
   7743.53    1.004282e-01
   7743.82    1.005275e-01
   7744.11    1.005514e-01
   7744.40    1.004548e-01
   7744.69    1.003582e-01
   7744.98    1.002616e-01
   7745.27    9.989171e-02
   7745.56    9.949902e-02
   7745.84    9.910632e-02
   7746.13    9.859325e-02
   7746.42    9.793974e-02
   7746.71    9.728622e-02
   7747.00    9.663271e-02
   7747.29    9.584587e-02
   7747.58    9.505904e-02
   7747.87    9.427220e-02
   7748.16    9.347617e-02
   7748.44    9.267226e-02
   7748.73    9.186834e-02
   7749.02    9.106860e-02
   7749.31    9.031884e-02
   7749.60    8.956909e-02
   7749.89    8.881934e-02
   7750.18    8.812280e-02
   7750.47    8.745952e-02
   7750.76    8.679623e-02
   7751.04    8.614675e-02
   7751.33    8.557321e-02
   7751.62    8.499967e-02
   7751.91    8.442613e-02
   7752.20    8.390438e-02
   7752.49    8.340564e-02
   7752.78    8.290691e-02
   7753.07    8.241984e-02
   7753.36    8.197166e-02
   7753.64    8.152347e-02
   7753.93    8.107529e-02
   7754.22    8.064514e-02
   7754.51    8.022040e-02
   7754.80    7.979565e-02
   7755.09    7.937056e-02
   7755.38    7.894468e-02
   7755.67    7.851879e-02
   7755.96    7.809290e-02
   7756.24    7.765226e-02
   7756.53    7.720893e-02
   7756.82    7.676561e-02
   7757.11    7.631545e-02
   7757.40    7.585434e-02
   7757.69    7.539324e-02
   7757.98    7.493213e-02
   7758.27    7.447877e-02
   7758.56    7.402606e-02
   7758.84    7.357334e-02
   7759.13    7.315074e-02
   7759.42    7.276327e-02
   7759.71    7.237580e-02
   7760.00    7.198833e-02
