 FDMNES
  energy    <xanes>
   7695.00    5.152799e-04
   7695.29    5.209968e-04
   7695.58    5.267138e-04
   7695.87    5.324307e-04
   7696.16    5.383685e-04
   7696.44    5.444957e-04
   7696.73    5.506229e-04
   7697.02    5.567851e-04
   7697.31    5.633668e-04
   7697.60    5.699485e-04
   7697.89    5.765302e-04
   7698.18    5.834227e-04
   7698.47    5.905095e-04
   7698.76    5.975963e-04
   7699.04    6.047698e-04
   7699.33    6.124199e-04
   7699.62    6.200701e-04
   7699.91    6.277202e-04
   7700.20    6.358070e-04
   7700.49    6.440879e-04
   7700.78    6.523688e-04
   7701.07    6.608133e-04
   7701.36    6.698033e-04
   7701.64    6.787932e-04
   7701.93    6.877832e-04
   7702.22    6.973892e-04
   7702.51    7.071799e-04
   7702.80    7.169706e-04
   7703.09    7.270409e-04
   7703.38    7.377401e-04
   7703.67    7.484394e-04
   7703.96    7.591386e-04
   7704.24    7.707147e-04
   7704.53    7.824502e-04
   7704.82    7.941856e-04
   7705.11    8.063782e-04
   7705.40    8.193021e-04
   7705.69    8.322261e-04
   7705.98    8.451500e-04
   7706.27    8.593400e-04
   7706.56    8.736354e-04
   7706.84    8.879308e-04
   7707.13    9.029617e-04
   7707.42    9.188505e-04
   7707.71    9.347393e-04
   7708.00    9.506282e-04
   7708.29    9.683819e-04
   7708.58    9.861356e-04
   7708.87    1.003889e-03
   7709.16    1.022828e-03
   7709.44    1.042782e-03
   7709.73    1.062737e-03
   7710.02    1.082893e-03
   7710.31    1.105468e-03
   7710.60    1.128042e-03
   7710.89    1.150617e-03
   7711.18    1.175132e-03
   7711.47    1.200860e-03
   7711.76    1.226587e-03
   7712.04    1.252905e-03
   7712.33    1.282469e-03
   7712.62    1.312034e-03
   7712.91    1.341598e-03
   7713.20    1.374437e-03
   7713.49    1.408733e-03
   7713.78    1.443028e-03
   7714.07    1.478690e-03
   7714.36    1.518907e-03
   7714.64    1.559125e-03
   7714.93    1.599343e-03
   7715.22    1.645365e-03
   7715.51    1.693129e-03
   7715.80    1.740894e-03
   7716.09    1.791679e-03
   7716.38    1.849261e-03
   7716.67    1.906844e-03
   7716.96    1.964426e-03
   7717.24    2.033095e-03
   7717.53    2.103779e-03
   7717.82    2.174463e-03
   7718.11    2.252086e-03
   7718.40    2.340811e-03
   7718.69    2.429535e-03
   7718.98    2.518259e-03
   7719.27    2.630855e-03
   7719.56    2.745440e-03
   7719.84    2.860025e-03
   7720.13    2.992677e-03
   7720.42    3.146407e-03
   7720.71    3.300136e-03
   7721.00    3.453865e-03
   7721.29    3.671722e-03
   7721.58    3.889578e-03
   7721.87    4.107435e-03
   7722.16    4.389643e-03
   7722.44    4.727010e-03
   7722.73    5.064377e-03
   7723.02    5.423688e-03
   7723.31    6.046336e-03
   7723.60    6.668984e-03
   7723.89    7.291632e-03
   7724.18    8.509664e-03
   7724.47    1.009981e-02
   7724.76    1.168996e-02
   7725.04    1.341752e-02
   7725.33    1.594006e-02
   7725.62    1.855657e-02
   7725.91    2.135586e-02
   7726.20    2.445687e-02
   7726.49    2.811043e-02
   7726.78    3.234095e-02
   7727.07    3.737371e-02
   7727.36    4.321349e-02
   7727.64    4.997224e-02
   7727.93    5.771534e-02
   7728.22    6.645751e-02
   7728.51    7.632897e-02
   7728.80    8.706447e-02
   7729.09    9.850017e-02
   7729.38    1.099816e-01
   7729.67    1.206089e-01
   7729.96    1.295022e-01
   7730.24    1.357947e-01
   7730.53    1.388359e-01
   7730.82    1.390767e-01
   7731.11    1.371707e-01
   7731.40    1.338180e-01
   7731.69    1.296479e-01
   7731.98    1.251459e-01
   7732.27    1.206609e-01
   7732.56    1.164309e-01
   7732.84    1.125609e-01
   7733.13    1.091077e-01
   7733.42    1.060964e-01
   7733.71    1.035327e-01
   7734.00    1.014083e-01
   7734.29    9.974769e-02
   7734.58    9.846299e-02
   7734.87    9.750832e-02
   7735.16    9.683027e-02
   7735.44    9.637081e-02
   7735.73    9.607059e-02
   7736.02    9.587607e-02
   7736.31    9.572904e-02
   7736.60    9.558753e-02
   7736.89    9.542744e-02
   7737.18    9.523855e-02
   7737.47    9.502338e-02
   7737.76    9.479468e-02
   7738.04    9.457457e-02
   7738.33    9.438496e-02
   7738.62    9.424402e-02
   7738.91    9.416479e-02
   7739.20    9.415387e-02
   7739.49    9.421121e-02
   7739.78    9.433475e-02
   7740.07    9.450744e-02
   7740.36    9.470502e-02
   7740.64    9.490260e-02
   7740.93    9.510018e-02
   7741.22    9.518384e-02
   7741.51    9.523332e-02
   7741.80    9.528281e-02
   7742.09    9.523475e-02
   7742.38    9.496723e-02
   7742.67    9.469971e-02
   7742.96    9.443219e-02
   7743.24    9.390770e-02
   7743.53    9.333648e-02
   7743.82    9.276527e-02
   7744.11    9.212269e-02
   7744.40    9.136592e-02
   7744.69    9.060916e-02
   7744.98    8.985239e-02
   7745.27    8.903617e-02
   7745.56    8.821499e-02
   7745.84    8.739380e-02
   7746.13    8.658340e-02
   7746.42    8.578558e-02
   7746.71    8.498776e-02
   7747.00    8.418994e-02
   7747.29    8.347168e-02
   7747.58    8.275342e-02
   7747.87    8.203515e-02
   7748.16    8.137558e-02
   7748.44    8.076631e-02
   7748.73    8.015704e-02
   7749.02    7.955649e-02
   7749.31    7.906060e-02
   7749.60    7.856471e-02
   7749.89    7.806882e-02
   7750.18    7.763270e-02
   7750.47    7.723394e-02
   7750.76    7.683518e-02
   7751.04    7.644683e-02
   7751.33    7.611580e-02
   7751.62    7.578477e-02
   7751.91    7.545373e-02
   7752.20    7.514516e-02
   7752.49    7.484658e-02
   7752.78    7.454800e-02
   7753.07    7.424883e-02
   7753.36    7.394767e-02
   7753.64    7.364652e-02
   7753.93    7.334537e-02
   7754.22    7.301981e-02
   7754.51    7.268694e-02
   7754.80    7.235406e-02
   7755.09    7.200618e-02
   7755.38    7.162454e-02
   7755.67    7.124289e-02
   7755.96    7.086124e-02
   7756.24    7.043943e-02
   7756.53    7.001032e-02
   7756.82    6.958121e-02
   7757.11    6.914308e-02
   7757.40    6.869054e-02
   7757.69    6.823799e-02
   7757.98    6.778545e-02
   7758.27    6.735373e-02
   7758.56    6.692375e-02
   7758.84    6.649377e-02
   7759.13    6.609984e-02
   7759.42    6.574797e-02
   7759.71    6.539610e-02
   7760.00    6.504422e-02
