 FDMNES
  energy    <xanes>
   7695.00    5.136331e-04
   7695.29    5.193888e-04
   7695.58    5.251446e-04
   7695.87    5.309004e-04
   7696.16    5.368802e-04
   7696.44    5.430521e-04
   7696.73    5.492240e-04
   7697.02    5.554314e-04
   7697.31    5.620644e-04
   7697.60    5.686975e-04
   7697.89    5.753306e-04
   7698.18    5.822793e-04
   7698.47    5.894252e-04
   7698.76    5.965711e-04
   7699.04    6.038051e-04
   7699.33    6.115234e-04
   7699.62    6.192418e-04
   7699.91    6.269601e-04
   7700.20    6.351224e-04
   7700.49    6.434821e-04
   7700.78    6.518417e-04
   7701.07    6.603679e-04
   7701.36    6.694491e-04
   7701.64    6.785303e-04
   7701.93    6.876115e-04
   7702.22    6.973200e-04
   7702.51    7.072166e-04
   7702.80    7.171133e-04
   7703.09    7.272949e-04
   7703.38    7.381175e-04
   7703.67    7.489402e-04
   7703.96    7.597629e-04
   7704.24    7.714801e-04
   7704.53    7.833599e-04
   7704.82    7.952397e-04
   7705.11    8.075864e-04
   7705.40    8.206799e-04
   7705.69    8.337734e-04
   7705.98    8.468670e-04
   7706.27    8.612548e-04
   7706.56    8.757505e-04
   7706.84    8.902462e-04
   7707.13    9.054946e-04
   7707.42    9.216213e-04
   7707.71    9.377479e-04
   7708.00    9.538746e-04
   7708.29    9.719126e-04
   7708.58    9.899506e-04
   7708.87    1.007989e-03
   7709.16    1.027243e-03
   7709.44    1.047540e-03
   7709.73    1.067837e-03
   7710.02    1.088341e-03
   7710.31    1.111332e-03
   7710.60    1.134323e-03
   7710.89    1.157314e-03
   7711.18    1.182303e-03
   7711.47    1.208541e-03
   7711.76    1.234779e-03
   7712.04    1.261627e-03
   7712.33    1.291825e-03
   7712.62    1.322023e-03
   7712.91    1.352221e-03
   7713.20    1.385808e-03
   7713.49    1.420900e-03
   7713.78    1.455993e-03
   7714.07    1.492503e-03
   7714.36    1.533740e-03
   7714.64    1.574977e-03
   7714.93    1.616214e-03
   7715.22    1.663492e-03
   7715.51    1.712583e-03
   7715.80    1.761674e-03
   7716.09    1.813922e-03
   7716.38    1.873272e-03
   7716.67    1.932621e-03
   7716.96    1.991971e-03
   7717.24    2.062958e-03
   7717.53    2.136062e-03
   7717.82    2.209165e-03
   7718.11    2.289595e-03
   7718.40    2.381747e-03
   7718.69    2.473899e-03
   7718.98    2.566052e-03
   7719.27    2.683600e-03
   7719.56    2.803264e-03
   7719.84    2.922928e-03
   7720.13    3.062004e-03
   7720.42    3.223725e-03
   7720.71    3.385446e-03
   7721.00    3.547168e-03
   7721.29    3.778724e-03
   7721.58    4.010281e-03
   7721.87    4.241837e-03
   7722.16    4.544827e-03
   7722.44    4.909045e-03
   7722.73    5.273263e-03
   7723.02    5.662503e-03
   7723.31    6.351998e-03
   7723.60    7.041493e-03
   7723.89    7.730988e-03
   7724.18    9.120038e-03
   7724.47    1.094631e-02
   7724.76    1.277258e-02
   7725.04    1.476444e-02
   7725.33    1.771876e-02
   7725.62    2.078861e-02
   7725.91    2.403292e-02
   7726.20    2.753810e-02
   7726.49    3.149176e-02
   7726.78    3.591134e-02
   7727.07    4.102949e-02
   7727.36    4.694116e-02
   7727.64    5.386931e-02
   7727.93    6.193794e-02
   7728.22    7.109281e-02
   7728.51    8.125926e-02
   7728.80    9.196050e-02
   7729.09    1.027939e-01
   7729.38    1.132747e-01
   7729.67    1.226994e-01
   7729.96    1.304674e-01
   7730.24    1.358508e-01
   7730.53    1.381818e-01
   7730.82    1.378015e-01
   7731.11    1.353411e-01
   7731.40    1.315450e-01
   7731.69    1.270938e-01
   7731.98    1.225030e-01
   7732.27    1.181360e-01
   7732.56    1.142141e-01
   7732.84    1.107984e-01
   7733.13    1.079098e-01
   7733.42    1.055344e-01
   7733.71    1.036346e-01
   7734.00    1.021566e-01
   7734.29    1.010727e-01
   7734.58    1.002680e-01
   7734.87    9.967694e-02
   7735.16    9.923672e-02
   7735.44    9.888895e-02
   7735.73    9.858199e-02
   7736.02    9.827106e-02
   7736.31    9.792250e-02
   7736.60    9.752166e-02
   7736.89    9.706556e-02
   7737.18    9.656161e-02
   7737.47    9.602486e-02
   7737.76    9.547508e-02
   7738.04    9.493668e-02
   7738.33    9.442998e-02
   7738.62    9.397105e-02
   7738.91    9.357174e-02
   7739.20    9.323934e-02
   7739.49    9.297666e-02
   7739.78    9.278774e-02
   7740.07    9.267449e-02
   7740.36    9.263792e-02
   7740.64    9.260134e-02
   7740.93    9.256476e-02
   7741.22    9.255695e-02
   7741.51    9.255777e-02
   7741.80    9.255859e-02
   7742.09    9.252327e-02
   7742.38    9.240663e-02
   7742.67    9.228999e-02
   7742.96    9.217335e-02
   7743.24    9.189465e-02
   7743.53    9.158648e-02
   7743.82    9.127831e-02
   7744.11    9.090483e-02
   7744.40    9.042683e-02
   7744.69    8.994884e-02
   7744.98    8.947084e-02
   7745.27    8.890086e-02
   7745.56    8.832321e-02
   7745.84    8.774556e-02
   7746.13    8.715242e-02
   7746.42    8.654121e-02
   7746.71    8.593000e-02
   7747.00    8.531879e-02
   7747.29    8.471862e-02
   7747.58    8.411846e-02
   7747.87    8.351830e-02
   7748.16    8.293901e-02
   7748.44    8.237761e-02
   7748.73    8.181621e-02
   7749.02    8.125874e-02
   7749.31    8.074844e-02
   7749.60    8.023814e-02
   7749.89    7.972784e-02
   7750.18    7.924632e-02
   7750.47    7.878280e-02
   7750.76    7.831927e-02
   7751.04    7.786018e-02
   7751.33    7.742553e-02
   7751.62    7.699087e-02
   7751.91    7.655622e-02
   7752.20    7.612458e-02
   7752.49    7.569429e-02
   7752.78    7.526400e-02
   7753.07    7.482934e-02
   7753.36    7.438014e-02
   7753.64    7.393094e-02
   7753.93    7.348174e-02
   7754.22    7.300659e-02
   7754.51    7.252367e-02
   7754.80    7.204074e-02
   7755.09    7.154737e-02
   7755.38    7.103051e-02
   7755.67    7.051365e-02
   7755.96    6.999679e-02
   7756.24    6.946637e-02
   7756.53    6.893348e-02
   7756.82    6.840059e-02
   7757.11    6.787475e-02
   7757.40    6.736019e-02
   7757.69    6.684564e-02
   7757.98    6.633108e-02
   7758.27    6.587336e-02
   7758.56    6.542037e-02
   7758.84    6.496738e-02
   7759.13    6.456066e-02
   7759.42    6.420792e-02
   7759.71    6.385517e-02
   7760.00    6.350243e-02
