 FDMNES
  energy    <xanes>
   7695.00    5.463403e-04
   7695.29    5.519495e-04
   7695.58    5.575587e-04
   7695.87    5.631680e-04
   7696.16    5.689821e-04
   7696.44    5.749720e-04
   7696.73    5.809618e-04
   7697.02    5.869840e-04
   7697.31    5.933938e-04
   7697.60    5.998036e-04
   7697.89    6.062134e-04
   7698.18    6.129093e-04
   7698.47    6.197839e-04
   7698.76    6.266586e-04
   7699.04    6.336127e-04
   7699.33    6.410037e-04
   7699.62    6.483946e-04
   7699.91    6.557856e-04
   7700.20    6.635751e-04
   7700.49    6.715418e-04
   7700.78    6.795084e-04
   7701.07    6.876237e-04
   7701.36    6.962347e-04
   7701.64    7.048457e-04
   7701.93    7.134567e-04
   7702.22    7.226249e-04
   7702.51    7.319602e-04
   7702.80    7.412956e-04
   7703.09    7.508827e-04
   7703.38    7.610362e-04
   7703.67    7.711897e-04
   7703.96    7.813432e-04
   7704.24    7.922825e-04
   7704.53    8.033648e-04
   7704.82    8.144470e-04
   7705.11    8.259370e-04
   7705.40    8.380793e-04
   7705.69    8.502217e-04
   7705.98    8.623640e-04
   7706.27    8.756301e-04
   7706.56    8.889899e-04
   7706.84    9.023497e-04
   7707.13    9.163590e-04
   7707.42    9.311261e-04
   7707.71    9.458933e-04
   7708.00    9.606605e-04
   7708.29    9.770666e-04
   7708.58    9.934728e-04
   7708.87    1.009879e-03
   7709.16    1.027321e-03
   7709.44    1.045652e-03
   7709.73    1.063983e-03
   7710.02    1.082489e-03
   7710.31    1.103100e-03
   7710.60    1.123711e-03
   7710.89    1.144322e-03
   7711.18    1.166613e-03
   7711.47    1.189954e-03
   7711.76    1.213295e-03
   7712.04    1.237146e-03
   7712.33    1.263795e-03
   7712.62    1.290444e-03
   7712.91    1.317093e-03
   7713.20    1.346554e-03
   7713.49    1.377265e-03
   7713.78    1.407976e-03
   7714.07    1.439857e-03
   7714.36    1.475636e-03
   7714.64    1.511416e-03
   7714.93    1.547195e-03
   7715.22    1.587931e-03
   7715.51    1.630154e-03
   7715.80    1.672376e-03
   7716.09    1.717177e-03
   7716.38    1.767779e-03
   7716.67    1.818381e-03
   7716.96    1.868983e-03
   7717.24    1.929067e-03
   7717.53    1.990874e-03
   7717.82    2.052682e-03
   7718.11    2.120462e-03
   7718.40    2.197798e-03
   7718.69    2.275134e-03
   7718.98    2.352471e-03
   7719.27    2.450630e-03
   7719.56    2.550525e-03
   7719.84    2.650420e-03
   7720.13    2.766468e-03
   7720.42    2.901361e-03
   7720.71    3.036255e-03
   7721.00    3.171148e-03
   7721.29    3.365965e-03
   7721.58    3.560782e-03
   7721.87    3.755599e-03
   7722.16    4.015450e-03
   7722.44    4.331044e-03
   7722.73    4.646637e-03
   7723.02    4.987586e-03
   7723.31    5.632796e-03
   7723.60    6.278006e-03
   7723.89    6.923216e-03
   7724.18    8.360521e-03
   7724.47    1.029289e-02
   7724.76    1.222525e-02
   7725.04    1.432576e-02
   7725.33    1.730891e-02
   7725.62    2.006087e-02
   7725.91    2.250625e-02
   7726.20    2.476316e-02
   7726.49    2.690127e-02
   7726.78    2.906245e-02
   7727.07    3.141349e-02
   7727.36    3.408588e-02
   7727.64    3.724840e-02
   7727.93    4.102737e-02
   7728.22    4.547831e-02
   7728.51    5.070675e-02
   7728.80    5.655016e-02
   7729.09    6.298708e-02
   7729.38    6.971755e-02
   7729.67    7.655755e-02
   7729.96    8.327579e-02
   7730.24    8.962410e-02
   7730.53    9.523751e-02
   7730.82    9.986148e-02
   7731.11    1.033125e-01
   7731.40    1.055227e-01
   7731.69    1.065570e-01
   7731.98    1.065845e-01
   7732.27    1.058130e-01
   7732.56    1.045288e-01
   7732.84    1.030120e-01
   7733.13    1.014396e-01
   7733.42    9.993031e-02
   7733.71    9.855644e-02
   7734.00    9.735966e-02
   7734.29    9.639099e-02
   7734.58    9.564440e-02
   7734.87    9.513170e-02
   7735.16    9.485963e-02
   7735.44    9.482755e-02
   7735.73    9.502512e-02
   7736.02    9.544269e-02
   7736.31    9.603715e-02
   7736.60    9.675255e-02
   7736.89    9.753679e-02
   7737.18    9.833538e-02
   7737.47    9.909633e-02
   7737.76    9.977293e-02
   7738.04    1.003195e-01
   7738.33    1.007296e-01
   7738.62    1.010019e-01
   7738.91    1.011470e-01
   7739.20    1.011852e-01
   7739.49    1.011421e-01
   7739.78    1.010438e-01
   7740.07    1.009334e-01
   7740.36    1.008533e-01
   7740.64    1.007732e-01
   7740.93    1.006932e-01
   7741.22    1.007633e-01
   7741.51    1.008784e-01
   7741.80    1.009936e-01
   7742.09    1.011658e-01
   7742.38    1.014661e-01
   7742.67    1.017665e-01
   7742.96    1.020669e-01
   7743.24    1.023768e-01
   7743.53    1.026886e-01
   7743.82    1.030003e-01
   7744.11    1.032287e-01
   7744.40    1.033236e-01
   7744.69    1.034186e-01
   7744.98    1.035135e-01
   7745.27    1.032626e-01
   7745.56    1.029829e-01
   7745.84    1.027031e-01
   7746.13    1.022483e-01
   7746.42    1.015891e-01
   7746.71    1.009299e-01
   7747.00    1.002707e-01
   7747.29    9.936462e-02
   7747.58    9.845851e-02
   7747.87    9.755239e-02
   7748.16    9.660967e-02
   7748.44    9.563556e-02
   7748.73    9.466146e-02
   7749.02    9.369339e-02
   7749.31    9.279782e-02
   7749.60    9.190224e-02
   7749.89    9.100666e-02
   7750.18    9.020926e-02
   7750.47    8.947322e-02
   7750.76    8.873718e-02
   7751.04    8.802659e-02
   7751.33    8.745597e-02
   7751.62    8.688535e-02
   7751.91    8.631474e-02
   7752.20    8.583672e-02
   7752.49    8.539987e-02
   7752.78    8.496302e-02
   7753.07    8.454814e-02
   7753.36    8.420653e-02
   7753.64    8.386492e-02
   7753.93    8.352330e-02
   7754.22    8.322745e-02
   7754.51    8.294533e-02
   7754.80    8.266320e-02
   7755.09    8.239041e-02
   7755.38    8.213863e-02
   7755.67    8.188685e-02
   7755.96    8.163507e-02
   7756.24    8.139207e-02
   7756.53    8.115068e-02
   7756.82    8.090928e-02
   7757.11    8.066873e-02
   7757.40    8.042953e-02
   7757.69    8.019034e-02
   7757.98    7.995114e-02
   7758.27    7.972059e-02
   7758.56    7.949077e-02
   7758.84    7.926094e-02
   7759.13    7.904667e-02
   7759.42    7.885056e-02
   7759.71    7.865445e-02
   7760.00    7.845833e-02
