 FDMNES
  energy    <xanes>
   7695.00    5.202746e-04
   7695.29    5.259911e-04
   7695.58    5.317077e-04
   7695.87    5.374242e-04
   7696.16    5.433599e-04
   7696.44    5.494835e-04
   7696.73    5.556071e-04
   7697.02    5.617653e-04
   7697.31    5.683395e-04
   7697.60    5.749137e-04
   7697.89    5.814878e-04
   7698.18    5.883700e-04
   7698.47    5.954446e-04
   7698.76    6.025192e-04
   7699.04    6.096797e-04
   7699.33    6.173122e-04
   7699.62    6.249447e-04
   7699.91    6.325771e-04
   7700.20    6.406418e-04
   7700.49    6.488984e-04
   7700.78    6.571551e-04
   7701.07    6.655736e-04
   7701.36    6.745316e-04
   7701.64    6.834896e-04
   7701.93    6.924476e-04
   7702.22    7.020144e-04
   7702.51    7.117638e-04
   7702.80    7.215132e-04
   7703.09    7.315388e-04
   7703.38    7.421856e-04
   7703.67    7.528325e-04
   7703.96    7.634793e-04
   7704.24    7.749917e-04
   7704.53    7.866614e-04
   7704.82    7.983311e-04
   7705.11    8.104517e-04
   7705.40    8.232939e-04
   7705.69    8.361360e-04
   7705.98    8.489782e-04
   7706.27    8.630685e-04
   7706.56    8.772628e-04
   7706.84    8.914572e-04
   7707.13    9.063761e-04
   7707.42    9.221405e-04
   7707.71    9.379048e-04
   7708.00    9.536692e-04
   7708.29    9.712701e-04
   7708.58    9.888710e-04
   7708.87    1.006472e-03
   7709.16    1.025239e-03
   7709.44    1.045006e-03
   7709.73    1.064773e-03
   7710.02    1.084739e-03
   7710.31    1.107084e-03
   7710.60    1.129430e-03
   7710.89    1.151775e-03
   7711.18    1.176029e-03
   7711.47    1.201476e-03
   7711.76    1.226922e-03
   7712.04    1.252950e-03
   7712.33    1.282170e-03
   7712.62    1.311390e-03
   7712.91    1.340611e-03
   7713.20    1.373053e-03
   7713.49    1.406927e-03
   7713.78    1.440801e-03
   7714.07    1.476021e-03
   7714.36    1.515724e-03
   7714.64    1.555427e-03
   7714.93    1.595130e-03
   7715.22    1.640552e-03
   7715.51    1.687689e-03
   7715.80    1.734826e-03
   7716.09    1.784945e-03
   7716.38    1.841771e-03
   7716.67    1.898596e-03
   7716.96    1.955422e-03
   7717.24    2.023217e-03
   7717.53    2.093007e-03
   7717.82    2.162796e-03
   7718.11    2.239479e-03
   7718.40    2.327194e-03
   7718.69    2.414908e-03
   7718.98    2.502622e-03
   7719.27    2.614212e-03
   7719.56    2.727791e-03
   7719.84    2.841371e-03
   7720.13    2.973208e-03
   7720.42    3.126346e-03
   7720.71    3.279484e-03
   7721.00    3.432621e-03
   7721.29    3.651650e-03
   7721.58    3.870678e-03
   7721.87    4.089706e-03
   7722.16    4.376686e-03
   7722.44    4.721911e-03
   7722.73    5.067136e-03
   7723.02    5.436589e-03
   7723.31    6.096783e-03
   7723.60    6.756977e-03
   7723.89    7.417171e-03
   7724.18    8.768457e-03
   7724.47    1.055168e-02
   7724.76    1.233490e-02
   7725.04    1.427746e-02
   7725.33    1.712758e-02
   7725.62    2.002111e-02
   7725.91    2.299300e-02
   7726.20    2.615108e-02
   7726.49    2.972301e-02
   7726.78    3.379824e-02
   7727.07    3.863821e-02
   7727.36    4.424240e-02
   7727.64    5.058137e-02
   7727.93    5.743691e-02
   7728.22    6.451768e-02
   7728.51    7.169803e-02
   7728.80    7.904539e-02
   7729.09    8.686711e-02
   7729.38    9.517542e-02
   7729.67    1.037940e-01
   7729.96    1.121358e-01
   7730.24    1.194564e-01
   7730.53    1.248728e-01
   7730.82    1.281149e-01
   7731.11    1.292703e-01
   7731.40    1.286862e-01
   7731.69    1.268342e-01
   7731.98    1.241723e-01
   7732.27    1.210607e-01
   7732.56    1.177857e-01
   7732.84    1.145351e-01
   7733.13    1.114224e-01
   7733.42    1.085327e-01
   7733.71    1.059329e-01
   7734.00    1.036732e-01
   7734.29    1.018312e-01
   7734.58    1.003704e-01
   7734.87    9.927519e-02
   7735.16    9.851116e-02
   7735.44    9.802861e-02
   7735.73    9.776684e-02
   7736.02    9.766543e-02
   7736.31    9.764715e-02
   7736.60    9.764832e-02
   7736.89    9.762558e-02
   7737.18    9.755160e-02
   7737.47    9.741585e-02
   7737.76    9.722241e-02
   7738.04    9.698736e-02
   7738.33    9.674074e-02
   7738.62    9.650761e-02
   7738.91    9.630977e-02
   7739.20    9.616318e-02
   7739.49    9.607672e-02
   7739.78    9.605669e-02
   7740.07    9.609908e-02
   7740.36    9.619338e-02
   7740.64    9.628769e-02
   7740.93    9.638199e-02
   7741.22    9.643634e-02
   7741.51    9.647870e-02
   7741.80    9.652106e-02
   7742.09    9.650155e-02
   7742.38    9.634281e-02
   7742.67    9.618408e-02
   7742.96    9.602534e-02
   7743.24    9.567712e-02
   7743.53    9.529444e-02
   7743.82    9.491177e-02
   7744.11    9.446781e-02
   7744.40    9.392581e-02
   7744.69    9.338381e-02
   7744.98    9.284181e-02
   7745.27    9.222035e-02
   7745.56    9.159226e-02
   7745.84    9.096418e-02
   7746.13    9.032208e-02
   7746.42    8.966362e-02
   7746.71    8.900517e-02
   7747.00    8.834671e-02
   7747.29    8.770489e-02
   7747.58    8.706307e-02
   7747.87    8.642124e-02
   7748.16    8.580908e-02
   7748.44    8.522235e-02
   7748.73    8.463561e-02
   7749.02    8.405454e-02
   7749.31    8.354140e-02
   7749.60    8.302827e-02
   7749.89    8.251513e-02
   7750.18    8.204330e-02
   7750.47    8.159728e-02
   7750.76    8.115126e-02
   7751.04    8.071184e-02
   7751.33    8.030871e-02
   7751.62    7.990559e-02
   7751.91    7.950247e-02
   7752.20    7.910830e-02
   7752.49    7.871812e-02
   7752.78    7.832794e-02
   7753.07    7.793469e-02
   7753.36    7.753122e-02
   7753.64    7.712775e-02
   7753.93    7.672429e-02
   7754.22    7.629712e-02
   7754.51    7.586284e-02
   7754.80    7.542856e-02
   7755.09    7.498277e-02
   7755.38    7.451106e-02
   7755.67    7.403935e-02
   7755.96    7.356764e-02
   7756.24    7.306938e-02
   7756.53    7.256629e-02
   7756.82    7.206321e-02
   7757.11    7.155633e-02
   7757.40    7.104340e-02
   7757.69    7.053047e-02
   7757.98    7.001753e-02
   7758.27    6.953285e-02
   7758.56    6.905052e-02
   7758.84    6.856820e-02
   7759.13    6.812552e-02
   7759.42    6.772911e-02
   7759.71    6.733270e-02
   7760.00    6.693629e-02
