 FDMNES
  energy    <xanes>
   7695.00    5.468090e-04
   7695.29    5.524762e-04
   7695.58    5.581435e-04
   7695.87    5.638107e-04
   7696.16    5.696867e-04
   7696.44    5.757417e-04
   7696.73    5.817968e-04
   7697.02    5.878847e-04
   7697.31    5.943679e-04
   7697.60    6.008510e-04
   7697.89    6.073342e-04
   7698.18    6.141091e-04
   7698.47    6.210664e-04
   7698.76    6.280238e-04
   7699.04    6.350622e-04
   7699.33    6.425466e-04
   7699.62    6.500310e-04
   7699.91    6.575154e-04
   7700.20    6.654068e-04
   7700.49    6.734792e-04
   7700.78    6.815516e-04
   7701.07    6.897759e-04
   7701.36    6.985069e-04
   7701.64    7.072379e-04
   7701.93    7.159688e-04
   7702.22    7.252697e-04
   7702.51    7.347416e-04
   7702.80    7.442134e-04
   7703.09    7.539429e-04
   7703.38    7.642521e-04
   7703.67    7.745613e-04
   7703.96    7.848705e-04
   7704.24    7.959845e-04
   7704.53    8.072449e-04
   7704.82    8.185052e-04
   7705.11    8.301834e-04
   7705.40    8.425302e-04
   7705.69    8.548769e-04
   7705.98    8.672237e-04
   7706.27    8.807228e-04
   7706.56    8.943179e-04
   7706.84    9.079130e-04
   7707.13    9.221746e-04
   7707.42    9.372138e-04
   7707.71    9.522529e-04
   7708.00    9.672921e-04
   7708.29    9.840137e-04
   7708.58    1.000735e-03
   7708.87    1.017457e-03
   7709.16    1.035243e-03
   7709.44    1.053941e-03
   7709.73    1.072639e-03
   7710.02    1.091517e-03
   7710.31    1.112558e-03
   7710.60    1.133599e-03
   7710.89    1.154639e-03
   7711.18    1.177406e-03
   7711.47    1.201252e-03
   7711.76    1.225098e-03
   7712.04    1.249467e-03
   7712.33    1.276711e-03
   7712.62    1.303955e-03
   7712.91    1.331199e-03
   7713.20    1.361331e-03
   7713.49    1.392746e-03
   7713.78    1.424161e-03
   7714.07    1.456777e-03
   7714.36    1.493392e-03
   7714.64    1.530007e-03
   7714.93    1.566622e-03
   7715.22    1.608314e-03
   7715.51    1.651530e-03
   7715.80    1.694745e-03
   7716.09    1.740595e-03
   7716.38    1.792373e-03
   7716.67    1.844150e-03
   7716.96    1.895928e-03
   7717.24    1.957357e-03
   7717.53    2.020541e-03
   7717.82    2.083724e-03
   7718.11    2.152952e-03
   7718.40    2.231850e-03
   7718.69    2.310749e-03
   7718.98    2.389647e-03
   7719.27    2.489430e-03
   7719.56    2.590953e-03
   7719.84    2.692476e-03
   7720.13    2.809978e-03
   7720.42    2.946122e-03
   7720.71    3.082265e-03
   7721.00    3.218409e-03
   7721.29    3.412565e-03
   7721.58    3.606722e-03
   7721.87    3.800878e-03
   7722.16    4.055898e-03
   7722.44    4.363087e-03
   7722.73    4.670276e-03
   7723.02    5.000030e-03
   7723.31    5.600565e-03
   7723.60    6.201101e-03
   7723.89    6.801637e-03
   7724.18    8.070453e-03
   7724.47    9.756945e-03
   7724.76    1.144344e-02
   7725.04    1.326830e-02
   7725.33    1.582794e-02
   7725.62    1.826211e-02
   7725.91    2.062752e-02
   7726.20    2.309022e-02
   7726.49    2.583773e-02
   7726.78    2.891307e-02
   7727.07    3.244430e-02
   7727.36    3.641992e-02
   7727.64    4.087350e-02
   7727.93    4.579364e-02
   7728.22    5.112449e-02
   7728.51    5.684227e-02
   7728.80    6.279569e-02
   7729.09    6.890106e-02
   7729.38    7.505156e-02
   7729.67    8.125704e-02
   7729.96    8.755595e-02
   7730.24    9.394389e-02
   7730.53    1.002387e-01
   7730.82    1.060828e-01
   7731.11    1.110518e-01
   7731.40    1.147515e-01
   7731.69    1.169376e-01
   7731.98    1.175874e-01
   7732.27    1.168398e-01
   7732.56    1.150574e-01
   7732.84    1.126849e-01
   7733.13    1.100353e-01
   7733.42    1.073590e-01
   7733.71    1.048425e-01
   7734.00    1.026146e-01
   7734.29    1.008013e-01
   7734.58    9.939183e-02
   7734.87    9.838342e-02
   7735.16    9.775093e-02
   7735.44    9.745198e-02
   7735.73    9.743042e-02
   7736.02    9.762810e-02
   7736.31    9.795469e-02
   7736.60    9.832157e-02
   7736.89    9.865426e-02
   7737.18    9.888907e-02
   7737.47    9.897952e-02
   7737.76    9.889817e-02
   7738.04    9.863220e-02
   7738.33    9.822462e-02
   7738.62    9.771518e-02
   7738.91    9.715115e-02
   7739.20    9.658073e-02
   7739.49    9.604779e-02
   7739.78    9.559675e-02
   7740.07    9.528978e-02
   7740.36    9.518783e-02
   7740.64    9.508587e-02
   7740.93    9.498392e-02
   7741.22    9.518669e-02
   7741.51    9.548088e-02
   7741.80    9.577506e-02
   7742.09    9.612259e-02
   7742.38    9.659014e-02
   7742.67    9.705769e-02
   7742.96    9.752524e-02
   7743.24    9.788598e-02
   7743.53    9.822730e-02
   7743.82    9.856862e-02
   7744.11    9.878334e-02
   7744.40    9.879550e-02
   7744.69    9.880767e-02
   7744.98    9.881983e-02
   7745.27    9.851413e-02
   7745.56    9.818194e-02
   7745.84    9.784975e-02
   7746.13    9.741194e-02
   7746.42    9.685090e-02
   7746.71    9.628986e-02
   7747.00    9.572882e-02
   7747.29    9.506700e-02
   7747.58    9.440518e-02
   7747.87    9.374336e-02
   7748.16    9.307535e-02
   7748.44    9.240204e-02
   7748.73    9.172872e-02
   7749.02    9.105909e-02
   7749.31    9.043379e-02
   7749.60    8.980849e-02
   7749.89    8.918319e-02
   7750.18    8.861058e-02
   7750.47    8.807090e-02
   7750.76    8.753122e-02
   7751.04    8.700663e-02
   7751.33    8.656502e-02
   7751.62    8.612340e-02
   7751.91    8.568179e-02
   7752.20    8.530053e-02
   7752.49    8.494609e-02
   7752.78    8.459165e-02
   7753.07    8.425145e-02
   7753.36    8.395873e-02
   7753.64    8.366601e-02
   7753.93    8.337329e-02
   7754.22    8.310446e-02
   7754.51    8.284280e-02
   7754.80    8.258114e-02
   7755.09    8.232091e-02
   7755.38    8.206390e-02
   7755.67    8.180689e-02
   7755.96    8.154989e-02
   7756.24    8.128358e-02
   7756.53    8.101558e-02
   7756.82    8.074758e-02
   7757.11    8.047491e-02
   7757.40    8.019477e-02
   7757.69    7.991464e-02
   7757.98    7.963450e-02
   7758.27    7.935865e-02
   7758.56    7.908316e-02
   7758.84    7.880766e-02
   7759.13    7.855055e-02
   7759.42    7.831487e-02
   7759.71    7.807919e-02
   7760.00    7.784352e-02
