 FDMNES
  energy    <xanes>
   7695.00    5.178470e-04
   7695.29    5.234203e-04
   7695.58    5.289936e-04
   7695.87    5.345668e-04
   7696.16    5.403498e-04
   7696.44    5.463124e-04
   7696.73    5.522750e-04
   7697.02    5.582708e-04
   7697.31    5.646637e-04
   7697.60    5.710566e-04
   7697.89    5.774495e-04
   7698.18    5.841361e-04
   7698.47    5.910061e-04
   7698.76    5.978762e-04
   7699.04    6.048279e-04
   7699.33    6.122289e-04
   7699.62    6.196300e-04
   7699.91    6.270310e-04
   7700.20    6.348426e-04
   7700.49    6.428366e-04
   7700.78    6.508307e-04
   7701.07    6.589782e-04
   7701.36    6.676373e-04
   7701.64    6.762965e-04
   7701.93    6.849556e-04
   7702.22    6.941910e-04
   7702.51    7.035992e-04
   7702.80    7.130075e-04
   7703.09    7.226766e-04
   7703.38    7.329326e-04
   7703.67    7.431886e-04
   7703.96    7.534446e-04
   7704.24    7.645166e-04
   7704.53    7.757369e-04
   7704.82    7.869572e-04
   7705.11    7.986018e-04
   7705.40    8.109251e-04
   7705.69    8.232484e-04
   7705.98    8.355718e-04
   7706.27    8.490669e-04
   7706.56    8.626596e-04
   7706.84    8.762523e-04
   7707.13    8.905238e-04
   7707.42    9.055872e-04
   7707.71    9.206506e-04
   7708.00    9.357140e-04
   7708.29    9.524940e-04
   7708.58    9.692739e-04
   7708.87    9.860539e-04
   7709.16    1.003922e-03
   7709.44    1.022722e-03
   7709.73    1.041522e-03
   7710.02    1.060507e-03
   7710.31    1.081707e-03
   7710.60    1.102906e-03
   7710.89    1.124106e-03
   7711.18    1.147078e-03
   7711.47    1.171158e-03
   7711.76    1.195238e-03
   7712.04    1.219856e-03
   7712.33    1.247434e-03
   7712.62    1.275012e-03
   7712.91    1.302590e-03
   7713.20    1.333151e-03
   7713.49    1.365037e-03
   7713.78    1.396922e-03
   7714.07    1.430052e-03
   7714.36    1.467327e-03
   7714.64    1.504602e-03
   7714.93    1.541878e-03
   7715.22    1.584439e-03
   7715.51    1.628587e-03
   7715.80    1.672734e-03
   7716.09    1.719640e-03
   7716.38    1.772753e-03
   7716.67    1.825865e-03
   7716.96    1.878978e-03
   7717.24    1.942270e-03
   7717.53    2.007414e-03
   7717.82    2.072557e-03
   7718.11    2.144137e-03
   7718.40    2.226017e-03
   7718.69    2.307896e-03
   7718.98    2.389776e-03
   7719.27    2.494199e-03
   7719.56    2.600502e-03
   7719.84    2.706804e-03
   7720.13    2.830695e-03
   7720.42    2.975105e-03
   7720.71    3.119515e-03
   7721.00    3.263926e-03
   7721.29    3.474114e-03
   7721.58    3.684303e-03
   7721.87    3.894492e-03
   7722.16    4.177019e-03
   7722.44    4.521551e-03
   7722.73    4.866082e-03
   7723.02    5.239497e-03
   7723.31    5.959515e-03
   7723.60    6.679533e-03
   7723.89    7.399551e-03
   7724.18    9.039924e-03
   7724.47    1.125552e-02
   7724.76    1.347111e-02
   7725.04    1.586409e-02
   7725.33    1.910014e-02
   7725.62    2.178632e-02
   7725.91    2.387895e-02
   7726.20    2.576004e-02
   7726.49    2.773311e-02
   7726.78    2.996233e-02
   7727.07    3.261047e-02
   7727.36    3.572890e-02
   7727.64    3.946718e-02
   7727.93    4.396924e-02
   7728.22    4.933949e-02
   7728.51    5.580261e-02
   7728.80    6.322756e-02
   7729.09    7.165059e-02
   7729.38    8.048774e-02
   7729.67    8.909366e-02
   7729.96    9.677560e-02
   7730.24    1.029076e-01
   7730.53    1.069541e-01
   7730.82    1.090764e-01
   7731.11    1.096504e-01
   7731.40    1.091539e-01
   7731.69    1.080392e-01
   7731.98    1.066424e-01
   7732.27    1.051746e-01
   7732.56    1.037624e-01
   7732.84    1.024702e-01
   7733.13    1.013446e-01
   7733.42    1.004247e-01
   7733.71    9.974235e-02
   7734.00    9.932189e-02
   7734.29    9.921227e-02
   7734.58    9.938361e-02
   7734.87    9.982527e-02
   7735.16    1.005130e-01
   7735.44    1.014080e-01
   7735.73    1.024572e-01
   7736.02    1.035946e-01
   7736.31    1.047294e-01
   7736.60    1.057756e-01
   7736.89    1.066558e-01
   7737.18    1.073056e-01
   7737.47    1.076813e-01
   7737.76    1.077600e-01
   7738.04    1.075308e-01
   7738.33    1.070611e-01
   7738.62    1.064030e-01
   7738.91    1.056159e-01
   7739.20    1.047586e-01
   7739.49    1.038845e-01
   7739.78    1.030429e-01
   7740.07    1.022997e-01
   7740.36    1.017176e-01
   7740.64    1.011355e-01
   7740.93    1.005534e-01
   7741.22    1.002556e-01
   7741.51    1.000430e-01
   7741.80    9.983045e-02
   7742.09    9.968593e-02
   7742.38    9.969448e-02
   7742.67    9.970304e-02
   7742.96    9.971160e-02
   7743.24    9.970100e-02
   7743.53    9.968692e-02
   7743.82    9.967284e-02
   7744.11    9.957366e-02
   7744.40    9.933832e-02
   7744.69    9.910298e-02
   7744.98    9.886763e-02
   7745.27    9.836242e-02
   7745.56    9.783471e-02
   7745.84    9.730701e-02
   7746.13    9.667477e-02
   7746.42    9.592057e-02
   7746.71    9.516637e-02
   7747.00    9.441218e-02
   7747.29    9.357317e-02
   7747.58    9.273417e-02
   7747.87    9.189517e-02
   7748.16    9.107383e-02
   7748.44    9.026762e-02
   7748.73    8.946142e-02
   7749.02    8.866234e-02
   7749.31    8.794886e-02
   7749.60    8.723537e-02
   7749.89    8.652189e-02
   7750.18    8.587252e-02
   7750.47    8.526324e-02
   7750.76    8.465395e-02
   7751.04    8.405778e-02
   7751.33    8.353375e-02
   7751.62    8.300972e-02
   7751.91    8.248569e-02
   7752.20    8.199831e-02
   7752.49    8.152722e-02
   7752.78    8.105613e-02
   7753.07    8.058937e-02
   7753.36    8.013705e-02
   7753.64    7.968473e-02
   7753.93    7.923240e-02
   7754.22    7.877186e-02
   7754.51    7.830886e-02
   7754.80    7.784586e-02
   7755.09    7.737339e-02
   7755.38    7.687962e-02
   7755.67    7.638585e-02
   7755.96    7.589208e-02
   7756.24    7.536778e-02
   7756.53    7.483793e-02
   7756.82    7.430807e-02
   7757.11    7.377048e-02
   7757.40    7.322048e-02
   7757.69    7.267049e-02
   7757.98    7.212050e-02
   7758.27    7.159151e-02
   7758.56    7.106427e-02
   7758.84    7.053703e-02
   7759.13    7.005036e-02
   7759.42    6.961100e-02
   7759.71    6.917165e-02
   7760.00    6.873230e-02
