 FDMNES
  energy    <xanes>
   7695.00    5.355990e-04
   7695.29    5.413070e-04
   7695.58    5.470151e-04
   7695.87    5.527232e-04
   7696.16    5.586459e-04
   7696.44    5.647527e-04
   7696.73    5.708594e-04
   7697.02    5.770001e-04
   7697.31    5.835476e-04
   7697.60    5.900952e-04
   7697.89    5.966428e-04
   7698.18    6.034913e-04
   7698.47    6.105280e-04
   7698.76    6.175646e-04
   7699.04    6.246851e-04
   7699.33    6.322662e-04
   7699.62    6.398474e-04
   7699.91    6.474286e-04
   7700.20    6.554311e-04
   7700.49    6.636209e-04
   7700.78    6.718107e-04
   7701.07    6.801581e-04
   7701.36    6.890308e-04
   7701.64    6.979036e-04
   7701.93    7.067763e-04
   7702.22    7.162413e-04
   7702.51    7.258840e-04
   7702.80    7.355267e-04
   7703.09    7.454376e-04
   7703.38    7.559523e-04
   7703.67    7.664669e-04
   7703.96    7.769816e-04
   7704.24    7.883364e-04
   7704.53    7.998438e-04
   7704.82    8.113513e-04
   7705.11    8.232961e-04
   7705.40    8.359403e-04
   7705.69    8.485846e-04
   7705.98    8.612289e-04
   7706.27    8.750822e-04
   7706.56    8.890363e-04
   7706.84    9.029903e-04
   7707.13    9.176456e-04
   7707.42    9.331190e-04
   7707.71    9.485924e-04
   7708.00    9.640658e-04
   7708.29    9.813150e-04
   7708.58    9.985641e-04
   7708.87    1.015813e-03
   7709.16    1.034190e-03
   7709.44    1.053532e-03
   7709.73    1.072874e-03
   7710.02    1.092408e-03
   7710.31    1.114240e-03
   7710.60    1.136072e-03
   7710.89    1.157904e-03
   7711.18    1.181579e-03
   7711.47    1.206405e-03
   7711.76    1.231231e-03
   7712.04    1.256617e-03
   7712.33    1.285086e-03
   7712.62    1.313555e-03
   7712.91    1.342024e-03
   7713.20    1.373605e-03
   7713.49    1.406568e-03
   7713.78    1.439532e-03
   7714.07    1.473795e-03
   7714.36    1.512393e-03
   7714.64    1.550991e-03
   7714.93    1.589588e-03
   7715.22    1.633722e-03
   7715.51    1.679517e-03
   7715.80    1.725312e-03
   7716.09    1.774001e-03
   7716.38    1.829200e-03
   7716.67    1.884399e-03
   7716.96    1.939599e-03
   7717.24    2.005487e-03
   7717.53    2.073318e-03
   7717.82    2.141150e-03
   7718.11    2.215738e-03
   7718.40    2.301138e-03
   7718.69    2.386538e-03
   7718.98    2.471938e-03
   7719.27    2.580938e-03
   7719.56    2.691904e-03
   7719.84    2.802870e-03
   7720.13    2.932106e-03
   7720.42    3.082657e-03
   7720.71    3.233207e-03
   7721.00    3.383758e-03
   7721.29    3.601422e-03
   7721.58    3.819085e-03
   7721.87    4.036749e-03
   7722.16    4.325372e-03
   7722.44    4.674818e-03
   7722.73    5.024264e-03
   7723.02    5.399813e-03
   7723.31    6.088598e-03
   7723.60    6.777383e-03
   7723.89    7.466168e-03
   7724.18    8.925065e-03
   7724.47    1.086528e-02
   7724.76    1.280550e-02
   7725.04    1.493513e-02
   7725.33    1.817216e-02
   7725.62    2.154433e-02
   7725.91    2.505890e-02
   7726.20    2.875265e-02
   7726.49    3.269855e-02
   7726.78    3.684560e-02
   7727.07    4.120827e-02
   7727.36    4.573471e-02
   7727.64    5.040142e-02
   7727.93    5.520929e-02
   7728.22    6.019650e-02
   7728.51    6.543807e-02
   7728.80    7.090633e-02
   7729.09    7.663075e-02
   7729.38    8.254270e-02
   7729.67    8.861670e-02
   7729.96    9.469298e-02
   7730.24    1.005030e-01
   7730.53    1.055974e-01
   7730.82    1.096429e-01
   7731.11    1.124282e-01
   7731.40    1.138932e-01
   7731.69    1.141315e-01
   7731.98    1.133445e-01
   7732.27    1.117623e-01
   7732.56    1.096794e-01
   7732.84    1.073818e-01
   7733.13    1.050697e-01
   7733.42    1.029015e-01
   7733.71    1.009943e-01
   7734.00    9.942735e-02
   7734.29    9.829395e-02
   7734.58    9.756059e-02
   7734.87    9.721167e-02
   7735.16    9.721073e-02
   7735.44    9.750338e-02
   7735.73    9.802041e-02
   7736.02    9.868518e-02
   7736.31    9.939615e-02
   7736.60    1.000626e-01
   7736.89    1.006111e-01
   7737.18    1.009851e-01
   7737.47    1.011511e-01
   7737.76    1.010964e-01
   7738.04    1.008223e-01
   7738.33    1.003880e-01
   7738.62    9.984046e-02
   7738.91    9.923017e-02
   7739.20    9.860493e-02
   7739.49    9.800574e-02
   7739.78    9.747096e-02
   7740.07    9.704940e-02
   7740.36    9.678662e-02
   7740.64    9.652384e-02
   7740.93    9.626105e-02
   7741.22    9.622611e-02
   7741.51    9.625951e-02
   7741.80    9.629291e-02
   7742.09    9.636883e-02
   7742.38    9.654041e-02
   7742.67    9.671200e-02
   7742.96    9.688358e-02
   7743.24    9.701302e-02
   7743.53    9.713480e-02
   7743.82    9.725658e-02
   7744.11    9.730741e-02
   7744.40    9.724475e-02
   7744.69    9.718208e-02
   7744.98    9.711941e-02
   7745.27    9.684332e-02
   7745.56    9.654945e-02
   7745.84    9.625557e-02
   7746.13    9.586939e-02
   7746.42    9.537551e-02
   7746.71    9.488162e-02
   7747.00    9.438774e-02
   7747.29    9.376983e-02
   7747.58    9.315193e-02
   7747.87    9.253402e-02
   7748.16    9.189123e-02
   7748.44    9.122711e-02
   7748.73    9.056299e-02
   7749.02    8.990002e-02
   7749.31    8.925095e-02
   7749.60    8.860188e-02
   7749.89    8.795281e-02
   7750.18    8.733606e-02
   7750.47    8.673951e-02
   7750.76    8.614295e-02
   7751.04    8.555639e-02
   7751.33    8.502477e-02
   7751.62    8.449316e-02
   7751.91    8.396154e-02
   7752.20    8.347036e-02
   7752.49    8.299715e-02
   7752.78    8.252394e-02
   7753.07    8.206038e-02
   7753.36    8.162899e-02
   7753.64    8.119761e-02
   7753.93    8.076623e-02
   7754.22    8.035268e-02
   7754.51    7.994448e-02
   7754.80    7.953628e-02
   7755.09    7.913060e-02
   7755.38    7.873061e-02
   7755.67    7.833061e-02
   7755.96    7.793062e-02
   7756.24    7.753153e-02
   7756.53    7.713261e-02
   7756.82    7.673369e-02
   7757.11    7.633687e-02
   7757.40    7.594343e-02
   7757.69    7.554998e-02
   7757.98    7.515654e-02
   7758.27    7.478684e-02
   7758.56    7.441912e-02
   7758.84    7.405140e-02
   7759.13    7.371267e-02
   7759.42    7.340776e-02
   7759.71    7.310286e-02
   7760.00    7.279795e-02
