 FDMNES
  energy    <xanes>
   7695.00    5.176405e-04
   7695.29    5.233018e-04
   7695.58    5.289631e-04
   7695.87    5.346244e-04
   7696.16    5.405014e-04
   7696.44    5.465634e-04
   7696.73    5.526254e-04
   7697.02    5.587215e-04
   7697.31    5.652267e-04
   7697.60    5.717320e-04
   7697.89    5.782373e-04
   7698.18    5.850454e-04
   7698.47    5.920428e-04
   7698.76    5.990401e-04
   7699.04    6.061218e-04
   7699.33    6.136673e-04
   7699.62    6.212128e-04
   7699.91    6.287583e-04
   7700.20    6.367280e-04
   7700.49    6.448864e-04
   7700.78    6.530448e-04
   7701.07    6.613620e-04
   7701.36    6.702084e-04
   7701.64    6.790549e-04
   7701.93    6.879014e-04
   7702.22    6.973447e-04
   7702.51    7.069671e-04
   7702.80    7.165895e-04
   7703.09    7.264824e-04
   7703.38    7.369839e-04
   7703.67    7.474854e-04
   7703.96    7.579869e-04
   7704.24    7.693355e-04
   7704.53    7.808381e-04
   7704.82    7.923407e-04
   7705.11    8.042843e-04
   7705.40    8.169334e-04
   7705.69    8.295825e-04
   7705.98    8.422315e-04
   7706.27    8.560999e-04
   7706.56    8.700699e-04
   7706.84    8.840399e-04
   7707.13    8.987170e-04
   7707.42    9.142192e-04
   7707.71    9.297213e-04
   7708.00    9.452234e-04
   7708.29    9.625159e-04
   7708.58    9.798083e-04
   7708.87    9.971007e-04
   7709.16    1.015529e-03
   7709.44    1.034930e-03
   7709.73    1.054332e-03
   7710.02    1.073927e-03
   7710.31    1.095836e-03
   7710.60    1.117745e-03
   7710.89    1.139654e-03
   7711.18    1.163417e-03
   7711.47    1.188339e-03
   7711.76    1.213260e-03
   7712.04    1.238744e-03
   7712.33    1.267326e-03
   7712.62    1.295908e-03
   7712.91    1.324490e-03
   7713.20    1.356194e-03
   7713.49    1.389284e-03
   7713.78    1.422374e-03
   7714.07    1.456766e-03
   7714.36    1.495496e-03
   7714.64    1.534225e-03
   7714.93    1.572955e-03
   7715.22    1.617210e-03
   7715.51    1.663122e-03
   7715.80    1.709034e-03
   7716.09    1.757824e-03
   7716.38    1.813086e-03
   7716.67    1.868348e-03
   7716.96    1.923610e-03
   7717.24    1.989448e-03
   7717.53    2.057209e-03
   7717.82    2.124969e-03
   7718.11    2.199374e-03
   7718.40    2.284409e-03
   7718.69    2.369444e-03
   7718.98    2.454478e-03
   7719.27    2.562532e-03
   7719.56    2.672505e-03
   7719.84    2.782477e-03
   7720.13    2.910090e-03
   7720.42    3.058284e-03
   7720.71    3.206479e-03
   7721.00    3.354673e-03
   7721.29    3.566878e-03
   7721.58    3.779083e-03
   7721.87    3.991287e-03
   7722.16    4.270297e-03
   7722.44    4.606567e-03
   7722.73    4.942837e-03
   7723.02    5.303508e-03
   7723.31    5.956995e-03
   7723.60    6.610482e-03
   7723.89    7.263968e-03
   7724.18    8.632116e-03
   7724.47    1.044693e-02
   7724.76    1.226174e-02
   7725.04    1.423514e-02
   7725.33    1.708253e-02
   7725.62    1.987053e-02
   7725.91    2.262567e-02
   7726.20    2.550320e-02
   7726.49    2.871905e-02
   7726.78    3.232257e-02
   7727.07    3.646172e-02
   7727.36    4.112131e-02
   7727.64    4.633473e-02
   7727.93    5.207216e-02
   7728.22    5.825772e-02
   7728.51    6.490549e-02
   7728.80    7.195560e-02
   7729.09    7.953568e-02
   7729.38    8.750392e-02
   7729.67    9.570597e-02
   7729.96    1.037654e-01
   7730.24    1.111886e-01
   7730.53    1.172633e-01
   7730.82    1.215792e-01
   7731.11    1.239634e-01
   7731.40    1.245107e-01
   7731.69    1.235524e-01
   7731.98    1.215430e-01
   7732.27    1.189343e-01
   7732.56    1.161540e-01
   7732.84    1.134915e-01
   7733.13    1.111029e-01
   7733.42    1.090671e-01
   7733.71    1.074076e-01
   7734.00    1.061103e-01
   7734.29    1.051697e-01
   7734.58    1.044899e-01
   7734.87    1.040130e-01
   7735.16    1.036812e-01
   7735.44    1.034393e-01
   7735.73    1.032364e-01
   7736.02    1.030235e-01
   7736.31    1.027576e-01
   7736.60    1.024123e-01
   7736.89    1.019704e-01
   7737.18    1.014258e-01
   7737.47    1.007827e-01
   7737.76    1.000531e-01
   7738.04    9.925552e-02
   7738.33    9.842475e-02
   7738.62    9.758938e-02
   7738.91    9.677784e-02
   7739.20    9.601646e-02
   7739.49    9.532788e-02
   7739.78    9.473849e-02
   7740.07    9.429095e-02
   7740.36    9.403220e-02
   7740.64    9.377345e-02
   7740.93    9.351470e-02
   7741.22    9.353483e-02
   7741.51    9.363863e-02
   7741.80    9.374242e-02
   7742.09    9.391108e-02
   7742.38    9.422568e-02
   7742.67    9.454027e-02
   7742.96    9.485486e-02
   7743.24    9.516085e-02
   7743.53    9.546527e-02
   7743.82    9.576969e-02
   7744.11    9.598893e-02
   7744.40    9.607190e-02
   7744.69    9.615487e-02
   7744.98    9.623784e-02
   7745.27    9.600953e-02
   7745.56    9.575528e-02
   7745.84    9.550103e-02
   7746.13    9.510559e-02
   7746.42    9.454543e-02
   7746.71    9.398527e-02
   7747.00    9.342511e-02
   7747.29    9.268957e-02
   7747.58    9.195403e-02
   7747.87    9.121849e-02
   7748.16    9.046167e-02
   7748.44    8.968663e-02
   7748.73    8.891158e-02
   7749.02    8.813989e-02
   7749.31    8.740847e-02
   7749.60    8.667704e-02
   7749.89    8.594562e-02
   7750.18    8.525759e-02
   7750.47    8.459669e-02
   7750.76    8.393580e-02
   7751.04    8.328459e-02
   7751.33    8.268669e-02
   7751.62    8.208880e-02
   7751.91    8.149090e-02
   7752.20    8.092156e-02
   7752.49    8.036490e-02
   7752.78    7.980824e-02
   7753.07    7.925560e-02
   7753.36    7.871636e-02
   7753.64    7.817712e-02
   7753.93    7.763788e-02
   7754.22    7.709743e-02
   7754.51    7.655661e-02
   7754.80    7.601579e-02
   7755.09    7.547156e-02
   7755.38    7.491967e-02
   7755.67    7.436778e-02
   7755.96    7.381589e-02
   7756.24    7.325759e-02
   7756.53    7.269813e-02
   7756.82    7.213867e-02
   7757.11    7.158357e-02
   7757.40    7.103543e-02
   7757.69    7.048729e-02
   7757.98    6.993915e-02
   7758.27    6.943454e-02
   7758.56    6.893356e-02
   7758.84    6.843258e-02
   7759.13    6.797559e-02
   7759.42    6.756993e-02
   7759.71    6.716427e-02
   7760.00    6.675860e-02
