 FDMNES
  energy    <xanes>
   7695.00    5.144702e-04
   7695.29    5.201754e-04
   7695.58    5.258806e-04
   7695.87    5.315859e-04
   7696.16    5.375116e-04
   7696.44    5.436263e-04
   7696.73    5.497410e-04
   7697.02    5.558906e-04
   7697.31    5.624590e-04
   7697.60    5.690273e-04
   7697.89    5.755956e-04
   7698.18    5.824743e-04
   7698.47    5.895469e-04
   7698.76    5.966195e-04
   7699.04    6.037786e-04
   7699.33    6.114138e-04
   7699.62    6.190489e-04
   7699.91    6.266840e-04
   7700.20    6.347553e-04
   7700.49    6.430204e-04
   7700.78    6.512856e-04
   7701.07    6.597142e-04
   7701.36    6.686878e-04
   7701.64    6.776614e-04
   7701.93    6.866350e-04
   7702.22    6.962243e-04
   7702.51    7.059983e-04
   7702.80    7.157722e-04
   7703.09    7.258257e-04
   7703.38    7.365082e-04
   7703.67    7.471907e-04
   7703.96    7.578731e-04
   7704.24    7.694328e-04
   7704.53    7.811520e-04
   7704.82    7.928712e-04
   7705.11    8.050480e-04
   7705.40    8.179570e-04
   7705.69    8.308660e-04
   7705.98    8.437749e-04
   7706.27    8.579523e-04
   7706.56    8.722353e-04
   7706.84    8.865184e-04
   7707.13    9.015388e-04
   7707.42    9.174196e-04
   7707.71    9.333004e-04
   7708.00    9.491812e-04
   7708.29    9.669340e-04
   7708.58    9.846868e-04
   7708.87    1.002440e-03
   7709.16    1.021383e-03
   7709.44    1.041348e-03
   7709.73    1.061312e-03
   7710.02    1.081480e-03
   7710.31    1.104082e-03
   7710.60    1.126684e-03
   7710.89    1.149286e-03
   7711.18    1.173844e-03
   7711.47    1.199625e-03
   7711.76    1.225406e-03
   7712.04    1.251784e-03
   7712.33    1.281441e-03
   7712.62    1.311099e-03
   7712.91    1.340757e-03
   7713.20    1.373733e-03
   7713.49    1.408183e-03
   7713.78    1.442634e-03
   7714.07    1.478473e-03
   7714.36    1.518942e-03
   7714.64    1.559412e-03
   7714.93    1.599881e-03
   7715.22    1.646271e-03
   7715.51    1.694439e-03
   7715.80    1.742606e-03
   7716.09    1.793870e-03
   7716.38    1.852100e-03
   7716.67    1.910330e-03
   7716.96    1.968561e-03
   7717.24    2.038221e-03
   7717.53    2.109958e-03
   7717.82    2.181696e-03
   7718.11    2.260640e-03
   7718.40    2.351113e-03
   7718.69    2.441586e-03
   7718.98    2.532060e-03
   7719.27    2.647557e-03
   7719.56    2.765139e-03
   7719.84    2.882722e-03
   7720.13    3.019469e-03
   7720.42    3.178576e-03
   7720.71    3.337682e-03
   7721.00    3.496788e-03
   7721.29    3.724951e-03
   7721.58    3.953113e-03
   7721.87    4.181275e-03
   7722.16    4.480000e-03
   7722.44    4.839209e-03
   7722.73    5.198418e-03
   7723.02    5.582110e-03
   7723.31    6.259604e-03
   7723.60    6.937097e-03
   7723.89    7.614590e-03
   7724.18    8.967884e-03
   7724.47    1.074355e-02
   7724.76    1.251922e-02
   7725.04    1.446309e-02
   7725.33    1.741406e-02
   7725.62    2.058434e-02
   7725.91    2.406073e-02
   7726.20    2.792182e-02
   7726.49    3.240553e-02
   7726.78    3.749754e-02
   7727.07    4.339388e-02
   7727.36    5.003699e-02
   7727.64    5.738157e-02
   7727.93    6.525283e-02
   7728.22    7.347956e-02
   7728.51    8.206034e-02
   7728.80    9.088050e-02
   7729.09    9.959371e-02
   7729.38    1.076265e-01
   7729.67    1.141006e-01
   7729.96    1.187148e-01
   7730.24    1.213738e-01
   7730.53    1.222547e-01
   7730.82    1.219721e-01
   7731.11    1.209812e-01
   7731.40    1.195990e-01
   7731.69    1.180094e-01
   7731.98    1.162825e-01
   7732.27    1.144064e-01
   7732.56    1.123491e-01
   7732.84    1.101230e-01
   7733.13    1.077772e-01
   7733.42    1.054042e-01
   7733.71    1.031194e-01
   7734.00    1.010314e-01
   7734.29    9.926113e-02
   7734.58    9.782197e-02
   7734.87    9.672204e-02
   7735.16    9.594152e-02
   7735.44    9.543727e-02
   7735.73    9.514884e-02
   7736.02    9.501036e-02
   7736.31    9.493715e-02
   7736.60    9.485983e-02
   7736.89    9.473124e-02
   7737.18    9.452340e-02
   7737.47    9.422813e-02
   7737.76    9.385384e-02
   7738.04    9.342203e-02
   7738.33    9.297139e-02
   7738.62    9.253388e-02
   7738.91    9.213885e-02
   7739.20    9.181057e-02
   7739.49    9.156713e-02
   7739.78    9.142851e-02
   7740.07    9.142137e-02
   7740.36    9.157259e-02
   7740.64    9.172381e-02
   7740.93    9.187503e-02
   7741.22    9.219430e-02
   7741.51    9.256398e-02
   7741.80    9.293366e-02
   7742.09    9.330244e-02
   7742.38    9.366922e-02
   7742.67    9.403600e-02
   7742.96    9.440278e-02
   7743.24    9.457398e-02
   7743.53    9.470961e-02
   7743.82    9.484525e-02
   7744.11    9.484526e-02
   7744.40    9.462828e-02
   7744.69    9.441130e-02
   7744.98    9.419432e-02
   7745.27    9.369230e-02
   7745.56    9.316652e-02
   7745.84    9.264074e-02
   7746.13    9.203849e-02
   7746.42    9.134704e-02
   7746.71    9.065559e-02
   7747.00    8.996414e-02
   7747.29    8.924310e-02
   7747.58    8.852206e-02
   7747.87    8.780101e-02
   7748.16    8.710571e-02
   7748.44    8.643248e-02
   7748.73    8.575925e-02
   7749.02    8.509139e-02
   7749.31    8.448801e-02
   7749.60    8.388463e-02
   7749.89    8.328126e-02
   7750.18    8.271299e-02
   7750.47    8.216667e-02
   7750.76    8.162036e-02
   7751.04    8.107852e-02
   7751.33    8.056135e-02
   7751.62    8.004418e-02
   7751.91    7.952702e-02
   7752.20    7.901064e-02
   7752.49    7.849462e-02
   7752.78    7.797859e-02
   7753.07    7.745850e-02
   7753.36    7.692484e-02
   7753.64    7.639118e-02
   7753.93    7.585752e-02
   7754.22    7.530606e-02
   7754.51    7.474926e-02
   7754.80    7.419246e-02
   7755.09    7.363091e-02
   7755.38    7.305866e-02
   7755.67    7.248641e-02
   7755.96    7.191416e-02
   7756.24    7.134432e-02
   7756.53    7.077492e-02
   7756.82    7.020552e-02
   7757.11    6.964744e-02
   7757.40    6.910746e-02
   7757.69    6.856748e-02
   7757.98    6.802750e-02
   7758.27    6.754618e-02
   7758.56    6.706974e-02
   7758.84    6.659331e-02
   7759.13    6.616333e-02
   7759.42    6.578755e-02
   7759.71    6.541176e-02
   7760.00    6.503598e-02
