 FDMNES
  energy    <xanes>
   7695.00    5.260682e-04
   7695.29    5.318143e-04
   7695.58    5.375604e-04
   7695.87    5.433066e-04
   7696.16    5.492730e-04
   7696.44    5.554283e-04
   7696.73    5.615835e-04
   7697.02    5.677736e-04
   7697.31    5.743819e-04
   7697.60    5.809903e-04
   7697.89    5.875986e-04
   7698.18    5.945167e-04
   7698.47    6.016285e-04
   7698.76    6.087403e-04
   7699.04    6.159385e-04
   7699.33    6.236118e-04
   7699.62    6.312850e-04
   7699.91    6.389583e-04
   7700.20    6.470669e-04
   7700.49    6.553688e-04
   7700.78    6.636708e-04
   7701.07    6.721359e-04
   7701.36    6.811447e-04
   7701.64    6.901535e-04
   7701.93    6.991624e-04
   7702.22    7.087853e-04
   7702.51    7.185925e-04
   7702.80    7.283998e-04
   7703.09    7.384858e-04
   7703.38    7.491992e-04
   7703.67    7.599126e-04
   7703.96    7.706260e-04
   7704.24    7.822144e-04
   7704.53    7.939618e-04
   7704.82    8.057093e-04
   7705.11    8.179132e-04
   7705.40    8.308475e-04
   7705.69    8.437817e-04
   7705.98    8.567160e-04
   7706.27    8.709157e-04
   7706.56    8.852209e-04
   7706.84    8.995261e-04
   7707.13    9.145672e-04
   7707.42    9.304670e-04
   7707.71    9.463668e-04
   7708.00    9.622666e-04
   7708.29    9.800356e-04
   7708.58    9.978047e-04
   7708.87    1.015574e-03
   7709.16    1.034533e-03
   7709.44    1.054512e-03
   7709.73    1.074491e-03
   7710.02    1.094674e-03
   7710.31    1.117292e-03
   7710.60    1.139910e-03
   7710.89    1.162527e-03
   7711.18    1.187105e-03
   7711.47    1.212908e-03
   7711.76    1.238710e-03
   7712.04    1.265111e-03
   7712.33    1.294805e-03
   7712.62    1.324499e-03
   7712.91    1.354194e-03
   7713.20    1.387227e-03
   7713.49    1.421744e-03
   7713.78    1.456262e-03
   7714.07    1.492182e-03
   7714.36    1.532779e-03
   7714.64    1.573375e-03
   7714.93    1.613971e-03
   7715.22    1.660577e-03
   7715.51    1.708985e-03
   7715.80    1.757394e-03
   7716.09    1.808965e-03
   7716.38    1.867652e-03
   7716.67    1.926340e-03
   7716.96    1.985027e-03
   7717.24    2.055494e-03
   7717.53    2.128103e-03
   7717.82    2.200713e-03
   7718.11    2.280844e-03
   7718.40    2.373010e-03
   7718.69    2.465177e-03
   7718.98    2.557344e-03
   7719.27    2.676116e-03
   7719.56    2.797106e-03
   7719.84    2.918096e-03
   7720.13    3.060029e-03
   7720.42    3.226395e-03
   7720.71    3.392761e-03
   7721.00    3.559128e-03
   7721.29    3.804230e-03
   7721.58    4.049332e-03
   7721.87    4.294434e-03
   7722.16    4.625683e-03
   7722.44    5.030772e-03
   7722.73    5.435861e-03
   7723.02    5.874331e-03
   7723.31    6.713370e-03
   7723.60    7.552409e-03
   7723.89    8.391447e-03
   7724.18    1.027438e-02
   7724.47    1.280974e-02
   7724.76    1.534510e-02
   7725.04    1.813517e-02
   7725.33    2.235345e-02
   7725.62    2.644235e-02
   7725.91    3.015144e-02
   7726.20    3.363343e-02
   7726.49    3.708419e-02
   7726.78    4.060776e-02
   7727.07    4.425094e-02
   7727.36    4.810552e-02
   7727.64    5.238221e-02
   7727.93    5.727866e-02
   7728.22    6.292714e-02
   7728.51    6.957665e-02
   7728.80    7.718638e-02
   7729.09    8.592905e-02
   7729.38    9.525243e-02
   7729.67    1.043878e-01
   7729.96    1.122937e-01
   7730.24    1.179563e-01
   7730.53    1.206406e-01
   7730.82    1.208246e-01
   7731.11    1.192851e-01
   7731.40    1.168029e-01
   7731.69    1.139865e-01
   7731.98    1.112204e-01
   7732.27    1.087219e-01
   7732.56    1.065754e-01
   7732.84    1.047591e-01
   7733.13    1.032438e-01
   7733.42    1.019925e-01
   7733.71    1.009707e-01
   7734.00    1.001515e-01
   7734.29    9.953361e-02
   7734.58    9.907581e-02
   7734.87    9.875803e-02
   7735.16    9.855514e-02
   7735.44    9.843617e-02
   7735.73    9.836548e-02
   7736.02    9.830366e-02
   7736.31    9.821047e-02
   7736.60    9.805842e-02
   7736.89    9.783050e-02
   7737.18    9.752160e-02
   7737.47    9.713846e-02
   7737.76    9.669744e-02
   7738.04    9.622346e-02
   7738.33    9.574995e-02
   7738.62    9.530391e-02
   7738.91    9.490857e-02
   7739.20    9.458160e-02
   7739.49    9.433420e-02
   7739.78    9.417788e-02
   7740.07    9.412227e-02
   7740.36    9.417448e-02
   7740.64    9.422669e-02
   7740.93    9.427891e-02
   7741.22    9.439385e-02
   7741.51    9.452760e-02
   7741.80    9.466136e-02
   7742.09    9.476325e-02
   7742.38    9.479343e-02
   7742.67    9.482361e-02
   7742.96    9.485379e-02
   7743.24    9.471459e-02
   7743.53    9.454459e-02
   7743.82    9.437458e-02
   7744.11    9.413380e-02
   7744.40    9.377977e-02
   7744.69    9.342574e-02
   7744.98    9.307170e-02
   7745.27    9.261927e-02
   7745.56    9.215864e-02
   7745.84    9.169801e-02
   7746.13    9.122248e-02
   7746.42    9.072955e-02
   7746.71    9.023662e-02
   7747.00    8.974369e-02
   7747.29    8.925547e-02
   7747.58    8.876725e-02
   7747.87    8.827902e-02
   7748.16    8.779986e-02
   7748.44    8.732847e-02
   7748.73    8.685708e-02
   7749.02    8.638727e-02
   7749.31    8.593648e-02
   7749.60    8.548568e-02
   7749.89    8.503489e-02
   7750.18    8.459652e-02
   7750.47    8.416591e-02
   7750.76    8.373531e-02
   7751.04    8.330688e-02
   7751.33    8.289044e-02
   7751.62    8.247399e-02
   7751.91    8.205754e-02
   7752.20    8.164248e-02
   7752.49    8.122805e-02
   7752.78    8.081361e-02
   7753.07    8.039613e-02
   7753.36    7.996853e-02
   7753.64    7.954093e-02
   7753.93    7.911332e-02
   7754.22    7.866554e-02
   7754.51    7.821169e-02
   7754.80    7.775785e-02
   7755.09    7.729412e-02
   7755.38    7.680816e-02
   7755.67    7.632221e-02
   7755.96    7.583625e-02
   7756.24    7.532742e-02
   7756.53    7.481442e-02
   7756.82    7.430143e-02
   7757.11    7.378547e-02
   7757.40    7.326476e-02
   7757.69    7.274405e-02
   7757.98    7.222335e-02
   7758.27    7.173058e-02
   7758.56    7.124014e-02
   7758.84    7.074970e-02
   7759.13    7.029876e-02
   7759.42    6.989390e-02
   7759.71    6.948904e-02
   7760.00    6.908418e-02
