 FDMNES
  energy    <xanes>
   7695.00    5.480088e-04
   7695.29    5.535796e-04
   7695.58    5.591505e-04
   7695.87    5.647213e-04
   7696.16    5.704944e-04
   7696.44    5.764410e-04
   7696.73    5.823876e-04
   7697.02    5.883661e-04
   7697.31    5.947271e-04
   7697.60    6.010882e-04
   7697.89    6.074493e-04
   7698.18    6.140926e-04
   7698.47    6.209124e-04
   7698.76    6.277322e-04
   7699.04    6.346304e-04
   7699.33    6.419596e-04
   7699.62    6.492888e-04
   7699.91    6.566180e-04
   7700.20    6.643403e-04
   7700.49    6.722373e-04
   7700.78    6.801344e-04
   7701.07    6.881781e-04
   7701.36    6.967107e-04
   7701.64    7.052433e-04
   7701.93    7.137759e-04
   7702.22    7.228580e-04
   7702.51    7.321050e-04
   7702.80    7.413520e-04
   7703.09    7.508473e-04
   7703.38    7.609011e-04
   7703.67    7.709550e-04
   7703.96    7.810088e-04
   7704.24    7.918377e-04
   7704.53    8.028075e-04
   7704.82    8.137773e-04
   7705.11    8.251493e-04
   7705.40    8.371648e-04
   7705.69    8.491802e-04
   7705.98    8.611957e-04
   7706.27    8.743198e-04
   7706.56    8.875363e-04
   7706.84    9.007528e-04
   7707.13    9.146104e-04
   7707.42    9.292158e-04
   7707.71    9.438212e-04
   7708.00    9.584267e-04
   7708.29    9.746504e-04
   7708.58    9.908741e-04
   7708.87    1.007098e-03
   7709.16    1.024345e-03
   7709.44    1.042470e-03
   7709.73    1.060595e-03
   7710.02    1.078894e-03
   7710.31    1.099274e-03
   7710.60    1.119654e-03
   7710.89    1.140034e-03
   7711.18    1.162077e-03
   7711.47    1.185160e-03
   7711.76    1.208243e-03
   7712.04    1.231830e-03
   7712.33    1.258193e-03
   7712.62    1.284556e-03
   7712.91    1.310918e-03
   7713.20    1.340075e-03
   7713.49    1.370473e-03
   7713.78    1.400871e-03
   7714.07    1.432434e-03
   7714.36    1.467880e-03
   7714.64    1.503327e-03
   7714.93    1.538773e-03
   7715.22    1.579173e-03
   7715.51    1.621059e-03
   7715.80    1.662945e-03
   7716.09    1.707420e-03
   7716.38    1.757717e-03
   7716.67    1.808015e-03
   7716.96    1.858313e-03
   7717.24    1.918188e-03
   7717.53    1.979803e-03
   7717.82    2.041418e-03
   7718.11    2.109114e-03
   7718.40    2.186541e-03
   7718.69    2.263968e-03
   7718.98    2.341395e-03
   7719.27    2.440267e-03
   7719.56    2.540925e-03
   7719.84    2.641584e-03
   7720.13    2.759150e-03
   7720.42    2.896441e-03
   7720.71    3.033732e-03
   7721.00    3.171024e-03
   7721.29    3.372569e-03
   7721.58    3.574115e-03
   7721.87    3.775661e-03
   7722.16    4.049588e-03
   7722.44    4.385556e-03
   7722.73    4.721524e-03
   7723.02    5.087384e-03
   7723.31    5.811943e-03
   7723.60    6.536502e-03
   7723.89    7.261062e-03
   7724.18    8.958939e-03
   7724.47    1.126514e-02
   7724.76    1.357134e-02
   7725.04    1.605349e-02
   7725.33    1.933257e-02
   7725.62    2.196546e-02
   7725.91    2.394863e-02
   7726.20    2.567250e-02
   7726.49    2.738686e-02
   7726.78    2.925365e-02
   7727.07    3.141041e-02
   7727.36    3.391172e-02
   7727.64    3.687356e-02
   7727.93    4.040181e-02
   7728.22    4.457084e-02
   7728.51    4.954728e-02
   7728.80    5.525566e-02
   7729.09    6.183441e-02
   7729.38    6.898753e-02
   7729.67    7.648996e-02
   7729.96    8.385334e-02
   7730.24    9.049221e-02
   7730.53    9.564509e-02
   7730.82    9.894972e-02
   7731.11    1.003324e-01
   7731.40    1.000246e-01
   7731.69    9.849106e-02
   7731.98    9.626623e-02
   7732.27    9.382283e-02
   7732.56    9.152674e-02
   7732.84    8.956046e-02
   7733.13    8.800839e-02
   7733.42    8.690011e-02
   7733.71    8.623482e-02
   7734.00    8.599576e-02
   7734.29    8.620040e-02
   7734.58    8.676595e-02
   7734.87    8.765777e-02
   7735.16    8.883969e-02
   7735.44    9.027291e-02
   7735.73    9.191421e-02
   7736.02    9.372108e-02
   7736.31    9.562472e-02
   7736.60    9.755200e-02
   7736.89    9.943243e-02
   7737.18    1.011938e-01
   7737.47    1.027670e-01
   7737.76    1.040863e-01
   7738.04    1.050761e-01
   7738.33    1.057400e-01
   7738.62    1.060755e-01
   7738.91    1.061000e-01
   7739.20    1.058468e-01
   7739.49    1.053606e-01
   7739.78    1.046811e-01
   7740.07    1.038740e-01
   7740.36    1.030031e-01
   7740.64    1.021322e-01
   7740.93    1.012613e-01
   7741.22    1.005644e-01
   7741.51    9.991978e-02
   7741.80    9.927512e-02
   7742.09    9.876180e-02
   7742.38    9.854397e-02
   7742.67    9.832614e-02
   7742.96    9.810831e-02
   7743.24    9.821548e-02
   7743.53    9.838173e-02
   7743.82    9.854798e-02
   7744.11    9.879090e-02
   7744.40    9.915650e-02
   7744.69    9.952210e-02
   7744.98    9.988769e-02
   7745.27    1.002102e-01
   7745.56    1.005292e-01
   7745.84    1.008481e-01
   7746.13    1.010441e-01
   7746.42    1.010968e-01
   7746.71    1.011494e-01
   7747.00    1.012020e-01
   7747.29    1.008880e-01
   7747.58    1.005740e-01
   7747.87    1.002600e-01
   7748.16    9.977929e-02
   7748.44    9.915577e-02
   7748.73    9.853225e-02
   7749.02    9.789667e-02
   7749.31    9.711640e-02
   7749.60    9.633613e-02
   7749.89    9.555586e-02
   7750.18    9.477010e-02
   7750.47    9.398090e-02
   7750.76    9.319170e-02
   7751.04    9.241480e-02
   7751.33    9.170551e-02
   7751.62    9.099623e-02
   7751.91    9.028694e-02
   7752.20    8.965442e-02
   7752.49    8.905600e-02
   7752.78    8.845759e-02
   7753.07    8.788375e-02
   7753.36    8.739180e-02
   7753.64    8.689985e-02
   7753.93    8.640789e-02
   7754.22    8.598271e-02
   7754.51    8.557756e-02
   7754.80    8.517241e-02
   7755.09    8.478675e-02
   7755.38    8.444493e-02
   7755.67    8.410312e-02
   7755.96    8.376130e-02
   7756.24    8.345576e-02
   7756.53    8.315682e-02
   7756.82    8.285788e-02
   7757.11    8.257040e-02
   7757.40    8.230126e-02
   7757.69    8.203213e-02
   7757.98    8.176299e-02
   7758.27    8.152029e-02
   7758.56    8.127980e-02
   7758.84    8.103930e-02
   7759.13    8.081866e-02
   7759.42    8.062118e-02
   7759.71    8.042369e-02
   7760.00    8.022620e-02
