 FDMNES
  energy    <xanes>
   7695.00    5.212198e-04
   7695.29    5.269531e-04
   7695.58    5.326865e-04
   7695.87    5.384198e-04
   7696.16    5.443732e-04
   7696.44    5.505151e-04
   7696.73    5.566571e-04
   7697.02    5.628339e-04
   7697.31    5.694283e-04
   7697.60    5.760226e-04
   7697.89    5.826170e-04
   7698.18    5.895206e-04
   7698.47    5.966174e-04
   7698.76    6.037143e-04
   7699.04    6.108973e-04
   7699.33    6.185542e-04
   7699.62    6.262112e-04
   7699.91    6.338682e-04
   7700.20    6.419590e-04
   7700.49    6.502427e-04
   7700.78    6.585264e-04
   7701.07    6.669726e-04
   7701.36    6.759605e-04
   7701.64    6.849484e-04
   7701.93    6.939363e-04
   7702.22    7.035355e-04
   7702.51    7.133180e-04
   7702.80    7.231006e-04
   7703.09    7.331603e-04
   7703.38    7.438439e-04
   7703.67    7.545275e-04
   7703.96    7.652110e-04
   7704.24    7.767635e-04
   7704.53    7.884740e-04
   7704.82    8.001844e-04
   7705.11    8.123476e-04
   7705.40    8.252350e-04
   7705.69    8.381223e-04
   7705.98    8.510097e-04
   7706.27    8.651498e-04
   7706.56    8.793943e-04
   7706.84    8.936387e-04
   7707.13    9.086103e-04
   7707.42    9.244300e-04
   7707.71    9.402498e-04
   7708.00    9.560696e-04
   7708.29    9.737315e-04
   7708.58    9.913934e-04
   7708.87    1.009055e-03
   7709.16    1.027887e-03
   7709.44    1.047720e-03
   7709.73    1.067554e-03
   7710.02    1.087586e-03
   7710.31    1.110003e-03
   7710.60    1.132420e-03
   7710.89    1.154837e-03
   7711.18    1.179164e-03
   7711.47    1.204686e-03
   7711.76    1.230208e-03
   7712.04    1.256310e-03
   7712.33    1.285605e-03
   7712.62    1.314901e-03
   7712.91    1.344196e-03
   7713.20    1.376709e-03
   7713.49    1.410652e-03
   7713.78    1.444595e-03
   7714.07    1.479879e-03
   7714.36    1.519632e-03
   7714.64    1.559385e-03
   7714.93    1.599138e-03
   7715.22    1.644578e-03
   7715.51    1.691723e-03
   7715.80    1.738868e-03
   7716.09    1.788968e-03
   7716.38    1.845716e-03
   7716.67    1.902463e-03
   7716.96    1.959211e-03
   7717.24    2.026782e-03
   7717.53    2.096321e-03
   7717.82    2.165860e-03
   7718.11    2.242161e-03
   7718.40    2.329281e-03
   7718.69    2.416401e-03
   7718.98    2.503522e-03
   7719.27    2.613864e-03
   7719.56    2.726141e-03
   7719.84    2.838418e-03
   7720.13    2.968241e-03
   7720.42    3.118534e-03
   7720.71    3.268827e-03
   7721.00    3.419120e-03
   7721.29    3.631616e-03
   7721.58    3.844112e-03
   7721.87    4.056607e-03
   7722.16    4.331496e-03
   7722.44    4.659864e-03
   7722.73    4.988233e-03
   7723.02    5.337871e-03
   7723.31    5.942743e-03
   7723.60    6.547615e-03
   7723.89    7.152487e-03
   7724.18    8.337887e-03
   7724.47    9.886117e-03
   7724.76    1.143435e-02
   7725.04    1.312430e-02
   7725.33    1.565511e-02
   7725.62    1.834297e-02
   7725.91    2.124751e-02
   7726.20    2.442431e-02
   7726.49    2.801585e-02
   7726.78    3.197984e-02
   7727.07    3.640756e-02
   7727.36    4.127584e-02
   7727.64    4.665147e-02
   7727.93    5.261926e-02
   7728.22    5.930240e-02
   7728.51    6.702625e-02
   7728.80    7.584547e-02
   7729.09    8.615538e-02
   7729.38    9.759707e-02
   7729.67    1.099383e-01
   7729.96    1.223563e-01
   7730.24    1.337799e-01
   7730.53    1.426799e-01
   7730.82    1.481710e-01
   7731.11    1.499868e-01
   7731.40    1.484669e-01
   7731.69    1.443698e-01
   7731.98    1.385842e-01
   7732.27    1.319221e-01
   7732.56    1.251166e-01
   7732.84    1.186532e-01
   7733.13    1.128073e-01
   7733.42    1.077247e-01
   7733.71    1.034564e-01
   7734.00    9.999113e-02
   7734.29    9.736170e-02
   7734.58    9.540086e-02
   7734.87    9.402773e-02
   7735.16    9.315685e-02
   7735.44    9.269969e-02
   7735.73    9.256536e-02
   7736.02    9.267096e-02
   7736.31    9.290853e-02
   7736.60    9.318238e-02
   7736.89    9.341810e-02
   7737.18    9.355623e-02
   7737.47    9.355622e-02
   7737.76    9.339593e-02
   7738.04    9.306611e-02
   7738.33    9.260693e-02
   7738.62    9.205399e-02
   7738.91    9.144896e-02
   7739.20    9.083411e-02
   7739.49    9.024777e-02
   7739.78    8.972816e-02
   7740.07    8.932721e-02
   7740.36    8.909483e-02
   7740.64    8.886245e-02
   7740.93    8.863008e-02
   7741.22    8.865274e-02
   7741.51    8.875191e-02
   7741.80    8.885108e-02
   7742.09    8.901100e-02
   7742.38    8.930757e-02
   7742.67    8.960415e-02
   7742.96    8.990073e-02
   7743.24    9.021844e-02
   7743.53    9.053999e-02
   7743.82    9.086154e-02
   7744.11    9.113540e-02
   7744.40    9.133296e-02
   7744.69    9.153053e-02
   7744.98    9.172809e-02
   7745.27    9.173230e-02
   7745.56    9.172039e-02
   7745.84    9.170849e-02
   7746.13    9.159714e-02
   7746.42    9.136977e-02
   7746.71    9.114240e-02
   7747.00    9.091503e-02
   7747.29    9.052607e-02
   7747.58    9.013711e-02
   7747.87    8.974816e-02
   7748.16    8.931278e-02
   7748.44    8.883763e-02
   7748.73    8.836247e-02
   7749.02    8.788549e-02
   7749.31    8.738660e-02
   7749.60    8.688770e-02
   7749.89    8.638881e-02
   7750.18    8.589401e-02
   7750.47    8.540177e-02
   7750.76    8.490954e-02
   7751.04    8.441813e-02
   7751.33    8.393128e-02
   7751.62    8.344443e-02
   7751.91    8.295758e-02
   7752.20    8.246128e-02
   7752.49    8.196078e-02
   7752.78    8.146028e-02
   7753.07    8.095171e-02
   7753.36    8.041626e-02
   7753.64    7.988081e-02
   7753.93    7.934536e-02
   7754.22    7.877365e-02
   7754.51    7.819105e-02
   7754.80    7.760845e-02
   7755.09    7.701255e-02
   7755.38    7.638675e-02
   7755.67    7.576094e-02
   7755.96    7.513514e-02
   7756.24    7.449229e-02
   7756.53    7.384635e-02
   7756.82    7.320041e-02
   7757.11    7.256233e-02
   7757.40    7.193683e-02
   7757.69    7.131134e-02
   7757.98    7.068584e-02
   7758.27    7.012678e-02
   7758.56    6.957325e-02
   7758.84    6.901973e-02
   7759.13    6.852187e-02
   7759.42    6.808897e-02
   7759.71    6.765607e-02
   7760.00    6.722317e-02
