 FDMNES
  energy    <xanes>
   7695.00    5.255963e-04
   7695.29    5.312844e-04
   7695.58    5.369725e-04
   7695.87    5.426605e-04
   7696.16    5.485645e-04
   7696.44    5.546537e-04
   7696.73    5.607428e-04
   7697.02    5.668660e-04
   7697.31    5.733988e-04
   7697.60    5.799316e-04
   7697.89    5.864644e-04
   7698.18    5.933003e-04
   7698.47    6.003255e-04
   7698.76    6.073508e-04
   7699.04    6.144605e-04
   7699.33    6.220344e-04
   7699.62    6.296083e-04
   7699.91    6.371821e-04
   7700.20    6.451807e-04
   7700.49    6.533681e-04
   7700.78    6.615554e-04
   7701.07    6.699017e-04
   7701.36    6.787778e-04
   7701.64    6.876540e-04
   7701.93    6.965301e-04
   7702.22    7.060037e-04
   7702.51    7.156566e-04
   7702.80    7.253095e-04
   7703.09    7.352333e-04
   7703.38    7.457663e-04
   7703.67    7.562994e-04
   7703.96    7.668325e-04
   7704.24    7.782139e-04
   7704.53    7.897496e-04
   7704.82    8.012852e-04
   7705.11    8.132625e-04
   7705.40    8.259465e-04
   7705.69    8.386305e-04
   7705.98    8.513144e-04
   7706.27    8.652200e-04
   7706.56    8.792274e-04
   7706.84    8.932348e-04
   7707.13    9.079509e-04
   7707.42    9.234938e-04
   7707.71    9.390366e-04
   7708.00    9.545795e-04
   7708.29    9.719172e-04
   7708.58    9.892550e-04
   7708.87    1.006593e-03
   7709.16    1.025069e-03
   7709.44    1.044522e-03
   7709.73    1.063975e-03
   7710.02    1.083622e-03
   7710.31    1.105591e-03
   7710.60    1.127560e-03
   7710.89    1.149529e-03
   7711.18    1.173359e-03
   7711.47    1.198352e-03
   7711.76    1.223344e-03
   7712.04    1.248903e-03
   7712.33    1.277571e-03
   7712.62    1.306240e-03
   7712.91    1.334909e-03
   7713.20    1.366714e-03
   7713.49    1.399913e-03
   7713.78    1.433112e-03
   7714.07    1.467619e-03
   7714.36    1.506487e-03
   7714.64    1.545354e-03
   7714.93    1.584222e-03
   7715.22    1.628645e-03
   7715.51    1.674736e-03
   7715.80    1.720826e-03
   7716.09    1.769810e-03
   7716.38    1.825304e-03
   7716.67    1.880797e-03
   7716.96    1.936291e-03
   7717.24    2.002420e-03
   7717.53    2.070481e-03
   7717.82    2.138543e-03
   7718.11    2.213281e-03
   7718.40    2.298699e-03
   7718.69    2.384116e-03
   7718.98    2.469534e-03
   7719.27    2.578038e-03
   7719.56    2.688465e-03
   7719.84    2.798892e-03
   7720.13    2.926946e-03
   7720.42    3.075564e-03
   7720.71    3.224182e-03
   7721.00    3.372800e-03
   7721.29    3.584943e-03
   7721.58    3.797087e-03
   7721.87    4.009230e-03
   7722.16    4.286885e-03
   7722.44    4.620692e-03
   7722.73    4.954499e-03
   7723.02    5.311788e-03
   7723.31    5.950848e-03
   7723.60    6.589908e-03
   7723.89    7.228968e-03
   7724.18    8.539973e-03
   7724.47    1.027094e-02
   7724.76    1.200192e-02
   7725.04    1.387854e-02
   7725.33    1.655813e-02
   7725.62    1.920113e-02
   7725.91    2.186480e-02
   7726.20    2.468061e-02
   7726.49    2.783059e-02
   7726.78    3.136135e-02
   7727.07    3.549492e-02
   7727.36    4.035514e-02
   7727.64    4.622486e-02
   7727.93    5.333094e-02
   7728.22    6.171682e-02
   7728.51    7.138239e-02
   7728.80    8.176572e-02
   7729.09    9.231609e-02
   7729.38    1.023572e-01
   7729.67    1.110326e-01
   7729.96    1.177924e-01
   7730.24    1.220857e-01
   7730.53    1.236237e-01
   7730.82    1.230782e-01
   7731.11    1.211991e-01
   7731.40    1.186384e-01
   7731.69    1.158465e-01
   7731.98    1.130605e-01
   7732.27    1.103806e-01
   7732.56    1.078462e-01
   7732.84    1.054756e-01
   7733.13    1.033020e-01
   7733.42    1.013653e-01
   7733.71    9.970381e-02
   7734.00    9.834451e-02
   7734.29    9.733393e-02
   7734.58    9.662236e-02
   7734.87    9.617969e-02
   7735.16    9.596197e-02
   7735.44    9.591500e-02
   7735.73    9.597855e-02
   7736.02    9.609015e-02
   7736.31    9.618368e-02
   7736.60    9.621126e-02
   7736.89    9.614142e-02
   7737.18    9.595974e-02
   7737.47    9.566942e-02
   7737.76    9.528864e-02
   7738.04    9.484889e-02
   7738.33    9.439843e-02
   7738.62    9.397740e-02
   7738.91    9.362221e-02
   7739.20    9.336247e-02
   7739.49    9.321932e-02
   7739.78    9.321582e-02
   7740.07    9.337847e-02
   7740.36    9.373161e-02
   7740.64    9.408474e-02
   7740.93    9.443787e-02
   7741.22    9.495403e-02
   7741.51    9.551909e-02
   7741.80    9.608415e-02
   7742.09    9.662495e-02
   7742.38    9.711115e-02
   7742.67    9.759735e-02
   7742.96    9.808355e-02
   7743.24    9.830510e-02
   7743.53    9.847853e-02
   7743.82    9.865196e-02
   7744.11    9.866933e-02
   7744.40    9.843700e-02
   7744.69    9.820468e-02
   7744.98    9.797235e-02
   7745.27    9.741919e-02
   7745.56    9.683929e-02
   7745.84    9.625939e-02
   7746.13    9.558406e-02
   7746.42    9.479739e-02
   7746.71    9.401073e-02
   7747.00    9.322406e-02
   7747.29    9.237862e-02
   7747.58    9.153319e-02
   7747.87    9.068775e-02
   7748.16    8.986989e-02
   7748.44    8.907565e-02
   7748.73    8.828142e-02
   7749.02    8.749555e-02
   7749.31    8.680995e-02
   7749.60    8.612436e-02
   7749.89    8.543876e-02
   7750.18    8.482641e-02
   7750.47    8.425984e-02
   7750.76    8.369326e-02
   7751.04    8.314159e-02
   7751.33    8.267188e-02
   7751.62    8.220216e-02
   7751.91    8.173244e-02
   7752.20    8.130328e-02
   7752.49    8.089214e-02
   7752.78    8.048100e-02
   7753.07    8.007413e-02
   7753.36    7.968153e-02
   7753.64    7.928892e-02
   7753.93    7.889631e-02
   7754.22    7.849357e-02
   7754.51    7.808778e-02
   7754.80    7.768200e-02
   7755.09    7.726674e-02
   7755.38    7.683015e-02
   7755.67    7.639357e-02
   7755.96    7.595698e-02
   7756.24    7.549349e-02
   7756.53    7.502512e-02
   7756.82    7.455674e-02
   7757.11    7.408270e-02
   7757.40    7.359959e-02
   7757.69    7.311648e-02
   7757.98    7.263337e-02
   7758.27    7.217108e-02
   7758.56    7.171053e-02
   7758.84    7.124998e-02
   7759.13    7.082519e-02
   7759.42    7.044210e-02
   7759.71    7.005902e-02
   7760.00    6.967594e-02
