 FDMNES
  energy    <xanes>
   7695.00    5.369644e-04
   7695.29    5.425310e-04
   7695.58    5.480976e-04
   7695.87    5.536642e-04
   7696.16    5.594346e-04
   7696.44    5.653796e-04
   7696.73    5.713247e-04
   7697.02    5.773018e-04
   7697.31    5.836642e-04
   7697.60    5.900267e-04
   7697.89    5.963891e-04
   7698.18    6.030357e-04
   7698.47    6.098601e-04
   7698.76    6.166844e-04
   7699.04    6.235876e-04
   7699.33    6.309248e-04
   7699.62    6.382619e-04
   7699.91    6.455991e-04
   7700.20    6.533320e-04
   7700.49    6.612407e-04
   7700.78    6.691494e-04
   7701.07    6.772057e-04
   7701.36    6.857538e-04
   7701.64    6.943020e-04
   7701.93    7.028501e-04
   7702.22    7.119509e-04
   7702.51    7.212175e-04
   7702.80    7.304842e-04
   7703.09    7.400003e-04
   7703.38    7.500778e-04
   7703.67    7.601554e-04
   7703.96    7.702329e-04
   7704.24    7.810888e-04
   7704.53    7.920863e-04
   7704.82    8.030837e-04
   7705.11    8.144846e-04
   7705.40    8.265311e-04
   7705.69    8.385777e-04
   7705.98    8.506242e-04
   7706.27    8.637818e-04
   7706.56    8.770319e-04
   7706.84    8.902821e-04
   7707.13    9.041737e-04
   7707.42    9.188138e-04
   7707.71    9.334539e-04
   7708.00    9.480939e-04
   7708.29    9.643506e-04
   7708.58    9.806072e-04
   7708.87    9.968638e-04
   7709.16    1.014141e-03
   7709.44    1.032293e-03
   7709.73    1.050445e-03
   7710.02    1.068769e-03
   7710.31    1.089163e-03
   7710.60    1.109558e-03
   7710.89    1.129952e-03
   7711.18    1.151994e-03
   7711.47    1.175068e-03
   7711.76    1.198141e-03
   7712.04    1.221713e-03
   7712.33    1.248024e-03
   7712.62    1.274336e-03
   7712.91    1.300648e-03
   7713.20    1.329706e-03
   7713.49    1.359984e-03
   7713.78    1.390263e-03
   7714.07    1.421680e-03
   7714.36    1.456892e-03
   7714.64    1.492105e-03
   7714.93    1.527317e-03
   7715.22    1.567337e-03
   7715.51    1.608799e-03
   7715.80    1.650262e-03
   7716.09    1.694214e-03
   7716.38    1.743768e-03
   7716.67    1.793323e-03
   7716.96    1.842878e-03
   7717.24    1.901542e-03
   7717.53    1.961864e-03
   7717.82    2.022185e-03
   7718.11    2.088209e-03
   7718.40    2.163359e-03
   7718.69    2.238509e-03
   7718.98    2.313658e-03
   7719.27    2.408544e-03
   7719.56    2.505074e-03
   7719.84    2.601605e-03
   7720.13    2.713308e-03
   7720.42    2.842713e-03
   7720.71    2.972117e-03
   7721.00    3.101522e-03
   7721.29    3.286625e-03
   7721.58    3.471728e-03
   7721.87    3.656832e-03
   7722.16    3.901708e-03
   7722.44    4.197818e-03
   7722.73    4.493929e-03
   7723.02    4.813141e-03
   7723.31    5.409576e-03
   7723.60    6.006011e-03
   7723.89    6.602446e-03
   7724.18    7.919114e-03
   7724.47    9.685928e-03
   7724.76    1.145274e-02
   7725.04    1.336952e-02
   7725.33    1.605034e-02
   7725.62    1.842356e-02
   7725.91    2.039308e-02
   7726.20    2.216239e-02
   7726.49    2.392149e-02
   7726.78    2.583177e-02
   7727.07    2.805563e-02
   7727.36    3.066649e-02
   7727.64    3.379338e-02
   7727.93    3.754338e-02
   7728.22    4.198859e-02
   7728.51    4.731086e-02
   7728.80    5.344172e-02
   7729.09    6.056842e-02
   7729.38    6.839111e-02
   7729.67    7.670506e-02
   7729.96    8.498228e-02
   7730.24    9.258767e-02
   7730.53    9.866775e-02
   7730.82    1.027952e-01
   7731.11    1.049237e-01
   7731.40    1.053830e-01
   7731.69    1.047476e-01
   7731.98    1.036144e-01
   7732.27    1.024507e-01
   7732.56    1.015312e-01
   7732.84    1.009079e-01
   7733.13    1.005425e-01
   7733.42    1.003570e-01
   7733.71    1.002707e-01
   7734.00    1.002225e-01
   7734.29    1.001813e-01
   7734.58    1.001464e-01
   7734.87    1.001368e-01
   7735.16    1.001776e-01
   7735.44    1.002908e-01
   7735.73    1.004895e-01
   7736.02    1.007793e-01
   7736.31    1.011423e-01
   7736.60    1.015475e-01
   7736.89    1.019613e-01
   7737.18    1.023493e-01
   7737.47    1.026810e-01
   7737.76    1.029339e-01
   7738.04    1.030922e-01
   7738.33    1.031717e-01
   7738.62    1.031906e-01
   7738.91    1.031735e-01
   7739.20    1.031478e-01
   7739.49    1.031396e-01
   7739.78    1.031747e-01
   7740.07    1.032846e-01
   7740.36    1.034956e-01
   7740.64    1.037067e-01
   7740.93    1.039177e-01
   7741.22    1.042325e-01
   7741.51    1.045783e-01
   7741.80    1.049242e-01
   7742.09    1.052487e-01
   7742.38    1.055252e-01
   7742.67    1.058016e-01
   7742.96    1.060781e-01
   7743.24    1.061243e-01
   7743.53    1.061286e-01
   7743.82    1.061330e-01
   7744.11    1.059968e-01
   7744.40    1.056360e-01
   7744.69    1.052752e-01
   7744.98    1.049144e-01
   7745.27    1.042496e-01
   7745.56    1.035595e-01
   7745.84    1.028694e-01
   7746.13    1.020801e-01
   7746.42    1.011751e-01
   7746.71    1.002701e-01
   7747.00    9.936506e-02
   7747.29    9.839178e-02
   7747.58    9.741850e-02
   7747.87    9.644522e-02
   7748.16    9.550942e-02
   7748.44    9.460575e-02
   7748.73    9.370207e-02
   7749.02    9.280882e-02
   7749.31    9.204059e-02
   7749.60    9.127237e-02
   7749.89    9.050415e-02
   7750.18    8.982502e-02
   7750.47    8.920158e-02
   7750.76    8.857814e-02
   7751.04    8.797441e-02
   7751.33    8.747911e-02
   7751.62    8.698382e-02
   7751.91    8.648852e-02
   7752.20    8.606129e-02
   7752.49    8.566431e-02
   7752.78    8.526732e-02
   7753.07    8.488474e-02
   7753.36    8.455014e-02
   7753.64    8.421555e-02
   7753.93    8.388095e-02
   7754.22    8.356531e-02
   7754.51    8.325535e-02
   7754.80    8.294540e-02
   7755.09    8.263190e-02
   7755.38    8.231045e-02
   7755.67    8.198900e-02
   7755.96    8.166754e-02
   7756.24    8.131223e-02
   7756.53    8.095076e-02
   7756.82    8.058929e-02
   7757.11    8.020892e-02
   7757.40    7.979831e-02
   7757.69    7.938770e-02
   7757.98    7.897710e-02
   7758.27    7.854593e-02
   7758.56    7.811306e-02
   7758.84    7.768019e-02
   7759.13    7.726909e-02
   7759.42    7.688340e-02
   7759.71    7.649772e-02
   7760.00    7.611203e-02
