 FDMNES
  energy    <xanes>
   7695.00    5.185083e-04
   7695.29    5.241597e-04
   7695.58    5.298110e-04
   7695.87    5.354624e-04
   7696.16    5.413286e-04
   7696.44    5.473789e-04
   7696.73    5.534293e-04
   7697.02    5.595136e-04
   7697.31    5.660054e-04
   7697.60    5.724972e-04
   7697.89    5.789889e-04
   7698.18    5.857822e-04
   7698.47    5.927639e-04
   7698.76    5.997457e-04
   7699.04    6.068114e-04
   7699.33    6.143388e-04
   7699.62    6.218663e-04
   7699.91    6.293938e-04
   7700.20    6.373437e-04
   7700.49    6.454814e-04
   7700.78    6.536191e-04
   7701.07    6.619149e-04
   7701.36    6.707376e-04
   7701.64    6.795604e-04
   7701.93    6.883832e-04
   7702.22    6.978002e-04
   7702.51    7.073956e-04
   7702.80    7.169909e-04
   7703.09    7.268556e-04
   7703.38    7.373263e-04
   7703.67    7.477970e-04
   7703.96    7.582677e-04
   7704.24    7.695819e-04
   7704.53    7.810496e-04
   7704.82    7.925173e-04
   7705.11    8.044241e-04
   7705.40    8.170336e-04
   7705.69    8.296432e-04
   7705.98    8.422527e-04
   7706.27    8.560770e-04
   7706.56    8.700025e-04
   7706.84    8.839280e-04
   7707.13    8.985582e-04
   7707.42    9.140105e-04
   7707.71    9.294628e-04
   7708.00    9.449151e-04
   7708.29    9.621522e-04
   7708.58    9.793892e-04
   7708.87    9.966263e-04
   7709.16    1.014996e-03
   7709.44    1.034337e-03
   7709.73    1.053677e-03
   7710.02    1.073211e-03
   7710.31    1.095054e-03
   7710.60    1.116897e-03
   7710.89    1.138740e-03
   7711.18    1.162434e-03
   7711.47    1.187286e-03
   7711.76    1.212137e-03
   7712.04    1.237551e-03
   7712.33    1.266062e-03
   7712.62    1.294572e-03
   7712.91    1.323082e-03
   7713.20    1.354716e-03
   7713.49    1.387738e-03
   7713.78    1.420759e-03
   7714.07    1.455085e-03
   7714.36    1.493757e-03
   7714.64    1.532430e-03
   7714.93    1.571102e-03
   7715.22    1.615319e-03
   7715.51    1.661201e-03
   7715.80    1.707082e-03
   7716.09    1.755857e-03
   7716.38    1.811142e-03
   7716.67    1.866427e-03
   7716.96    1.921712e-03
   7717.24    1.987661e-03
   7717.53    2.055548e-03
   7717.82    2.123436e-03
   7718.11    2.198045e-03
   7718.40    2.283408e-03
   7718.69    2.368772e-03
   7718.98    2.454135e-03
   7719.27    2.562889e-03
   7719.56    2.673591e-03
   7719.84    2.784294e-03
   7720.13    2.913030e-03
   7720.42    3.062805e-03
   7720.71    3.212580e-03
   7721.00    3.362356e-03
   7721.29    3.578156e-03
   7721.58    3.793957e-03
   7721.87    4.009758e-03
   7722.16    4.295475e-03
   7722.44    4.641120e-03
   7722.73    4.986766e-03
   7723.02    5.358597e-03
   7723.31    6.044654e-03
   7723.60    6.730712e-03
   7723.89    7.416769e-03
   7724.18    8.889812e-03
   7724.47    1.085472e-02
   7724.76    1.281963e-02
   7725.04    1.495305e-02
   7725.33    1.798286e-02
   7725.62    2.082604e-02
   7725.91    2.345286e-02
   7726.20    2.603245e-02
   7726.49    2.875198e-02
   7726.78    3.174586e-02
   7727.07    3.524640e-02
   7727.36    3.937328e-02
   7727.64    4.436096e-02
   7727.93    5.041535e-02
   7728.22    5.765872e-02
   7728.51    6.631690e-02
   7728.80    7.608572e-02
   7729.09    8.671274e-02
   7729.38    9.728633e-02
   7729.67    1.066821e-01
   7729.96    1.141198e-01
   7730.24    1.190919e-01
   7730.53    1.214790e-01
   7730.82    1.219543e-01
   7731.11    1.210831e-01
   7731.40    1.192733e-01
   7731.69    1.168167e-01
   7731.98    1.139522e-01
   7732.27    1.108985e-01
   7732.56    1.078693e-01
   7732.84    1.050135e-01
   7733.13    1.024239e-01
   7733.42    1.001524e-01
   7733.71    9.822195e-02
   7734.00    9.663620e-02
   7734.29    9.542333e-02
   7734.58    9.452045e-02
   7734.87    9.389759e-02
   7735.16    9.351858e-02
   7735.44    9.334295e-02
   7735.73    9.332807e-02
   7736.02    9.343658e-02
   7736.31    9.362098e-02
   7736.60    9.384125e-02
   7736.89    9.406938e-02
   7737.18    9.428470e-02
   7737.47    9.447431e-02
   7737.76    9.463252e-02
   7738.04    9.475980e-02
   7738.33    9.486870e-02
   7738.62    9.497259e-02
   7738.91    9.508727e-02
   7739.20    9.522923e-02
   7739.49    9.541405e-02
   7739.78    9.566043e-02
   7740.07    9.599541e-02
   7740.36    9.644495e-02
   7740.64    9.689450e-02
   7740.93    9.734404e-02
   7741.22    9.791863e-02
   7741.51    9.853072e-02
   7741.80    9.914282e-02
   7742.09    9.974007e-02
   7742.38    1.003039e-01
   7742.67    1.008677e-01
   7742.96    1.014315e-01
   7743.24    1.017479e-01
   7743.53    1.020193e-01
   7743.82    1.022907e-01
   7744.11    1.023920e-01
   7744.40    1.022213e-01
   7744.69    1.020506e-01
   7744.98    1.018798e-01
   7745.27    1.013244e-01
   7745.56    1.007368e-01
   7745.84    1.001493e-01
   7746.13    9.944777e-02
   7746.42    9.861322e-02
   7746.71    9.777866e-02
   7747.00    9.694411e-02
   7747.29    9.604696e-02
   7747.58    9.514981e-02
   7747.87    9.425266e-02
   7748.16    9.338843e-02
   7748.44    9.255243e-02
   7748.73    9.171643e-02
   7749.02    9.088896e-02
   7749.31    9.016391e-02
   7749.60    8.943885e-02
   7749.89    8.871380e-02
   7750.18    8.805268e-02
   7750.47    8.743151e-02
   7750.76    8.681034e-02
   7751.04    8.619959e-02
   7751.33    8.564612e-02
   7751.62    8.509265e-02
   7751.91    8.453917e-02
   7752.20    8.400296e-02
   7752.49    8.347441e-02
   7752.78    8.294586e-02
   7753.07    8.241459e-02
   7753.36    8.187420e-02
   7753.64    8.133382e-02
   7753.93    8.079344e-02
   7754.22    8.022471e-02
   7754.51    7.964747e-02
   7754.80    7.907023e-02
   7755.09    7.847852e-02
   7755.38    7.785428e-02
   7755.67    7.723004e-02
   7755.96    7.660580e-02
   7756.24    7.594824e-02
   7756.53    7.528462e-02
   7756.82    7.462101e-02
   7757.11    7.395323e-02
   7757.40    7.327878e-02
   7757.69    7.260434e-02
   7757.98    7.192990e-02
   7758.27    7.129395e-02
   7758.56    7.066120e-02
   7758.84    7.002845e-02
   7759.13    6.944788e-02
   7759.42    6.892818e-02
   7759.71    6.840849e-02
   7760.00    6.788879e-02
