 FDMNES
  energy    <xanes>
   7695.00    5.264314e-04
   7695.29    5.320653e-04
   7695.58    5.376993e-04
   7695.87    5.433332e-04
   7696.16    5.491785e-04
   7696.44    5.552049e-04
   7696.73    5.612313e-04
   7697.02    5.672911e-04
   7697.31    5.737512e-04
   7697.60    5.802113e-04
   7697.89    5.866714e-04
   7698.18    5.934275e-04
   7698.47    6.003684e-04
   7698.76    6.073094e-04
   7699.04    6.143326e-04
   7699.33    6.218085e-04
   7699.62    6.292844e-04
   7699.91    6.367603e-04
   7700.20    6.446498e-04
   7700.49    6.527231e-04
   7700.78    6.607964e-04
   7701.07    6.690243e-04
   7701.36    6.777674e-04
   7701.64    6.865105e-04
   7701.93    6.952537e-04
   7702.22    7.045770e-04
   7702.51    7.140744e-04
   7702.80    7.235718e-04
   7703.09    7.333317e-04
   7703.38    7.436825e-04
   7703.67    7.540332e-04
   7703.96    7.643839e-04
   7704.24    7.755557e-04
   7704.53    7.868768e-04
   7704.82    7.981979e-04
   7705.11    8.099457e-04
   7705.40    8.223763e-04
   7705.69    8.348070e-04
   7705.98    8.472376e-04
   7706.27    8.608463e-04
   7706.56    8.745532e-04
   7706.84    8.882601e-04
   7707.13    9.026492e-04
   7707.42    9.178340e-04
   7707.71    9.330189e-04
   7708.00    9.482037e-04
   7708.29    9.651125e-04
   7708.58    9.820213e-04
   7708.87    9.989301e-04
   7709.16    1.016931e-03
   7709.44    1.035867e-03
   7709.73    1.054803e-03
   7710.02    1.073924e-03
   7710.31    1.095266e-03
   7710.60    1.116608e-03
   7710.89    1.137950e-03
   7711.18    1.161067e-03
   7711.47    1.185293e-03
   7711.76    1.209519e-03
   7712.04    1.234283e-03
   7712.33    1.262007e-03
   7712.62    1.289731e-03
   7712.91    1.317455e-03
   7713.20    1.348155e-03
   7713.49    1.380178e-03
   7713.78    1.412200e-03
   7714.07    1.445461e-03
   7714.36    1.482849e-03
   7714.64    1.520236e-03
   7714.93    1.557624e-03
   7715.22    1.600255e-03
   7715.51    1.644460e-03
   7715.80    1.688665e-03
   7716.09    1.735593e-03
   7716.38    1.788650e-03
   7716.67    1.841708e-03
   7716.96    1.894765e-03
   7717.24    1.957809e-03
   7717.53    2.022669e-03
   7717.82    2.087528e-03
   7718.11    2.158645e-03
   7718.40    2.239773e-03
   7718.69    2.320900e-03
   7718.98    2.402028e-03
   7719.27    2.504768e-03
   7719.56    2.609310e-03
   7719.84    2.713852e-03
   7720.13    2.834901e-03
   7720.42    2.975209e-03
   7720.71    3.115516e-03
   7721.00    3.255823e-03
   7721.29    3.455769e-03
   7721.58    3.655716e-03
   7721.87    3.855662e-03
   7722.16    4.117438e-03
   7722.44    4.432210e-03
   7722.73    4.746982e-03
   7723.02    5.084047e-03
   7723.31    5.688629e-03
   7723.60    6.293210e-03
   7723.89    6.897792e-03
   7724.18    8.149091e-03
   7724.47    9.804589e-03
   7724.76    1.146009e-02
   7725.04    1.326930e-02
   7725.33    1.596479e-02
   7725.62    1.873529e-02
   7725.91    2.160096e-02
   7726.20    2.460584e-02
   7726.49    2.778241e-02
   7726.78    3.105487e-02
   7727.07    3.442833e-02
   7727.36    3.799119e-02
   7727.64    4.198741e-02
   7727.93    4.667746e-02
   7728.22    5.222278e-02
   7728.51    5.882798e-02
   7728.80    6.632621e-02
   7729.09    7.473098e-02
   7729.38    8.354178e-02
   7729.67    9.224131e-02
   7729.96    1.002069e-01
   7730.24    1.068117e-01
   7730.53    1.114216e-01
   7730.82    1.140094e-01
   7731.11    1.147653e-01
   7731.40    1.140529e-01
   7731.69    1.123542e-01
   7731.98    1.101661e-01
   7732.27    1.079155e-01
   7732.56    1.059084e-01
   7732.84    1.042592e-01
   7733.13    1.029917e-01
   7733.42    1.020782e-01
   7733.71    1.014697e-01
   7734.00    1.011161e-01
   7734.29    1.009964e-01
   7734.58    1.010513e-01
   7734.87    1.012551e-01
   7735.16    1.015814e-01
   7735.44    1.019998e-01
   7735.73    1.024734e-01
   7736.02    1.029569e-01
   7736.31    1.033971e-01
   7736.60    1.037487e-01
   7736.89    1.039726e-01
   7737.18    1.040400e-01
   7737.47    1.039348e-01
   7737.76    1.036535e-01
   7738.04    1.031994e-01
   7738.33    1.026197e-01
   7738.62    1.019520e-01
   7738.91    1.012384e-01
   7739.20    1.005209e-01
   7739.49    9.983787e-02
   7739.78    9.922839e-02
   7740.07    9.874821e-02
   7740.36    9.845246e-02
   7740.64    9.815670e-02
   7740.93    9.786094e-02
   7741.22    9.784272e-02
   7741.51    9.790776e-02
   7741.80    9.797281e-02
   7742.09    9.809223e-02
   7742.38    9.833401e-02
   7742.67    9.857579e-02
   7742.96    9.881756e-02
   7743.24    9.900450e-02
   7743.53    9.918146e-02
   7743.82    9.935842e-02
   7744.11    9.943914e-02
   7744.40    9.936589e-02
   7744.69    9.929264e-02
   7744.98    9.921939e-02
   7745.27    9.886103e-02
   7745.56    9.847892e-02
   7745.84    9.809680e-02
   7746.13    9.760460e-02
   7746.42    9.698398e-02
   7746.71    9.636336e-02
   7747.00    9.574273e-02
   7747.29    9.500518e-02
   7747.58    9.426762e-02
   7747.87    9.353006e-02
   7748.16    9.278797e-02
   7748.44    9.204199e-02
   7748.73    9.129600e-02
   7749.02    9.055455e-02
   7749.31    8.986737e-02
   7749.60    8.918019e-02
   7749.89    8.849301e-02
   7750.18    8.785658e-02
   7750.47    8.725187e-02
   7750.76    8.664716e-02
   7751.04    8.605396e-02
   7751.33    8.552400e-02
   7751.62    8.499404e-02
   7751.91    8.446407e-02
   7752.20    8.396899e-02
   7752.49    8.348940e-02
   7752.78    8.300982e-02
   7753.07    8.253508e-02
   7753.36    8.207650e-02
   7753.64    8.161792e-02
   7753.93    8.115933e-02
   7754.22    8.069645e-02
   7754.51    8.023227e-02
   7754.80    7.976809e-02
   7755.09    7.929652e-02
   7755.38    7.880832e-02
   7755.67    7.832012e-02
   7755.96    7.783192e-02
   7756.24    7.731873e-02
   7756.53    7.680101e-02
   7756.82    7.628329e-02
   7757.11    7.575915e-02
   7757.40    7.522476e-02
   7757.69    7.469037e-02
   7757.98    7.415598e-02
   7758.27    7.364096e-02
   7758.56    7.312755e-02
   7758.84    7.261414e-02
   7759.13    7.213905e-02
   7759.42    7.170864e-02
   7759.71    7.127824e-02
   7760.00    7.084783e-02
