 FDMNES
  energy    <xanes>
   7695.00    5.212065e-04
   7695.29    5.269355e-04
   7695.58    5.326646e-04
   7695.87    5.383936e-04
   7696.16    5.443425e-04
   7696.44    5.504800e-04
   7696.73    5.566174e-04
   7697.02    5.627896e-04
   7697.31    5.693792e-04
   7697.60    5.759687e-04
   7697.89    5.825583e-04
   7698.18    5.894570e-04
   7698.47    5.965489e-04
   7698.76    6.036408e-04
   7699.04    6.108188e-04
   7699.33    6.184708e-04
   7699.62    6.261227e-04
   7699.91    6.337746e-04
   7700.20    6.418605e-04
   7700.49    6.501392e-04
   7700.78    6.584179e-04
   7701.07    6.668592e-04
   7701.36    6.758424e-04
   7701.64    6.848255e-04
   7701.93    6.938087e-04
   7702.22    7.034036e-04
   7702.51    7.131819e-04
   7702.80    7.229603e-04
   7703.09    7.330162e-04
   7703.38    7.436966e-04
   7703.67    7.543770e-04
   7703.96    7.650574e-04
   7704.24    7.766080e-04
   7704.53    7.883169e-04
   7704.82    8.000258e-04
   7705.11    8.121883e-04
   7705.40    8.250766e-04
   7705.69    8.379649e-04
   7705.98    8.508532e-04
   7706.27    8.649977e-04
   7706.56    8.792469e-04
   7706.84    8.934961e-04
   7707.13    9.084750e-04
   7707.42    9.243052e-04
   7707.71    9.401354e-04
   7708.00    9.559656e-04
   7708.29    9.736464e-04
   7708.58    9.913272e-04
   7708.87    1.009008e-03
   7709.16    1.027865e-03
   7709.44    1.047730e-03
   7709.73    1.067595e-03
   7710.02    1.087660e-03
   7710.31    1.110127e-03
   7710.60    1.132594e-03
   7710.89    1.155061e-03
   7711.18    1.179456e-03
   7711.47    1.205055e-03
   7711.76    1.230655e-03
   7712.04    1.256841e-03
   7712.33    1.286256e-03
   7712.62    1.315671e-03
   7712.91    1.345087e-03
   7713.20    1.377763e-03
   7713.49    1.411890e-03
   7713.78    1.446017e-03
   7714.07    1.481507e-03
   7714.36    1.521544e-03
   7714.64    1.561580e-03
   7714.93    1.601616e-03
   7715.22    1.647460e-03
   7715.51    1.695046e-03
   7715.80    1.742632e-03
   7716.09    1.793251e-03
   7716.38    1.850697e-03
   7716.67    1.908142e-03
   7716.96    1.965587e-03
   7717.24    2.034223e-03
   7717.53    2.104893e-03
   7717.82    2.175562e-03
   7718.11    2.253287e-03
   7718.40    2.342301e-03
   7718.69    2.431314e-03
   7718.98    2.520327e-03
   7719.27    2.633873e-03
   7719.56    2.749463e-03
   7719.84    2.865053e-03
   7720.13    2.999508e-03
   7720.42    3.155971e-03
   7720.71    3.312435e-03
   7721.00    3.468898e-03
   7721.29    3.693996e-03
   7721.58    3.919094e-03
   7721.87    4.144192e-03
   7722.16    4.440978e-03
   7722.44    4.799211e-03
   7722.73    5.157443e-03
   7723.02    5.541778e-03
   7723.31    6.239336e-03
   7723.60    6.936895e-03
   7723.89    7.634453e-03
   7724.18    9.091140e-03
   7724.47    1.102228e-02
   7724.76    1.295342e-02
   7725.04    1.505435e-02
   7725.33    1.810565e-02
   7725.62    2.115901e-02
   7725.91    2.426759e-02
   7726.20    2.754049e-02
   7726.49    3.111627e-02
   7726.78    3.499888e-02
   7727.07    3.932890e-02
   7727.36    4.416634e-02
   7727.64    4.966958e-02
   7727.93    5.595307e-02
   7728.22    6.305018e-02
   7728.51    7.109099e-02
   7728.80    7.994224e-02
   7729.09    8.971375e-02
   7729.38    1.000016e-01
   7729.67    1.103022e-01
   7729.96    1.197959e-01
   7730.24    1.274946e-01
   7730.53    1.322812e-01
   7730.82    1.340074e-01
   7731.11    1.330363e-01
   7731.40    1.300702e-01
   7731.69    1.259086e-01
   7731.98    1.212355e-01
   7732.27    1.165544e-01
   7732.56    1.122050e-01
   7732.84    1.083382e-01
   7733.13    1.050335e-01
   7733.42    1.023202e-01
   7733.71    1.001918e-01
   7734.00    9.861470e-02
   7734.29    9.758553e-02
   7734.58    9.696854e-02
   7734.87    9.668549e-02
   7735.16    9.665386e-02
   7735.44    9.678868e-02
   7735.73    9.700540e-02
   7736.02    9.721934e-02
   7736.31    9.735267e-02
   7736.60    9.735649e-02
   7736.89    9.720145e-02
   7737.18    9.687942e-02
   7737.47    9.640197e-02
   7737.76    9.579525e-02
   7738.04    9.509593e-02
   7738.33    9.436073e-02
   7738.62    9.363301e-02
   7738.91    9.295168e-02
   7739.20    9.234903e-02
   7739.49    9.184965e-02
   7739.78    9.148098e-02
   7740.07    9.128329e-02
   7740.36    9.129974e-02
   7740.64    9.131620e-02
   7740.93    9.133265e-02
   7741.22    9.162085e-02
   7741.51    9.199058e-02
   7741.80    9.236030e-02
   7742.09    9.277111e-02
   7742.38    9.327434e-02
   7742.67    9.377758e-02
   7742.96    9.428081e-02
   7743.24    9.467858e-02
   7743.53    9.505716e-02
   7743.82    9.543575e-02
   7744.11    9.569349e-02
   7744.40    9.575790e-02
   7744.69    9.582231e-02
   7744.98    9.588672e-02
   7745.27    9.562033e-02
   7745.56    9.532637e-02
   7745.84    9.503242e-02
   7746.13    9.461146e-02
   7746.42    9.404234e-02
   7746.71    9.347322e-02
   7747.00    9.290410e-02
   7747.29    9.218850e-02
   7747.58    9.147291e-02
   7747.87    9.075731e-02
   7748.16    9.002333e-02
   7748.44    8.927359e-02
   7748.73    8.852386e-02
   7749.02    8.777717e-02
   7749.31    8.706710e-02
   7749.60    8.635703e-02
   7749.89    8.564696e-02
   7750.18    8.498118e-02
   7750.47    8.434307e-02
   7750.76    8.370496e-02
   7751.04    8.307768e-02
   7751.33    8.250989e-02
   7751.62    8.194211e-02
   7751.91    8.137432e-02
   7752.20    8.084018e-02
   7752.49    8.032100e-02
   7752.78    7.980182e-02
   7753.07    7.928734e-02
   7753.36    7.878856e-02
   7753.64    7.828977e-02
   7753.93    7.779099e-02
   7754.22    7.728888e-02
   7754.51    7.678578e-02
   7754.80    7.628268e-02
   7755.09    7.577379e-02
   7755.38    7.525187e-02
   7755.67    7.472994e-02
   7755.96    7.420801e-02
   7756.24    7.367021e-02
   7756.53    7.312952e-02
   7756.82    7.258884e-02
   7757.11    7.204773e-02
   7757.40    7.150596e-02
   7757.69    7.096418e-02
   7757.98    7.042241e-02
   7758.27    6.991456e-02
   7758.56    6.940953e-02
   7758.84    6.890450e-02
   7759.13    6.844139e-02
   7759.42    6.802717e-02
   7759.71    6.761295e-02
   7760.00    6.719873e-02
