 FDMNES
  energy    <xanes>
   7695.00    5.302716e-04
   7695.29    5.359110e-04
   7695.58    5.415504e-04
   7695.87    5.471899e-04
   7696.16    5.530399e-04
   7696.44    5.590705e-04
   7696.73    5.651010e-04
   7697.02    5.711648e-04
   7697.31    5.776275e-04
   7697.60    5.840901e-04
   7697.89    5.905528e-04
   7698.18    5.973101e-04
   7698.47    6.042516e-04
   7698.76    6.111931e-04
   7699.04    6.182166e-04
   7699.33    6.256906e-04
   7699.62    6.331646e-04
   7699.91    6.406386e-04
   7700.20    6.485242e-04
   7700.49    6.565926e-04
   7700.78    6.646611e-04
   7701.07    6.728832e-04
   7701.36    6.816178e-04
   7701.64    6.903524e-04
   7701.93    6.990870e-04
   7702.22    7.083983e-04
   7702.51    7.178826e-04
   7702.80    7.273669e-04
   7703.09    7.371121e-04
   7703.38    7.474441e-04
   7703.67    7.577762e-04
   7703.96    7.681082e-04
   7704.24    7.792554e-04
   7704.53    7.905508e-04
   7704.82    8.018462e-04
   7705.11    8.135649e-04
   7705.40    8.259610e-04
   7705.69    8.383572e-04
   7705.98    8.507533e-04
   7706.27    8.643174e-04
   7706.56    8.779788e-04
   7706.84    8.916402e-04
   7707.13    9.059772e-04
   7707.42    9.211025e-04
   7707.71    9.362278e-04
   7708.00    9.513531e-04
   7708.29    9.681843e-04
   7708.58    9.850156e-04
   7708.87    1.001847e-03
   7709.16    1.019757e-03
   7709.44    1.038593e-03
   7709.73    1.057428e-03
   7710.02    1.076446e-03
   7710.31    1.097657e-03
   7710.60    1.118868e-03
   7710.89    1.140079e-03
   7711.18    1.163040e-03
   7711.47    1.187096e-03
   7711.76    1.211151e-03
   7712.04    1.235736e-03
   7712.33    1.263235e-03
   7712.62    1.290734e-03
   7712.91    1.318234e-03
   7713.20    1.348659e-03
   7713.49    1.380384e-03
   7713.78    1.412109e-03
   7714.07    1.445049e-03
   7714.36    1.482039e-03
   7714.64    1.519028e-03
   7714.93    1.556017e-03
   7715.22    1.598142e-03
   7715.51    1.641806e-03
   7715.80    1.685471e-03
   7716.09    1.731797e-03
   7716.38    1.784109e-03
   7716.67    1.836421e-03
   7716.96    1.888733e-03
   7717.24    1.950776e-03
   7717.53    2.014588e-03
   7717.82    2.078400e-03
   7718.11    2.148291e-03
   7718.40    2.227909e-03
   7718.69    2.307526e-03
   7718.98    2.387144e-03
   7719.27    2.487703e-03
   7719.56    2.590006e-03
   7719.84    2.692310e-03
   7720.13    2.810572e-03
   7720.42    2.947452e-03
   7720.71    3.084332e-03
   7721.00    3.221212e-03
   7721.29    3.415734e-03
   7721.58    3.610255e-03
   7721.87    3.804777e-03
   7722.16    4.059387e-03
   7722.44    4.365499e-03
   7722.73    4.671612e-03
   7723.02    4.999832e-03
   7723.31    5.593335e-03
   7723.60    6.186837e-03
   7723.89    6.780340e-03
   7724.18    8.027367e-03
   7724.47    9.682846e-03
   7724.76    1.133832e-02
   7725.04    1.313298e-02
   7725.33    1.567512e-02
   7725.62    1.810600e-02
   7725.91    2.045292e-02
   7726.20    2.285543e-02
   7726.49    2.544198e-02
   7726.78    2.823452e-02
   7727.07    3.133378e-02
   7727.36    3.478882e-02
   7727.64    3.872588e-02
   7727.93    4.325574e-02
   7728.22    4.845203e-02
   7728.51    5.448805e-02
   7728.80    6.129275e-02
   7729.09    6.903508e-02
   7729.38    7.743216e-02
   7729.67    8.631500e-02
   7729.96    9.522745e-02
   7730.24    1.036219e-01
   7730.53    1.107211e-01
   7730.82    1.160249e-01
   7731.11    1.192929e-01
   7731.40    1.205933e-01
   7731.69    1.202694e-01
   7731.98    1.187936e-01
   7732.27    1.166071e-01
   7732.56    1.141083e-01
   7732.84    1.115803e-01
   7733.13    1.091959e-01
   7733.42    1.070775e-01
   7733.71    1.053064e-01
   7734.00    1.039278e-01
   7734.29    1.030016e-01
   7734.58    1.024591e-01
   7734.87    1.022566e-01
   7735.16    1.023331e-01
   7735.44    1.026144e-01
   7735.73    1.030188e-01
   7736.02    1.034599e-01
   7736.31    1.038483e-01
   7736.60    1.041187e-01
   7736.89    1.042250e-01
   7737.18    1.041422e-01
   7737.47    1.038668e-01
   7737.76    1.034136e-01
   7738.04    1.028101e-01
   7738.33    1.021203e-01
   7738.62    1.013941e-01
   7738.91    1.006794e-01
   7739.20    1.000179e-01
   7739.49    9.944235e-02
   7739.78    9.898573e-02
   7740.07    9.868992e-02
   7740.36    9.859540e-02
   7740.64    9.850089e-02
   7740.93    9.840638e-02
   7741.22    9.854694e-02
   7741.51    9.875803e-02
   7741.80    9.896911e-02
   7742.09    9.919962e-02
   7742.38    9.947382e-02
   7742.67    9.974802e-02
   7742.96    1.000222e-01
   7743.24    1.001461e-01
   7743.53    1.002425e-01
   7743.82    1.003390e-01
   7744.11    1.003121e-01
   7744.40    1.000877e-01
   7744.69    9.986326e-02
   7744.98    9.963884e-02
   7745.27    9.910737e-02
   7745.56    9.855030e-02
   7745.84    9.799324e-02
   7746.13    9.732336e-02
   7746.42    9.652185e-02
   7746.71    9.572035e-02
   7747.00    9.491884e-02
   7747.29    9.401076e-02
   7747.58    9.310267e-02
   7747.87    9.219459e-02
   7748.16    9.130316e-02
   7748.44    9.042601e-02
   7748.73    8.954885e-02
   7749.02    8.867999e-02
   7749.31    8.791052e-02
   7749.60    8.714106e-02
   7749.89    8.637159e-02
   7750.18    8.568192e-02
   7750.47    8.504211e-02
   7750.76    8.440231e-02
   7751.04    8.378097e-02
   7751.33    8.326116e-02
   7751.62    8.274135e-02
   7751.91    8.222154e-02
   7752.20    8.176561e-02
   7752.49    8.133807e-02
   7752.78    8.091053e-02
   7753.07    8.049607e-02
   7753.36    8.012520e-02
   7753.64    7.975433e-02
   7753.93    7.938346e-02
   7754.22    7.902878e-02
   7754.51    7.867896e-02
   7754.80    7.832914e-02
   7755.09    7.797695e-02
   7755.38    7.761946e-02
   7755.67    7.726197e-02
   7755.96    7.690447e-02
   7756.24    7.652771e-02
   7756.53    7.614745e-02
   7756.82    7.576719e-02
   7757.11    7.537998e-02
   7757.40    7.498167e-02
   7757.69    7.458336e-02
   7757.98    7.418505e-02
   7758.27    7.379678e-02
   7758.56    7.340935e-02
   7758.84    7.302191e-02
   7759.13    7.266232e-02
   7759.42    7.233521e-02
   7759.71    7.200810e-02
   7760.00    7.168099e-02
