 FDMNES
  energy    <xanes>
   7695.00    5.375832e-04
   7695.29    5.432202e-04
   7695.58    5.488572e-04
   7695.87    5.544943e-04
   7696.16    5.603402e-04
   7696.44    5.663651e-04
   7696.73    5.723901e-04
   7697.02    5.784480e-04
   7697.31    5.849015e-04
   7697.60    5.913549e-04
   7697.89    5.978083e-04
   7698.18    6.045539e-04
   7698.47    6.114821e-04
   7698.76    6.184103e-04
   7699.04    6.254197e-04
   7699.33    6.328758e-04
   7699.62    6.403319e-04
   7699.91    6.477881e-04
   7700.20    6.556521e-04
   7700.49    6.636974e-04
   7700.78    6.717428e-04
   7701.07    6.799405e-04
   7701.36    6.886461e-04
   7701.64    6.973518e-04
   7701.93    7.060575e-04
   7702.22    7.153349e-04
   7702.51    7.247838e-04
   7702.80    7.342327e-04
   7703.09    7.439403e-04
   7703.38    7.542298e-04
   7703.67    7.645193e-04
   7703.96    7.748088e-04
   7704.24    7.859068e-04
   7704.53    7.971518e-04
   7704.82    8.083969e-04
   7705.11    8.200620e-04
   7705.40    8.323994e-04
   7705.69    8.447368e-04
   7705.98    8.570741e-04
   7706.27    8.705712e-04
   7706.56    8.841650e-04
   7706.84    8.977587e-04
   7707.13    9.120239e-04
   7707.42    9.270726e-04
   7707.71    9.421212e-04
   7708.00    9.571698e-04
   7708.29    9.739158e-04
   7708.58    9.906619e-04
   7708.87    1.007408e-03
   7709.16    1.025229e-03
   7709.44    1.043972e-03
   7709.73    1.062715e-03
   7710.02    1.081640e-03
   7710.31    1.102754e-03
   7710.60    1.123869e-03
   7710.89    1.144983e-03
   7711.18    1.167848e-03
   7711.47    1.191808e-03
   7711.76    1.215768e-03
   7712.04    1.240259e-03
   7712.33    1.267675e-03
   7712.62    1.295091e-03
   7712.91    1.322506e-03
   7713.20    1.352869e-03
   7713.49    1.384540e-03
   7713.78    1.416212e-03
   7714.07    1.449113e-03
   7714.36    1.486111e-03
   7714.64    1.523108e-03
   7714.93    1.560106e-03
   7715.22    1.602330e-03
   7715.51    1.646121e-03
   7715.80    1.689912e-03
   7716.09    1.736432e-03
   7716.38    1.789090e-03
   7716.67    1.841748e-03
   7716.96    1.894406e-03
   7717.24    1.957138e-03
   7717.53    2.021701e-03
   7717.82    2.086264e-03
   7718.11    2.157201e-03
   7718.40    2.238334e-03
   7718.69    2.319468e-03
   7718.98    2.400601e-03
   7719.27    2.504059e-03
   7719.56    2.609377e-03
   7719.84    2.714695e-03
   7720.13    2.837414e-03
   7720.42    2.980435e-03
   7720.71    3.123457e-03
   7721.00    3.266478e-03
   7721.29    3.474368e-03
   7721.58    3.682258e-03
   7721.87    3.890148e-03
   7722.16    4.168767e-03
   7722.44    4.508012e-03
   7722.73    4.847256e-03
   7723.02    5.214217e-03
   7723.31    5.913776e-03
   7723.60    6.613334e-03
   7723.89    7.312892e-03
   7724.18    8.880390e-03
   7724.47    1.099035e-02
   7724.76    1.310031e-02
   7725.04    1.538761e-02
   7725.33    1.856985e-02
   7725.62    2.138006e-02
   7725.91    2.376445e-02
   7726.20    2.599375e-02
   7726.49    2.831605e-02
   7726.78    3.090206e-02
   7727.07    3.397072e-02
   7727.36    3.761602e-02
   7727.64    4.201701e-02
   7727.93    4.729986e-02
   7728.22    5.349049e-02
   7728.51    6.064937e-02
   7728.80    6.843484e-02
   7729.09    7.642219e-02
   7729.38    8.389873e-02
   7729.67    8.997202e-02
   7729.96    9.432522e-02
   7730.24    9.692484e-02
   7730.53    9.807172e-02
   7730.82    9.840920e-02
   7731.11    9.834275e-02
   7731.40    9.809665e-02
   7731.69    9.777598e-02
   7731.98    9.742144e-02
   7732.27    9.704826e-02
   7732.56    9.666534e-02
   7732.84    9.627954e-02
   7733.13    9.590009e-02
   7733.42    9.554492e-02
   7733.71    9.524253e-02
   7734.00    9.502943e-02
   7734.29    9.496316e-02
   7734.58    9.506195e-02
   7734.87    9.534144e-02
   7735.16    9.579955e-02
   7735.44    9.641583e-02
   7735.73    9.715347e-02
   7736.02    9.796442e-02
   7736.31    9.878391e-02
   7736.60    9.955536e-02
   7736.89    1.002343e-01
   7737.18    1.007901e-01
   7737.47    1.012082e-01
   7737.76    1.014887e-01
   7738.04    1.016415e-01
   7738.33    1.017091e-01
   7738.62    1.017252e-01
   7738.91    1.017236e-01
   7739.20    1.017355e-01
   7739.49    1.017866e-01
   7739.78    1.019018e-01
   7740.07    1.021105e-01
   7740.36    1.024377e-01
   7740.64    1.027649e-01
   7740.93    1.030921e-01
   7741.22    1.035304e-01
   7741.51    1.040020e-01
   7741.80    1.044736e-01
   7742.09    1.049151e-01
   7742.38    1.052887e-01
   7742.67    1.056623e-01
   7742.96    1.060359e-01
   7743.24    1.061146e-01
   7743.53    1.061397e-01
   7743.82    1.061647e-01
   7744.11    1.060111e-01
   7744.40    1.055715e-01
   7744.69    1.051320e-01
   7744.98    1.046924e-01
   7745.27    1.038944e-01
   7745.56    1.030665e-01
   7745.84    1.022386e-01
   7746.13    1.013232e-01
   7746.42    1.003057e-01
   7746.71    9.928810e-02
   7747.00    9.827055e-02
   7747.29    9.726063e-02
   7747.58    9.625071e-02
   7747.87    9.524079e-02
   7748.16    9.430041e-02
   7748.44    9.341966e-02
   7748.73    9.253890e-02
   7749.02    9.167124e-02
   7749.31    9.096086e-02
   7749.60    9.025047e-02
   7749.89    8.954009e-02
   7750.18    8.892768e-02
   7750.47    8.837650e-02
   7750.76    8.782533e-02
   7751.04    8.729297e-02
   7751.33    8.686406e-02
   7751.62    8.643515e-02
   7751.91    8.600624e-02
   7752.20    8.562953e-02
   7752.49    8.527602e-02
   7752.78    8.492251e-02
   7753.07    8.457598e-02
   7753.36    8.425270e-02
   7753.64    8.392942e-02
   7753.93    8.360614e-02
   7754.22    8.327735e-02
   7754.51    8.294691e-02
   7754.80    8.261647e-02
   7755.09    8.227562e-02
   7755.38    8.191137e-02
   7755.67    8.154712e-02
   7755.96    8.118287e-02
   7756.24    8.077930e-02
   7756.53    8.036857e-02
   7756.82    7.995785e-02
   7757.11    7.953191e-02
   7757.40    7.908162e-02
   7757.69    7.863133e-02
   7757.98    7.818104e-02
   7758.27    7.772674e-02
   7758.56    7.727211e-02
   7758.84    7.681748e-02
   7759.13    7.639128e-02
   7759.42    7.599826e-02
   7759.71    7.560524e-02
   7760.00    7.521222e-02
