 FDMNES
  energy    <xanes>
   7695.00    5.288031e-04
   7695.29    5.345853e-04
   7695.58    5.403675e-04
   7695.87    5.461497e-04
   7696.16    5.521541e-04
   7696.44    5.583490e-04
   7696.73    5.645439e-04
   7697.02    5.707739e-04
   7697.31    5.774260e-04
   7697.60    5.840781e-04
   7697.89    5.907302e-04
   7698.18    5.976951e-04
   7698.47    6.048554e-04
   7698.76    6.120157e-04
   7699.04    6.192632e-04
   7699.33    6.269905e-04
   7699.62    6.347178e-04
   7699.91    6.424451e-04
   7700.20    6.506121e-04
   7700.49    6.589744e-04
   7700.78    6.673367e-04
   7701.07    6.758639e-04
   7701.36    6.849405e-04
   7701.64    6.940172e-04
   7701.93    7.030938e-04
   7702.22    7.127912e-04
   7702.51    7.226749e-04
   7702.80    7.325586e-04
   7703.09    7.427242e-04
   7703.38    7.535243e-04
   7703.67    7.643244e-04
   7703.96    7.751245e-04
   7704.24    7.868098e-04
   7704.53    7.986560e-04
   7704.82    8.105022e-04
   7705.11    8.228104e-04
   7705.40    8.358578e-04
   7705.69    8.489053e-04
   7705.98    8.619527e-04
   7706.27    8.762814e-04
   7706.56    8.907169e-04
   7706.84    9.051524e-04
   7707.13    9.203334e-04
   7707.42    9.363842e-04
   7707.71    9.524349e-04
   7708.00    9.684857e-04
   7708.29    9.864308e-04
   7708.58    1.004376e-03
   7708.87    1.022321e-03
   7709.16    1.041472e-03
   7709.44    1.061658e-03
   7709.73    1.081844e-03
   7710.02    1.102235e-03
   7710.31    1.125097e-03
   7710.60    1.147958e-03
   7710.89    1.170820e-03
   7711.18    1.195669e-03
   7711.47    1.221761e-03
   7711.76    1.247852e-03
   7712.04    1.274552e-03
   7712.33    1.304591e-03
   7712.62    1.334631e-03
   7712.91    1.364670e-03
   7713.20    1.398097e-03
   7713.49    1.433030e-03
   7713.78    1.467962e-03
   7714.07    1.504317e-03
   7714.36    1.545414e-03
   7714.64    1.586510e-03
   7714.93    1.627607e-03
   7715.22    1.674792e-03
   7715.51    1.723805e-03
   7715.80    1.772817e-03
   7716.09    1.825030e-03
   7716.38    1.884443e-03
   7716.67    1.943856e-03
   7716.96    2.003270e-03
   7717.24    2.074575e-03
   7717.53    2.148042e-03
   7717.82    2.221510e-03
   7718.11    2.302543e-03
   7718.40    2.395680e-03
   7718.69    2.488818e-03
   7718.98    2.581955e-03
   7719.27    2.701694e-03
   7719.56    2.823650e-03
   7719.84    2.945605e-03
   7720.13    3.088308e-03
   7720.42    3.255214e-03
   7720.71    3.422120e-03
   7721.00    3.589026e-03
   7721.29    3.832811e-03
   7721.58    4.076596e-03
   7721.87    4.320381e-03
   7722.16    4.646458e-03
   7722.44    5.043071e-03
   7722.73    5.439684e-03
   7723.02    5.867250e-03
   7723.31    6.666251e-03
   7723.60    7.465252e-03
   7723.89    8.264253e-03
   7724.18    9.994639e-03
   7724.47    1.230714e-02
   7724.76    1.461964e-02
   7725.04    1.714199e-02
   7725.33    2.081481e-02
   7725.62    2.436025e-02
   7725.91    2.773687e-02
   7726.20    3.113513e-02
   7726.49    3.483640e-02
   7726.78    3.901176e-02
   7727.07    4.397405e-02
   7727.36    4.978119e-02
   7727.64    5.648191e-02
   7727.93    6.392022e-02
   7728.22    7.186235e-02
   7728.51    8.031444e-02
   7728.80    8.929151e-02
   7729.09    9.883346e-02
   7729.38    1.083319e-01
   7729.67    1.167109e-01
   7729.96    1.230745e-01
   7730.24    1.267494e-01
   7730.53    1.275031e-01
   7730.82    1.261025e-01
   7731.11    1.233029e-01
   7731.40    1.197294e-01
   7731.69    1.158396e-01
   7731.98    1.119376e-01
   7732.27    1.082336e-01
   7732.56    1.048646e-01
   7732.84    1.018828e-01
   7733.13    9.933078e-02
   7733.42    9.723284e-02
   7733.71    9.559547e-02
   7734.00    9.440734e-02
   7734.29    9.368395e-02
   7734.58    9.332204e-02
   7734.87    9.325646e-02
   7735.16    9.341006e-02
   7735.44    9.369770e-02
   7735.73    9.403131e-02
   7736.02    9.431803e-02
   7736.31    9.447509e-02
   7736.60    9.445260e-02
   7736.89    9.422132e-02
   7737.18    9.377788e-02
   7737.47    9.314419e-02
   7737.76    9.236224e-02
   7738.04    9.149127e-02
   7738.33    9.061077e-02
   7738.62    8.978317e-02
   7738.91    8.906225e-02
   7739.20    8.848985e-02
   7739.49    8.809455e-02
   7739.78    8.790854e-02
   7740.07    8.797396e-02
   7740.36    8.833461e-02
   7740.64    8.869526e-02
   7740.93    8.905590e-02
   7741.22    8.972423e-02
   7741.51    9.048487e-02
   7741.80    9.124550e-02
   7742.09    9.201689e-02
   7742.38    9.281247e-02
   7742.67    9.360805e-02
   7742.96    9.440362e-02
   7743.24    9.494067e-02
   7743.53    9.543072e-02
   7743.82    9.592077e-02
   7744.11    9.622879e-02
   7744.40    9.624558e-02
   7744.69    9.626237e-02
   7744.98    9.627915e-02
   7745.27    9.590074e-02
   7745.56    9.548940e-02
   7745.84    9.507805e-02
   7746.13    9.454966e-02
   7746.42    9.388470e-02
   7746.71    9.321975e-02
   7747.00    9.255480e-02
   7747.29    9.181864e-02
   7747.58    9.108248e-02
   7747.87    9.034632e-02
   7748.16    8.963644e-02
   7748.44    8.894907e-02
   7748.73    8.826170e-02
   7749.02    8.758191e-02
   7749.31    8.699301e-02
   7749.60    8.640412e-02
   7749.89    8.581522e-02
   7750.18    8.528592e-02
   7750.47    8.479386e-02
   7750.76    8.430180e-02
   7751.04    8.381990e-02
   7751.33    8.339388e-02
   7751.62    8.296786e-02
   7751.91    8.254184e-02
   7752.20    8.213343e-02
   7752.49    8.173284e-02
   7752.78    8.133225e-02
   7753.07    8.092917e-02
   7753.36    8.051780e-02
   7753.64    8.010643e-02
   7753.93    7.969505e-02
   7754.22    7.925719e-02
   7754.51    7.881137e-02
   7754.80    7.836556e-02
   7755.09    7.790678e-02
   7755.38    7.741881e-02
   7755.67    7.693085e-02
   7755.96    7.644289e-02
   7756.24    7.592675e-02
   7756.53    7.540549e-02
   7756.82    7.488424e-02
   7757.11    7.435987e-02
   7757.40    7.383055e-02
   7757.69    7.330122e-02
   7757.98    7.277189e-02
   7758.27    7.227423e-02
   7758.56    7.177921e-02
   7758.84    7.128419e-02
   7759.13    7.083058e-02
   7759.42    7.042529e-02
   7759.71    7.001999e-02
   7760.00    6.961470e-02
