 FDMNES
  energy    <xanes>
   7695.00    5.488689e-04
   7695.29    5.544251e-04
   7695.58    5.599814e-04
   7695.87    5.655376e-04
   7696.16    5.712937e-04
   7696.44    5.772213e-04
   7696.73    5.831488e-04
   7697.02    5.891079e-04
   7697.31    5.954446e-04
   7697.60    6.017813e-04
   7697.89    6.081180e-04
   7698.18    6.147330e-04
   7698.47    6.215220e-04
   7698.76    6.283109e-04
   7699.04    6.351771e-04
   7699.33    6.424676e-04
   7699.62    6.497581e-04
   7699.91    6.570487e-04
   7700.20    6.647257e-04
   7700.49    6.725745e-04
   7700.78    6.804233e-04
   7701.07    6.884161e-04
   7701.36    6.968888e-04
   7701.64    7.053615e-04
   7701.93    7.138341e-04
   7702.22    7.228453e-04
   7702.51    7.320181e-04
   7702.80    7.411908e-04
   7703.09    7.506064e-04
   7703.38    7.605684e-04
   7703.67    7.705303e-04
   7703.96    7.804922e-04
   7704.24    7.912106e-04
   7704.53    8.020666e-04
   7704.82    8.129226e-04
   7705.11    8.241702e-04
   7705.40    8.360445e-04
   7705.69    8.479187e-04
   7705.98    8.597930e-04
   7706.27    8.727442e-04
   7706.56    8.857852e-04
   7706.84    8.988262e-04
   7707.13    9.124881e-04
   7707.42    9.268745e-04
   7707.71    9.412609e-04
   7708.00    9.556473e-04
   7708.29    9.715964e-04
   7708.58    9.875456e-04
   7708.87    1.003495e-03
   7709.16    1.020429e-03
   7709.44    1.038208e-03
   7709.73    1.055987e-03
   7710.02    1.073932e-03
   7710.31    1.093872e-03
   7710.60    1.113812e-03
   7710.89    1.133753e-03
   7711.18    1.155280e-03
   7711.47    1.177800e-03
   7711.76    1.200320e-03
   7712.04    1.223318e-03
   7712.33    1.248952e-03
   7712.62    1.274586e-03
   7712.91    1.300219e-03
   7713.20    1.328490e-03
   7713.49    1.357933e-03
   7713.78    1.387377e-03
   7714.07    1.417912e-03
   7714.36    1.452088e-03
   7714.64    1.486265e-03
   7714.93    1.520441e-03
   7715.22    1.559225e-03
   7715.51    1.599392e-03
   7715.80    1.639558e-03
   7716.09    1.682110e-03
   7716.38    1.730028e-03
   7716.67    1.777947e-03
   7716.96    1.825865e-03
   7717.24    1.882508e-03
   7717.53    1.940738e-03
   7717.82    1.998968e-03
   7718.11    2.062662e-03
   7718.40    2.135100e-03
   7718.69    2.207537e-03
   7718.98    2.279974e-03
   7719.27    2.371346e-03
   7719.56    2.464295e-03
   7719.84    2.557245e-03
   7720.13    2.664787e-03
   7720.42    2.789355e-03
   7720.71    2.913922e-03
   7721.00    3.038490e-03
   7721.29    3.216841e-03
   7721.58    3.395193e-03
   7721.87    3.573545e-03
   7722.16    3.809911e-03
   7722.44    4.096004e-03
   7722.73    4.382097e-03
   7723.02    4.690684e-03
   7723.31    5.269203e-03
   7723.60    5.847722e-03
   7723.89    6.426241e-03
   7724.18    7.711493e-03
   7724.47    9.438452e-03
   7724.76    1.116541e-02
   7725.04    1.305181e-02
   7725.33    1.579392e-02
   7725.62    1.832764e-02
   7725.91    2.044818e-02
   7726.20    2.224675e-02
   7726.49    2.388449e-02
   7726.78    2.561047e-02
   7727.07    2.759979e-02
   7727.36    2.990578e-02
   7727.64    3.260886e-02
   7727.93    3.577772e-02
   7728.22    3.946533e-02
   7728.51    4.381384e-02
   7728.80    4.877826e-02
   7729.09    5.451217e-02
   7729.38    6.080649e-02
   7729.67    6.757643e-02
   7729.96    7.451755e-02
   7730.24    8.130477e-02
   7730.53    8.748977e-02
   7730.82    9.271527e-02
   7731.11    9.670947e-02
   7731.40    9.933666e-02
   7731.69    1.006509e-01
   7731.98    1.008823e-01
   7732.27    1.003432e-01
   7732.56    9.940293e-02
   7732.84    9.834557e-02
   7733.13    9.731399e-02
   7733.42    9.638528e-02
   7733.71    9.560297e-02
   7734.00    9.499577e-02
   7734.29    9.461314e-02
   7734.58    9.445538e-02
   7734.87    9.454066e-02
   7735.16    9.487873e-02
   7735.44    9.546677e-02
   7735.73    9.628723e-02
   7736.02    9.731794e-02
   7736.31    9.850087e-02
   7736.60    9.976726e-02
   7736.89    1.010525e-01
   7737.18    1.022905e-01
   7737.47    1.034184e-01
   7737.76    1.043777e-01
   7738.04    1.051045e-01
   7738.33    1.055938e-01
   7738.62    1.058406e-01
   7738.91    1.058565e-01
   7739.20    1.056677e-01
   7739.49    1.053112e-01
   7739.78    1.048232e-01
   7740.07    1.042690e-01
   7740.36    1.037154e-01
   7740.64    1.031617e-01
   7740.93    1.026081e-01
   7741.22    1.022805e-01
   7741.51    1.020208e-01
   7741.80    1.017610e-01
   7742.09    1.016252e-01
   7742.38    1.017681e-01
   7742.67    1.019111e-01
   7742.96    1.020540e-01
   7743.24    1.024296e-01
   7743.53    1.028475e-01
   7743.82    1.032654e-01
   7744.11    1.036978e-01
   7744.40    1.041534e-01
   7744.69    1.046090e-01
   7744.98    1.050646e-01
   7745.27    1.053264e-01
   7745.56    1.055721e-01
   7745.84    1.058178e-01
   7746.13    1.058887e-01
   7746.42    1.057559e-01
   7746.71    1.056230e-01
   7747.00    1.054901e-01
   7747.29    1.049573e-01
   7747.58    1.044244e-01
   7747.87    1.038916e-01
   7748.16    1.032101e-01
   7748.44    1.024011e-01
   7748.73    1.015921e-01
   7749.02    1.007766e-01
   7749.31    9.988400e-02
   7749.60    9.899135e-02
   7749.89    9.809869e-02
   7750.18    9.725349e-02
   7750.47    9.643795e-02
   7750.76    9.562240e-02
   7751.04    9.482778e-02
   7751.33    9.414827e-02
   7751.62    9.346876e-02
   7751.91    9.278924e-02
   7752.20    9.219666e-02
   7752.49    9.164271e-02
   7752.78    9.108876e-02
   7753.07    9.055587e-02
   7753.36    9.009316e-02
   7753.64    8.963045e-02
   7753.93    8.916775e-02
   7754.22    8.874568e-02
   7754.51    8.833582e-02
   7754.80    8.792595e-02
   7755.09    8.752196e-02
   7755.38    8.713117e-02
   7755.67    8.674039e-02
   7755.96    8.634960e-02
   7756.24    8.595487e-02
   7756.53    8.555942e-02
   7756.82    8.516396e-02
   7757.11    8.476381e-02
   7757.40    8.435612e-02
   7757.69    8.394844e-02
   7757.98    8.354075e-02
   7758.27    8.313847e-02
   7758.56    8.273664e-02
   7758.84    8.233481e-02
   7759.13    8.195856e-02
   7759.42    8.161215e-02
   7759.71    8.126574e-02
   7760.00    8.091932e-02
