 FDMNES
  energy    <xanes>
   7695.00    5.414772e-04
   7695.29    5.472159e-04
   7695.58    5.529545e-04
   7695.87    5.586932e-04
   7696.16    5.646472e-04
   7696.44    5.707859e-04
   7696.73    5.769245e-04
   7697.02    5.830972e-04
   7697.31    5.896781e-04
   7697.60    5.962590e-04
   7697.89    6.028399e-04
   7698.18    6.097228e-04
   7698.47    6.167944e-04
   7698.76    6.238660e-04
   7699.04    6.310217e-04
   7699.33    6.386396e-04
   7699.62    6.462576e-04
   7699.91    6.538755e-04
   7700.20    6.619162e-04
   7700.49    6.701447e-04
   7700.78    6.783733e-04
   7701.07    6.867600e-04
   7701.36    6.956739e-04
   7701.64    7.045878e-04
   7701.93    7.135017e-04
   7702.22    7.230099e-04
   7702.51    7.326964e-04
   7702.80    7.423828e-04
   7703.09    7.523386e-04
   7703.38    7.629002e-04
   7703.67    7.734618e-04
   7703.96    7.840235e-04
   7704.24    7.954283e-04
   7704.53    8.069865e-04
   7704.82    8.185446e-04
   7705.11    8.305417e-04
   7705.40    8.432411e-04
   7705.69    8.559404e-04
   7705.98    8.686398e-04
   7706.27    8.825531e-04
   7706.56    8.965676e-04
   7706.84    9.105821e-04
   7707.13    9.253008e-04
   7707.42    9.408411e-04
   7707.71    9.563815e-04
   7708.00    9.719218e-04
   7708.29    9.892461e-04
   7708.58    1.006570e-03
   7708.87    1.023895e-03
   7709.16    1.042351e-03
   7709.44    1.061779e-03
   7709.73    1.081206e-03
   7710.02    1.100826e-03
   7710.31    1.122757e-03
   7710.60    1.144687e-03
   7710.89    1.166617e-03
   7711.18    1.190401e-03
   7711.47    1.215342e-03
   7711.76    1.240283e-03
   7712.04    1.265788e-03
   7712.33    1.294395e-03
   7712.62    1.323001e-03
   7712.91    1.351608e-03
   7713.20    1.383346e-03
   7713.49    1.416477e-03
   7713.78    1.449608e-03
   7714.07    1.484049e-03
   7714.36    1.522856e-03
   7714.64    1.561663e-03
   7714.93    1.600470e-03
   7715.22    1.644859e-03
   7715.51    1.690922e-03
   7715.80    1.736986e-03
   7716.09    1.785970e-03
   7716.38    1.841526e-03
   7716.67    1.897082e-03
   7716.96    1.952638e-03
   7717.24    2.018999e-03
   7717.53    2.087325e-03
   7717.82    2.155650e-03
   7718.11    2.230822e-03
   7718.40    2.316947e-03
   7718.69    2.403072e-03
   7718.98    2.489197e-03
   7719.27    2.599318e-03
   7719.56    2.711440e-03
   7719.84    2.823561e-03
   7720.13    2.954379e-03
   7720.42    3.107010e-03
   7720.71    3.259641e-03
   7721.00    3.412273e-03
   7721.29    3.634457e-03
   7721.58    3.856641e-03
   7721.87    4.078825e-03
   7722.16    4.376558e-03
   7722.44    4.739045e-03
   7722.73    5.101533e-03
   7723.02    5.493516e-03
   7723.31    6.239441e-03
   7723.60    6.985366e-03
   7723.89    7.731291e-03
   7724.18    9.387209e-03
   7724.47    1.161187e-02
   7724.76    1.383653e-02
   7725.04    1.622948e-02
   7725.33    1.943456e-02
   7725.62    2.223162e-02
   7725.91    2.472028e-02
   7726.20    2.721696e-02
   7726.49    2.997891e-02
   7726.78    3.310383e-02
   7727.07    3.679547e-02
   7727.36    4.110717e-02
   7727.64    4.615171e-02
   7727.93    5.193920e-02
   7728.22    5.836656e-02
   7728.51    6.539961e-02
   7728.80    7.290146e-02
   7729.09    8.101746e-02
   7729.38    8.963254e-02
   7729.67    9.859295e-02
   7729.96    1.073400e-01
   7730.24    1.150797e-01
   7730.53    1.207646e-01
   7730.82    1.239705e-01
   7731.11    1.246996e-01
   7731.40    1.232876e-01
   7731.69    1.202628e-01
   7731.98    1.161978e-01
   7732.27    1.116184e-01
   7732.56    1.070044e-01
   7732.84    1.026662e-01
   7733.13    9.877458e-02
   7733.42    9.541518e-02
   7733.71    9.261669e-02
   7734.00    9.037415e-02
   7734.29    8.872529e-02
   7734.58    8.757364e-02
   7734.87    8.688566e-02
   7735.16    8.662551e-02
   7735.44    8.675439e-02
   7735.73    8.722935e-02
   7736.02    8.801856e-02
   7736.31    8.905381e-02
   7736.60    9.025904e-02
   7736.89    9.156895e-02
   7737.18    9.291699e-02
   7737.47    9.423893e-02
   7737.76    9.547469e-02
   7738.04    9.656167e-02
   7738.33    9.748038e-02
   7738.62    9.821734e-02
   7738.91    9.877404e-02
   7739.20    9.916464e-02
   7739.49    9.941254e-02
   7739.78    9.953947e-02
   7740.07    9.958081e-02
   7740.36    9.956819e-02
   7740.64    9.955558e-02
   7740.93    9.954296e-02
   7741.22    9.957303e-02
   7741.51    9.961591e-02
   7741.80    9.965878e-02
   7742.09    9.972452e-02
   7742.38    9.984167e-02
   7742.67    9.995883e-02
   7742.96    1.000760e-01
   7743.24    1.001373e-01
   7743.53    1.001884e-01
   7743.82    1.002395e-01
   7744.11    1.002025e-01
   7744.40    1.000246e-01
   7744.69    9.984671e-02
   7744.98    9.966880e-02
   7745.27    9.921251e-02
   7745.56    9.873303e-02
   7745.84    9.825355e-02
   7746.13    9.766124e-02
   7746.42    9.693730e-02
   7746.71    9.621336e-02
   7747.00    9.548942e-02
   7747.29    9.466215e-02
   7747.58    9.383488e-02
   7747.87    9.300762e-02
   7748.16    9.220041e-02
   7748.44    9.141040e-02
   7748.73    9.062038e-02
   7749.02    8.983890e-02
   7749.31    8.915979e-02
   7749.60    8.848068e-02
   7749.89    8.780157e-02
   7750.18    8.720012e-02
   7750.47    8.664722e-02
   7750.76    8.609431e-02
   7751.04    8.555800e-02
   7751.33    8.511297e-02
   7751.62    8.466794e-02
   7751.91    8.422291e-02
   7752.20    8.382825e-02
   7752.49    8.345597e-02
   7752.78    8.308369e-02
   7753.07    8.271957e-02
   7753.36    8.238262e-02
   7753.64    8.204567e-02
   7753.93    8.170872e-02
   7754.22    8.137596e-02
   7754.51    8.104447e-02
   7754.80    8.071297e-02
   7755.09    8.037771e-02
   7755.38    8.003397e-02
   7755.67    7.969023e-02
   7755.96    7.934649e-02
   7756.24    7.898884e-02
   7756.53    7.862866e-02
   7756.82    7.826848e-02
   7757.11    7.790574e-02
   7757.40    7.753890e-02
   7757.69    7.717207e-02
   7757.98    7.680523e-02
   7758.27    7.645558e-02
   7758.56    7.610736e-02
   7758.84    7.575914e-02
   7759.13    7.543784e-02
   7759.42    7.514797e-02
   7759.71    7.485810e-02
   7760.00    7.456822e-02
