 FDMNES
  energy    <xanes>
   7695.00    5.272914e-04
   7695.29    5.328723e-04
   7695.58    5.384531e-04
   7695.87    5.440340e-04
   7696.16    5.498228e-04
   7696.44    5.557898e-04
   7696.73    5.617568e-04
   7697.02    5.677566e-04
   7697.31    5.741503e-04
   7697.60    5.805439e-04
   7697.89    5.869375e-04
   7698.18    5.936221e-04
   7698.47    6.004885e-04
   7698.76    6.073550e-04
   7699.04    6.143024e-04
   7699.33    6.216948e-04
   7699.62    6.290872e-04
   7699.91    6.364796e-04
   7700.20    6.442785e-04
   7700.49    6.522581e-04
   7700.78    6.602377e-04
   7701.07    6.683692e-04
   7701.36    6.770070e-04
   7701.64    6.856449e-04
   7701.93    6.942828e-04
   7702.22    7.034908e-04
   7702.51    7.128698e-04
   7702.80    7.222488e-04
   7703.09    7.318859e-04
   7703.38    7.421034e-04
   7703.67    7.523209e-04
   7703.96    7.625385e-04
   7704.24    7.735628e-04
   7704.53    7.847337e-04
   7704.82    7.959047e-04
   7705.11    8.074951e-04
   7705.40    8.197564e-04
   7705.69    8.320176e-04
   7705.98    8.442789e-04
   7706.27    8.576982e-04
   7706.56    8.712140e-04
   7706.84    8.847297e-04
   7707.13    8.989162e-04
   7707.42    9.138851e-04
   7707.71    9.288540e-04
   7708.00    9.438229e-04
   7708.29    9.604877e-04
   7708.58    9.771525e-04
   7708.87    9.938173e-04
   7709.16    1.011557e-03
   7709.44    1.030217e-03
   7709.73    1.048878e-03
   7710.02    1.067721e-03
   7710.31    1.088752e-03
   7710.60    1.109784e-03
   7710.89    1.130815e-03
   7711.18    1.153598e-03
   7711.47    1.177475e-03
   7711.76    1.201352e-03
   7712.04    1.225761e-03
   7712.33    1.253096e-03
   7712.62    1.280431e-03
   7712.91    1.307765e-03
   7713.20    1.338049e-03
   7713.49    1.369643e-03
   7713.78    1.401237e-03
   7714.07    1.434061e-03
   7714.36    1.470987e-03
   7714.64    1.507912e-03
   7714.93    1.544838e-03
   7715.22    1.586997e-03
   7715.51    1.630727e-03
   7715.80    1.674456e-03
   7716.09    1.720919e-03
   7716.38    1.773532e-03
   7716.67    1.826146e-03
   7716.96    1.878759e-03
   7717.24    1.941473e-03
   7717.53    2.006023e-03
   7717.82    2.070573e-03
   7718.11    2.141520e-03
   7718.40    2.222702e-03
   7718.69    2.303884e-03
   7718.98    2.385066e-03
   7719.27    2.488700e-03
   7719.56    2.594205e-03
   7719.84    2.699710e-03
   7720.13    2.822787e-03
   7720.42    2.966367e-03
   7720.71    3.109946e-03
   7721.00    3.253525e-03
   7721.29    3.463194e-03
   7721.58    3.672863e-03
   7721.87    3.882533e-03
   7722.16    4.165755e-03
   7722.44    4.512023e-03
   7722.73    4.858291e-03
   7723.02    5.234761e-03
   7723.31    5.973661e-03
   7723.60    6.712561e-03
   7723.89    7.451461e-03
   7724.18    9.148446e-03
   7724.47    1.144423e-02
   7724.76    1.374002e-02
   7725.04    1.616187e-02
   7725.33    1.900184e-02
   7725.62    2.099418e-02
   7725.91    2.242201e-02
   7726.20    2.385736e-02
   7726.49    2.570432e-02
   7726.78    2.806857e-02
   7727.07    3.117547e-02
   7727.36    3.506375e-02
   7727.64    3.990757e-02
   7727.93    4.583756e-02
   7728.22    5.289841e-02
   7728.51    6.123392e-02
   7728.80    7.051467e-02
   7729.09    8.041301e-02
   7729.38    9.001705e-02
   7729.67    9.802365e-02
   7729.96    1.035315e-01
   7730.24    1.059931e-01
   7730.53    1.055806e-01
   7730.82    1.035550e-01
   7731.11    1.009788e-01
   7731.40    9.855071e-02
   7731.69    9.659539e-02
   7731.98    9.515766e-02
   7732.27    9.414680e-02
   7732.56    9.340558e-02
   7732.84    9.280207e-02
   7733.13    9.227942e-02
   7733.42    9.182458e-02
   7733.71    9.145798e-02
   7734.00    9.122075e-02
   7734.29    9.118726e-02
   7734.58    9.138119e-02
   7734.87    9.182794e-02
   7735.16    9.253471e-02
   7735.44    9.348938e-02
   7735.73    9.466125e-02
   7736.02    9.600998e-02
   7736.31    9.746042e-02
   7736.60    9.893143e-02
   7736.89    1.003474e-01
   7737.18    1.016368e-01
   7737.47    1.027389e-01
   7737.76    1.036060e-01
   7738.04    1.041949e-01
   7738.33    1.045369e-01
   7738.62    1.046587e-01
   7738.91    1.046010e-01
   7739.20    1.044116e-01
   7739.49    1.041399e-01
   7739.78    1.038303e-01
   7740.07    1.035406e-01
   7740.36    1.033197e-01
   7740.64    1.030989e-01
   7740.93    1.028780e-01
   7741.22    1.028118e-01
   7741.51    1.027920e-01
   7741.80    1.027721e-01
   7742.09    1.027764e-01
   7742.38    1.028348e-01
   7742.67    1.028932e-01
   7742.96    1.029517e-01
   7743.24    1.029054e-01
   7743.53    1.028400e-01
   7743.82    1.027747e-01
   7744.11    1.026078e-01
   7744.40    1.022785e-01
   7744.69    1.019492e-01
   7744.98    1.016199e-01
   7745.27    1.010340e-01
   7745.56    1.004267e-01
   7745.84    9.981937e-02
   7746.13    9.912872e-02
   7746.42    9.834081e-02
   7746.71    9.755291e-02
   7747.00    9.676500e-02
   7747.29    9.593517e-02
   7747.58    9.510534e-02
   7747.87    9.427551e-02
   7748.16    9.348200e-02
   7748.44    9.271963e-02
   7748.73    9.195725e-02
   7749.02    9.120407e-02
   7749.31    9.056119e-02
   7749.60    8.991831e-02
   7749.89    8.927543e-02
   7750.18    8.870778e-02
   7750.47    8.818716e-02
   7750.76    8.766653e-02
   7751.04    8.716005e-02
   7751.33    8.673135e-02
   7751.62    8.630266e-02
   7751.91    8.587396e-02
   7752.20    8.547933e-02
   7752.49    8.509983e-02
   7752.78    8.472033e-02
   7753.07    8.434238e-02
   7753.36    8.396962e-02
   7753.64    8.359685e-02
   7753.93    8.322408e-02
   7754.22    8.282840e-02
   7754.51    8.242585e-02
   7754.80    8.202330e-02
   7755.09    8.160382e-02
   7755.38    8.114622e-02
   7755.67    8.068862e-02
   7755.96    8.023102e-02
   7756.24    7.972054e-02
   7756.53    7.920044e-02
   7756.82    7.868035e-02
   7757.11    7.814299e-02
   7757.40    7.757801e-02
   7757.69    7.701302e-02
   7757.98    7.644804e-02
   7758.27    7.588736e-02
   7758.56    7.532704e-02
   7758.84    7.476672e-02
   7759.13    7.424506e-02
   7759.42    7.376849e-02
   7759.71    7.329192e-02
   7760.00    7.281536e-02
