 FDMNES
  energy    <xanes>
   7695.00    5.283919e-04
   7695.29    5.339363e-04
   7695.58    5.394807e-04
   7695.87    5.450252e-04
   7696.16    5.507740e-04
   7696.44    5.566980e-04
   7696.73    5.626221e-04
   7697.02    5.685783e-04
   7697.31    5.749213e-04
   7697.60    5.812642e-04
   7697.89    5.876072e-04
   7698.18    5.942355e-04
   7698.47    6.010423e-04
   7698.76    6.078490e-04
   7699.04    6.147350e-04
   7699.33    6.220569e-04
   7699.62    6.293788e-04
   7699.91    6.367007e-04
   7700.20    6.444203e-04
   7700.49    6.523166e-04
   7700.78    6.602129e-04
   7701.07    6.682576e-04
   7701.36    6.767969e-04
   7701.64    6.853362e-04
   7701.93    6.938755e-04
   7702.22    7.029708e-04
   7702.51    7.122329e-04
   7702.80    7.214950e-04
   7703.09    7.310082e-04
   7703.38    7.410865e-04
   7703.67    7.511649e-04
   7703.96    7.612432e-04
   7704.24    7.721054e-04
   7704.53    7.831101e-04
   7704.82    7.941149e-04
   7705.11    8.055262e-04
   7705.40    8.175881e-04
   7705.69    8.296500e-04
   7705.98    8.417119e-04
   7706.27    8.548939e-04
   7706.56    8.681694e-04
   7706.84    8.814448e-04
   7707.13    8.953674e-04
   7707.42    9.100450e-04
   7707.71    9.247226e-04
   7708.00    9.394002e-04
   7708.29    9.557097e-04
   7708.58    9.720192e-04
   7708.87    9.883287e-04
   7709.16    1.005669e-03
   7709.44    1.023893e-03
   7709.73    1.042117e-03
   7710.02    1.060515e-03
   7710.31    1.081005e-03
   7710.60    1.101495e-03
   7710.89    1.121985e-03
   7711.18    1.144143e-03
   7711.47    1.167342e-03
   7711.76    1.190542e-03
   7712.04    1.214246e-03
   7712.33    1.240723e-03
   7712.62    1.267199e-03
   7712.91    1.293676e-03
   7713.20    1.322934e-03
   7713.49    1.353427e-03
   7713.78    1.383920e-03
   7714.07    1.415566e-03
   7714.36    1.451057e-03
   7714.64    1.486548e-03
   7714.93    1.522039e-03
   7715.22    1.562401e-03
   7715.51    1.604224e-03
   7715.80    1.646047e-03
   7716.09    1.690394e-03
   7716.38    1.740416e-03
   7716.67    1.790439e-03
   7716.96    1.840461e-03
   7717.24    1.899709e-03
   7717.53    1.960635e-03
   7717.82    2.021560e-03
   7718.11    2.088252e-03
   7718.40    2.164172e-03
   7718.69    2.240091e-03
   7718.98    2.316010e-03
   7719.27    2.411825e-03
   7719.56    2.509298e-03
   7719.84    2.606770e-03
   7720.13    2.719447e-03
   7720.42    2.849861e-03
   7720.71    2.980276e-03
   7721.00    3.110690e-03
   7721.29    3.296276e-03
   7721.58    3.481861e-03
   7721.87    3.667447e-03
   7722.16    3.910936e-03
   7722.44    4.204057e-03
   7722.73    4.497178e-03
   7723.02    4.811772e-03
   7723.31    5.384048e-03
   7723.60    5.956323e-03
   7723.89    6.528598e-03
   7724.18    7.741981e-03
   7724.47    9.356056e-03
   7724.76    1.097013e-02
   7725.04    1.272591e-02
   7725.33    1.525695e-02
   7725.62    1.771143e-02
   7725.91    2.008496e-02
   7726.20    2.247815e-02
   7726.49    2.497678e-02
   7726.78    2.759603e-02
   7727.07    3.039046e-02
   7727.36    3.340117e-02
   7727.64    3.675819e-02
   7727.93    4.061991e-02
   7728.22    4.513011e-02
   7728.51    5.053209e-02
   7728.80    5.679270e-02
   7729.09    6.411327e-02
   7729.38    7.214672e-02
   7729.67    8.061252e-02
   7729.96    8.889973e-02
   7730.24    9.629578e-02
   7730.53    1.019243e-01
   7730.82    1.054679e-01
   7731.11    1.070141e-01
   7731.40    1.069832e-01
   7731.69    1.059505e-01
   7731.98    1.044401e-01
   7732.27    1.028131e-01
   7732.56    1.012630e-01
   7732.84    9.984176e-02
   7733.13    9.855992e-02
   7733.42    9.742730e-02
   7733.71    9.646898e-02
   7734.00    9.572453e-02
   7734.29    9.527220e-02
   7734.58    9.511707e-02
   7734.87    9.527305e-02
   7735.16    9.573365e-02
   7735.44    9.647175e-02
   7735.73    9.744108e-02
   7736.02    9.858514e-02
   7736.31    9.981366e-02
   7736.60    1.010362e-01
   7736.89    1.021724e-01
   7737.18    1.031515e-01
   7737.47    1.039187e-01
   7737.76    1.044363e-01
   7738.04    1.046744e-01
   7738.33    1.046771e-01
   7738.62    1.044805e-01
   7738.91    1.041321e-01
   7739.20    1.036850e-01
   7739.49    1.031918e-01
   7739.78    1.027039e-01
   7740.07    1.022975e-01
   7740.36    1.020477e-01
   7740.64    1.017980e-01
   7740.93    1.015483e-01
   7741.22    1.016330e-01
   7741.51    1.018180e-01
   7741.80    1.020030e-01
   7742.09    1.022898e-01
   7742.38    1.028053e-01
   7742.67    1.033209e-01
   7742.96    1.038364e-01
   7743.24    1.043831e-01
   7743.53    1.049355e-01
   7743.82    1.054879e-01
   7744.11    1.059250e-01
   7744.40    1.061778e-01
   7744.69    1.064305e-01
   7744.98    1.066832e-01
   7745.27    1.064542e-01
   7745.56    1.061851e-01
   7745.84    1.059160e-01
   7746.13    1.054120e-01
   7746.42    1.046338e-01
   7746.71    1.038557e-01
   7747.00    1.030776e-01
   7747.29    1.020113e-01
   7747.58    1.009451e-01
   7747.87    9.987890e-02
   7748.16    9.878866e-02
   7748.44    9.767785e-02
   7748.73    9.656703e-02
   7749.02    9.546479e-02
   7749.31    9.446549e-02
   7749.60    9.346618e-02
   7749.89    9.246687e-02
   7750.18    9.157234e-02
   7750.47    9.074329e-02
   7750.76    8.991425e-02
   7751.04    8.911003e-02
   7751.33    8.844242e-02
   7751.62    8.777480e-02
   7751.91    8.710718e-02
   7752.20    8.652224e-02
   7752.49    8.597403e-02
   7752.78    8.542582e-02
   7753.07    8.489336e-02
   7753.36    8.441338e-02
   7753.64    8.393340e-02
   7753.93    8.345342e-02
   7754.22    8.298996e-02
   7754.51    8.253145e-02
   7754.80    8.207295e-02
   7755.09    8.161038e-02
   7755.38    8.113866e-02
   7755.67    8.066693e-02
   7755.96    8.019521e-02
   7756.24    7.969761e-02
   7756.53    7.919531e-02
   7756.82    7.869301e-02
   7757.11    7.818110e-02
   7757.40    7.765382e-02
   7757.69    7.712654e-02
   7757.98    7.659926e-02
   7758.27    7.608185e-02
   7758.56    7.556526e-02
   7758.84    7.504868e-02
   7759.13    7.456761e-02
   7759.42    7.412799e-02
   7759.71    7.368837e-02
   7760.00    7.324874e-02
