 FDMNES
  energy    <xanes>
   7695.00    5.454890e-04
   7695.29    5.511789e-04
   7695.58    5.568689e-04
   7695.87    5.625588e-04
   7696.16    5.684591e-04
   7696.44    5.745396e-04
   7696.73    5.806202e-04
   7697.02    5.867340e-04
   7697.31    5.932460e-04
   7697.60    5.997579e-04
   7697.89    6.062699e-04
   7698.18    6.130760e-04
   7698.47    6.200660e-04
   7698.76    6.270559e-04
   7699.04    6.341276e-04
   7699.33    6.416490e-04
   7699.62    6.491703e-04
   7699.91    6.566917e-04
   7700.20    6.646236e-04
   7700.49    6.727380e-04
   7700.78    6.808525e-04
   7701.07    6.891203e-04
   7701.36    6.978993e-04
   7701.64    7.066783e-04
   7701.93    7.154573e-04
   7702.22    7.248116e-04
   7702.51    7.343385e-04
   7702.80    7.438655e-04
   7703.09    7.536526e-04
   7703.38    7.640253e-04
   7703.67    7.743980e-04
   7703.96    7.847707e-04
   7704.24    7.959569e-04
   7704.53    8.072909e-04
   7704.82    8.186249e-04
   7705.11    8.303815e-04
   7705.40    8.428142e-04
   7705.69    8.552470e-04
   7705.98    8.676798e-04
   7706.27    8.812789e-04
   7706.56    8.949753e-04
   7706.84    9.086717e-04
   7707.13    9.230432e-04
   7707.42    9.382026e-04
   7707.71    9.533619e-04
   7708.00    9.685213e-04
   7708.29    9.853871e-04
   7708.58    1.002253e-03
   7708.87    1.019119e-03
   7709.16    1.037065e-03
   7709.44    1.055938e-03
   7709.73    1.074811e-03
   7710.02    1.093868e-03
   7710.31    1.115124e-03
   7710.60    1.136379e-03
   7710.89    1.157635e-03
   7711.18    1.180650e-03
   7711.47    1.204765e-03
   7711.76    1.228879e-03
   7712.04    1.253528e-03
   7712.33    1.281113e-03
   7712.62    1.308698e-03
   7712.91    1.336283e-03
   7713.20    1.366826e-03
   7713.49    1.398683e-03
   7713.78    1.430541e-03
   7714.07    1.463631e-03
   7714.36    1.500832e-03
   7714.64    1.538033e-03
   7714.93    1.575234e-03
   7715.22    1.617675e-03
   7715.51    1.661688e-03
   7715.80    1.705701e-03
   7716.09    1.752447e-03
   7716.38    1.805344e-03
   7716.67    1.858241e-03
   7716.96    1.911138e-03
   7717.24    1.974120e-03
   7717.53    2.038934e-03
   7717.82    2.103749e-03
   7718.11    2.174935e-03
   7718.40    2.256317e-03
   7718.69    2.337699e-03
   7718.98    2.419082e-03
   7719.27    2.522748e-03
   7719.56    2.628272e-03
   7719.84    2.733795e-03
   7720.13    2.856649e-03
   7720.42    2.999720e-03
   7720.71    3.142792e-03
   7721.00    3.285863e-03
   7721.29    3.493283e-03
   7721.58    3.700702e-03
   7721.87    3.908122e-03
   7722.16    4.185159e-03
   7722.44    4.521869e-03
   7722.73    4.858578e-03
   7723.02    5.222104e-03
   7723.31    5.907416e-03
   7723.60    6.592728e-03
   7723.89    7.278041e-03
   7724.18    8.792806e-03
   7724.47    1.082598e-02
   7724.76    1.285916e-02
   7725.04    1.508104e-02
   7725.33    1.834314e-02
   7725.62    2.150188e-02
   7725.91    2.443007e-02
   7726.20    2.714678e-02
   7726.49    2.970179e-02
   7726.78    3.232117e-02
   7727.07    3.523475e-02
   7727.36    3.852274e-02
   7727.64    4.224720e-02
   7727.93    4.642109e-02
   7728.22    5.102783e-02
   7728.51    5.612849e-02
   7728.80    6.167287e-02
   7729.09    6.780760e-02
   7729.38    7.442823e-02
   7729.67    8.151408e-02
   7729.96    8.876955e-02
   7730.24    9.577513e-02
   7730.53    1.018660e-01
   7730.82    1.065384e-01
   7731.11    1.095164e-01
   7731.40    1.108097e-01
   7731.69    1.106877e-01
   7731.98    1.095522e-01
   7732.27    1.077970e-01
   7732.56    1.057867e-01
   7732.84    1.037682e-01
   7733.13    1.018721e-01
   7733.42    1.001735e-01
   7733.71    9.871351e-02
   7734.00    9.751478e-02
   7734.29    9.662349e-02
   7734.58    9.601130e-02
   7734.87    9.567337e-02
   7735.16    9.559646e-02
   7735.44    9.575835e-02
   7735.73    9.612741e-02
   7736.02    9.667029e-02
   7736.31    9.732595e-02
   7736.60    9.802922e-02
   7736.89    9.872195e-02
   7737.18    9.935007e-02
   7737.47    9.986916e-02
   7737.76    1.002464e-01
   7738.04    1.004564e-01
   7738.33    1.005221e-01
   7738.62    1.004658e-01
   7738.91    1.003185e-01
   7739.20    1.001158e-01
   7739.49    9.989262e-02
   7739.78    9.968314e-02
   7740.07    9.953520e-02
   7740.36    9.949383e-02
   7740.64    9.945246e-02
   7740.93    9.941109e-02
   7741.22    9.956309e-02
   7741.51    9.977311e-02
   7741.80    9.998312e-02
   7742.09    1.002365e-01
   7742.38    1.005875e-01
   7742.67    1.009385e-01
   7742.96    1.012894e-01
   7743.24    1.015948e-01
   7743.53    1.018918e-01
   7743.82    1.021888e-01
   7744.11    1.023954e-01
   7744.40    1.024575e-01
   7744.69    1.025195e-01
   7744.98    1.025815e-01
   7745.27    1.023411e-01
   7745.56    1.020756e-01
   7745.84    1.018100e-01
   7746.13    1.014057e-01
   7746.42    1.008395e-01
   7746.71    1.002734e-01
   7747.00    9.970718e-02
   7747.29    9.895395e-02
   7747.58    9.820071e-02
   7747.87    9.744748e-02
   7748.16    9.666970e-02
   7748.44    9.587087e-02
   7748.73    9.507204e-02
   7749.02    9.427868e-02
   7749.31    9.355098e-02
   7749.60    9.282327e-02
   7749.89    9.209557e-02
   7750.18    9.143853e-02
   7750.47    9.082565e-02
   7750.76    9.021277e-02
   7751.04    8.961662e-02
   7751.33    8.911253e-02
   7751.62    8.860844e-02
   7751.91    8.810435e-02
   7752.20    8.765692e-02
   7752.49    8.723469e-02
   7752.78    8.681245e-02
   7753.07    8.640094e-02
   7753.36    8.602520e-02
   7753.64    8.564946e-02
   7753.93    8.527372e-02
   7754.22    8.490749e-02
   7754.51    8.454411e-02
   7754.80    8.418073e-02
   7755.09    8.381323e-02
   7755.38    8.343645e-02
   7755.67    8.305968e-02
   7755.96    8.268291e-02
   7756.24    8.228411e-02
   7756.53    8.188130e-02
   7756.82    8.147849e-02
   7757.11    8.106757e-02
   7757.40    8.064368e-02
   7757.69    8.021979e-02
   7757.98    7.979590e-02
   7758.27    7.937903e-02
   7758.56    7.896275e-02
   7758.84    7.854648e-02
   7759.13    7.815859e-02
   7759.42    7.780384e-02
   7759.71    7.744909e-02
   7760.00    7.709434e-02
