 FDMNES
  energy    <xanes>
   7695.00    5.389413e-04
   7695.29    5.445220e-04
   7695.58    5.501026e-04
   7695.87    5.556833e-04
   7696.16    5.614687e-04
   7696.44    5.674295e-04
   7696.73    5.733904e-04
   7697.02    5.793835e-04
   7697.31    5.857637e-04
   7697.60    5.921440e-04
   7697.89    5.985243e-04
   7698.18    6.051903e-04
   7698.47    6.120348e-04
   7698.76    6.188794e-04
   7699.04    6.258033e-04
   7699.33    6.331636e-04
   7699.62    6.405239e-04
   7699.91    6.478842e-04
   7700.20    6.556425e-04
   7700.49    6.635777e-04
   7700.78    6.715130e-04
   7701.07    6.795967e-04
   7701.36    6.881754e-04
   7701.64    6.967541e-04
   7701.93    7.053329e-04
   7702.22    7.144680e-04
   7702.51    7.237700e-04
   7702.80    7.330721e-04
   7703.09    7.426254e-04
   7703.38    7.527443e-04
   7703.67    7.628631e-04
   7703.96    7.729819e-04
   7704.24    7.838851e-04
   7704.53    7.949308e-04
   7704.82    8.059766e-04
   7705.11    8.174292e-04
   7705.40    8.295326e-04
   7705.69    8.416361e-04
   7705.98    8.537396e-04
   7706.27    8.669638e-04
   7706.56    8.802814e-04
   7706.84    8.935989e-04
   7707.13    9.075640e-04
   7707.42    9.222843e-04
   7707.71    9.370047e-04
   7708.00    9.517250e-04
   7708.29    9.680779e-04
   7708.58    9.844307e-04
   7708.87    1.000784e-03
   7709.16    1.018168e-03
   7709.44    1.036435e-03
   7709.73    1.054703e-03
   7710.02    1.073146e-03
   7710.31    1.093680e-03
   7710.60    1.114215e-03
   7710.89    1.134750e-03
   7711.18    1.156952e-03
   7711.47    1.180197e-03
   7711.76    1.203442e-03
   7712.04    1.227192e-03
   7712.33    1.253715e-03
   7712.62    1.280238e-03
   7712.91    1.306761e-03
   7713.20    1.336065e-03
   7713.49    1.366605e-03
   7713.78    1.397145e-03
   7714.07    1.428838e-03
   7714.36    1.464377e-03
   7714.64    1.499915e-03
   7714.93    1.535454e-03
   7715.22    1.575864e-03
   7715.51    1.617735e-03
   7715.80    1.659607e-03
   7716.09    1.704001e-03
   7716.38    1.754073e-03
   7716.67    1.804144e-03
   7716.96    1.854215e-03
   7717.24    1.913512e-03
   7717.53    1.974486e-03
   7717.82    2.035460e-03
   7718.11    2.102201e-03
   7718.40    2.178170e-03
   7718.69    2.254139e-03
   7718.98    2.330108e-03
   7719.27    2.425977e-03
   7719.56    2.523505e-03
   7719.84    2.621032e-03
   7720.13    2.733775e-03
   7720.42    2.864269e-03
   7720.71    2.994764e-03
   7721.00    3.125258e-03
   7721.29    3.311045e-03
   7721.58    3.496832e-03
   7721.87    3.682619e-03
   7722.16    3.926654e-03
   7722.44    4.220614e-03
   7722.73    4.514574e-03
   7723.02    4.830344e-03
   7723.31    5.407825e-03
   7723.60    5.985307e-03
   7723.89    6.562788e-03
   7724.18    7.792595e-03
   7724.47    9.430105e-03
   7724.76    1.106761e-02
   7725.04    1.283742e-02
   7725.33    1.529974e-02
   7725.62    1.761304e-02
   7725.91    1.983520e-02
   7726.20    2.212181e-02
   7726.49    2.459726e-02
   7726.78    2.726560e-02
   7727.07    3.019988e-02
   7727.36    3.344068e-02
   7727.64    3.711960e-02
   7727.93    4.136439e-02
   7728.22    4.624534e-02
   7728.51    5.185838e-02
   7728.80    5.800612e-02
   7729.09    6.454094e-02
   7729.38    7.112604e-02
   7729.67    7.756754e-02
   7729.96    8.382151e-02
   7730.24    8.986803e-02
   7730.53    9.556072e-02
   7730.82    1.006586e-01
   7731.11    1.048517e-01
   7731.40    1.078604e-01
   7731.69    1.095365e-01
   7731.98    1.099117e-01
   7732.27    1.091501e-01
   7732.56    1.076132e-01
   7732.84    1.057207e-01
   7733.13    1.037663e-01
   7733.42    1.019641e-01
   7733.71    1.004506e-01
   7734.00    9.929894e-02
   7734.29    9.858008e-02
   7734.58    9.823559e-02
   7734.87    9.823222e-02
   7735.16    9.852425e-02
   7735.44    9.905783e-02
   7735.73    9.977376e-02
   7736.02    1.006130e-01
   7736.31    1.014994e-01
   7736.60    1.023641e-01
   7736.89    1.031474e-01
   7737.18    1.037976e-01
   7737.47    1.042739e-01
   7737.76    1.045460e-01
   7738.04    1.045860e-01
   7738.33    1.044238e-01
   7738.62    1.040814e-01
   7738.91    1.035907e-01
   7739.20    1.029890e-01
   7739.49    1.023149e-01
   7739.78    1.016054e-01
   7740.07    1.009165e-01
   7740.36    1.003041e-01
   7740.64    9.969164e-02
   7740.93    9.907922e-02
   7741.22    9.869941e-02
   7741.51    9.838937e-02
   7741.80    9.807934e-02
   7742.09    9.786515e-02
   7742.38    9.786661e-02
   7742.67    9.786808e-02
   7742.96    9.786955e-02
   7743.24    9.803026e-02
   7743.53    9.821993e-02
   7743.82    9.840959e-02
   7744.11    9.860282e-02
   7744.40    9.880174e-02
   7744.69    9.900066e-02
   7744.98    9.919958e-02
   7745.27    9.924093e-02
   7745.56    9.926915e-02
   7745.84    9.929737e-02
   7746.13    9.918997e-02
   7746.42    9.892436e-02
   7746.71    9.865875e-02
   7747.00    9.839313e-02
   7747.29    9.782035e-02
   7747.58    9.724757e-02
   7747.87    9.667478e-02
   7748.16    9.599423e-02
   7748.44    9.522131e-02
   7748.73    9.444838e-02
   7749.02    9.367235e-02
   7749.31    9.285894e-02
   7749.60    9.204554e-02
   7749.89    9.123214e-02
   7750.18    9.045889e-02
   7750.47    8.971072e-02
   7750.76    8.896256e-02
   7751.04    8.823035e-02
   7751.33    8.758593e-02
   7751.62    8.694150e-02
   7751.91    8.629707e-02
   7752.20    8.572429e-02
   7752.49    8.518335e-02
   7752.78    8.464240e-02
   7753.07    8.412119e-02
   7753.36    8.366574e-02
   7753.64    8.321029e-02
   7753.93    8.275484e-02
   7754.22    8.234745e-02
   7754.51    8.195447e-02
   7754.80    8.156150e-02
   7755.09    8.118128e-02
   7755.38    8.082978e-02
   7755.67    8.047828e-02
   7755.96    8.012678e-02
   7756.24    7.979762e-02
   7756.53    7.947252e-02
   7756.82    7.914742e-02
   7757.11    7.882997e-02
   7757.40    7.852478e-02
   7757.69    7.821958e-02
   7757.98    7.791438e-02
   7758.27    7.763317e-02
   7758.56    7.735395e-02
   7758.84    7.707473e-02
   7759.13    7.681765e-02
   7759.42    7.658639e-02
   7759.71    7.635513e-02
   7760.00    7.612386e-02
