 FDMNES
  energy    <xanes>
   7695.00    5.244121e-04
   7695.29    5.299547e-04
   7695.58    5.354973e-04
   7695.87    5.410400e-04
   7696.16    5.467884e-04
   7696.44    5.527134e-04
   7696.73    5.586383e-04
   7697.02    5.645958e-04
   7697.31    5.709430e-04
   7697.60    5.772902e-04
   7697.89    5.836374e-04
   7698.18    5.902724e-04
   7698.47    5.970874e-04
   7698.76    6.039024e-04
   7699.04    6.107975e-04
   7699.33    6.181326e-04
   7699.62    6.254677e-04
   7699.91    6.328028e-04
   7700.20    6.405398e-04
   7700.49    6.484554e-04
   7700.78    6.563709e-04
   7701.07    6.644366e-04
   7701.36    6.730025e-04
   7701.64    6.815684e-04
   7701.93    6.901343e-04
   7702.22    6.992632e-04
   7702.51    7.085609e-04
   7702.80    7.178587e-04
   7703.09    7.274110e-04
   7703.38    7.375362e-04
   7703.67    7.476614e-04
   7703.96    7.577866e-04
   7704.24    7.687074e-04
   7704.53    7.797728e-04
   7704.82    7.908383e-04
   7705.11    8.023170e-04
   7705.40    8.144568e-04
   7705.69    8.265967e-04
   7705.98    8.387366e-04
   7706.27    8.520167e-04
   7706.56    8.653917e-04
   7706.84    8.787668e-04
   7707.13    8.928017e-04
   7707.42    9.076063e-04
   7707.71    9.224109e-04
   7708.00    9.372155e-04
   7708.29    9.536867e-04
   7708.58    9.701580e-04
   7708.87    9.866293e-04
   7709.16    1.004155e-03
   7709.44    1.022586e-03
   7709.73    1.041016e-03
   7710.02    1.059625e-03
   7710.31    1.080380e-03
   7710.60    1.101135e-03
   7710.89    1.121889e-03
   7711.18    1.144358e-03
   7711.47    1.167899e-03
   7711.76    1.191439e-03
   7712.04    1.215499e-03
   7712.33    1.242418e-03
   7712.62    1.269338e-03
   7712.91    1.296257e-03
   7713.20    1.326051e-03
   7713.49    1.357124e-03
   7713.78    1.388197e-03
   7714.07    1.420466e-03
   7714.36    1.456726e-03
   7714.64    1.492985e-03
   7714.93    1.529244e-03
   7715.22    1.570579e-03
   7715.51    1.613436e-03
   7715.80    1.656294e-03
   7716.09    1.701792e-03
   7716.38    1.753231e-03
   7716.67    1.804670e-03
   7716.96    1.856109e-03
   7717.24    1.917253e-03
   7717.53    1.980162e-03
   7717.82    2.043071e-03
   7718.11    2.112082e-03
   7718.40    2.190856e-03
   7718.69    2.269630e-03
   7718.98    2.348403e-03
   7719.27    2.448363e-03
   7719.56    2.550088e-03
   7719.84    2.651813e-03
   7720.13    2.769837e-03
   7720.42    2.906877e-03
   7720.71    3.043917e-03
   7721.00    3.180956e-03
   7721.29    3.377515e-03
   7721.58    3.574074e-03
   7721.87    3.770633e-03
   7722.16    4.029893e-03
   7722.44    4.342897e-03
   7722.73    4.655901e-03
   7723.02    4.992076e-03
   7723.31    5.606308e-03
   7723.60    6.220540e-03
   7723.89    6.834771e-03
   7724.18    8.134639e-03
   7724.47    9.863029e-03
   7724.76    1.159142e-02
   7725.04    1.347442e-02
   7725.33    1.621864e-02
   7725.62    1.893960e-02
   7725.91    2.166877e-02
   7726.20    2.452819e-02
   7726.49    2.767245e-02
   7726.78    3.109722e-02
   7727.07    3.484611e-02
   7727.36    3.885873e-02
   7727.64    4.315849e-02
   7727.93    4.783714e-02
   7728.22    5.301770e-02
   7728.51    5.887232e-02
   7728.80    6.529115e-02
   7729.09    7.220007e-02
   7729.38    7.922329e-02
   7729.67    8.597880e-02
   7729.96    9.209487e-02
   7730.24    9.712930e-02
   7730.53    1.005300e-01
   7730.82    1.022141e-01
   7731.11    1.023687e-01
   7731.40    1.014074e-01
   7731.69    9.982706e-02
   7731.98    9.804487e-02
   7732.27    9.633498e-02
   7732.56    9.483358e-02
   7732.84    9.356600e-02
   7733.13    9.254168e-02
   7733.42    9.176736e-02
   7733.71    9.125247e-02
   7734.00    9.100903e-02
   7734.29    9.108405e-02
   7734.58    9.145160e-02
   7734.87    9.210870e-02
   7735.16    9.303929e-02
   7735.44    9.421200e-02
   7735.73    9.557933e-02
   7736.02    9.708220e-02
   7736.31    9.863117e-02
   7736.60    1.001381e-01
   7736.89    1.015241e-01
   7737.18    1.027211e-01
   7737.47    1.036788e-01
   7737.76    1.043643e-01
   7738.04    1.047520e-01
   7738.33    1.048923e-01
   7738.62    1.048242e-01
   7738.91    1.045968e-01
   7739.20    1.042636e-01
   7739.49    1.038766e-01
   7739.78    1.034842e-01
   7740.07    1.031515e-01
   7740.36    1.029382e-01
   7740.64    1.027248e-01
   7740.93    1.025114e-01
   7741.22    1.025389e-01
   7741.51    1.026386e-01
   7741.80    1.027382e-01
   7742.09    1.029015e-01
   7742.38    1.032079e-01
   7742.67    1.035143e-01
   7742.96    1.038207e-01
   7743.24    1.041147e-01
   7743.53    1.044066e-01
   7743.82    1.046984e-01
   7744.11    1.048920e-01
   7744.40    1.049286e-01
   7744.69    1.049652e-01
   7744.98    1.050018e-01
   7745.27    1.046528e-01
   7745.56    1.042718e-01
   7745.84    1.038907e-01
   7746.13    1.033208e-01
   7746.42    1.025304e-01
   7746.71    1.017400e-01
   7747.00    1.009496e-01
   7747.29    9.992103e-02
   7747.58    9.889246e-02
   7747.87    9.786390e-02
   7748.16    9.681995e-02
   7748.44    9.576281e-02
   7748.73    9.470568e-02
   7749.02    9.365687e-02
   7749.31    9.270802e-02
   7749.60    9.175917e-02
   7749.89    9.081031e-02
   7750.18    8.995491e-02
   7750.47    8.915792e-02
   7750.76    8.836093e-02
   7751.04    8.758425e-02
   7751.33    8.691928e-02
   7751.62    8.625431e-02
   7751.91    8.558935e-02
   7752.20    8.498701e-02
   7752.49    8.441251e-02
   7752.78    8.383800e-02
   7753.07    8.327506e-02
   7753.36    8.275063e-02
   7753.64    8.222620e-02
   7753.93    8.170176e-02
   7754.22    8.119147e-02
   7754.51    8.068542e-02
   7754.80    8.017937e-02
   7755.09    7.967308e-02
   7755.38    7.916623e-02
   7755.67    7.865939e-02
   7755.96    7.815255e-02
   7756.24    7.764184e-02
   7756.53    7.713044e-02
   7756.82    7.661903e-02
   7757.11    7.611090e-02
   7757.40    7.560801e-02
   7757.69    7.510512e-02
   7757.98    7.460223e-02
   7758.27    7.413549e-02
   7758.56    7.367176e-02
   7758.84    7.320803e-02
   7759.13    7.278325e-02
   7759.42    7.240390e-02
   7759.71    7.202455e-02
   7760.00    7.164521e-02
