 FDMNES
  energy    <xanes>
   7695.00    5.421711e-04
   7695.29    5.478786e-04
   7695.58    5.535860e-04
   7695.87    5.592935e-04
   7696.16    5.652137e-04
   7696.44    5.713161e-04
   7696.73    5.774185e-04
   7697.02    5.835545e-04
   7697.31    5.900933e-04
   7697.60    5.966321e-04
   7697.89    6.031710e-04
   7698.18    6.100075e-04
   7698.47    6.170301e-04
   7698.76    6.240527e-04
   7699.04    6.311581e-04
   7699.33    6.387189e-04
   7699.62    6.462797e-04
   7699.91    6.538405e-04
   7700.20    6.618174e-04
   7700.49    6.699792e-04
   7700.78    6.781409e-04
   7701.07    6.864582e-04
   7701.36    6.952938e-04
   7701.64    7.041295e-04
   7701.93    7.129651e-04
   7702.22    7.223844e-04
   7702.51    7.319788e-04
   7702.80    7.415732e-04
   7703.09    7.514318e-04
   7703.38    7.618848e-04
   7703.67    7.723377e-04
   7703.96    7.827907e-04
   7704.24    7.940697e-04
   7704.53    8.054990e-04
   7704.82    8.169283e-04
   7705.11    8.287870e-04
   7705.40    8.413328e-04
   7705.69    8.538786e-04
   7705.98    8.664244e-04
   7706.27    8.801559e-04
   7706.56    8.939863e-04
   7706.84    9.078167e-04
   7707.13    9.223337e-04
   7707.42    9.376519e-04
   7707.71    9.529701e-04
   7708.00    9.682883e-04
   7708.29    9.853424e-04
   7708.58    1.002397e-03
   7708.87    1.019451e-03
   7709.16    1.037604e-03
   7709.44    1.056701e-03
   7709.73    1.075797e-03
   7710.02    1.095079e-03
   7710.31    1.116600e-03
   7710.60    1.138120e-03
   7710.89    1.159640e-03
   7711.18    1.182950e-03
   7711.47    1.207377e-03
   7711.76    1.231805e-03
   7712.04    1.256775e-03
   7712.33    1.284729e-03
   7712.62    1.312684e-03
   7712.91    1.340638e-03
   7713.20    1.371595e-03
   7713.49    1.403886e-03
   7713.78    1.436177e-03
   7714.07    1.469718e-03
   7714.36    1.507423e-03
   7714.64    1.545128e-03
   7714.93    1.582833e-03
   7715.22    1.625832e-03
   7715.51    1.670419e-03
   7715.80    1.715006e-03
   7716.09    1.762343e-03
   7716.38    1.815868e-03
   7716.67    1.869393e-03
   7716.96    1.922918e-03
   7717.24    1.986525e-03
   7717.53    2.051966e-03
   7717.82    2.117407e-03
   7718.11    2.189163e-03
   7718.40    2.271021e-03
   7718.69    2.352879e-03
   7718.98    2.434736e-03
   7719.27    2.538383e-03
   7719.56    2.643846e-03
   7719.84    2.749308e-03
   7720.13    2.871378e-03
   7720.42    3.012824e-03
   7720.71    3.154269e-03
   7721.00    3.295715e-03
   7721.29    3.496960e-03
   7721.58    3.698204e-03
   7721.87    3.899449e-03
   7722.16    4.162376e-03
   7722.44    4.478175e-03
   7722.73    4.793973e-03
   7723.02    5.131895e-03
   7723.31    5.735300e-03
   7723.60    6.338704e-03
   7723.89    6.942108e-03
   7724.18    8.181737e-03
   7724.47    9.819006e-03
   7724.76    1.145628e-02
   7725.04    1.323656e-02
   7725.33    1.581606e-02
   7725.62    1.838615e-02
   7725.91    2.100117e-02
   7726.20    2.381118e-02
   7726.49    2.703896e-02
   7726.78    3.066968e-02
   7727.07    3.472543e-02
   7727.36    3.907589e-02
   7727.64    4.371201e-02
   7727.93    4.874418e-02
   7728.22    5.435611e-02
   7728.51    6.081018e-02
   7728.80    6.801100e-02
   7729.09    7.593313e-02
   7729.38    8.421654e-02
   7729.67    9.277983e-02
   7729.96    1.015023e-01
   7730.24    1.100945e-01
   7730.53    1.177607e-01
   7730.82    1.236205e-01
   7731.11    1.270476e-01
   7731.40    1.278815e-01
   7731.69    1.264299e-01
   7731.98    1.232734e-01
   7732.27    1.190396e-01
   7732.56    1.143751e-01
   7732.84    1.097572e-01
   7733.13    1.054545e-01
   7733.42    1.016165e-01
   7733.71    9.831081e-02
   7734.00    9.555581e-02
   7734.29    9.340768e-02
   7734.58    9.177987e-02
   7734.87    9.064344e-02
   7735.16    8.996130e-02
   7735.44    8.968781e-02
   7735.73    8.976889e-02
   7736.02    9.015759e-02
   7736.31    9.076943e-02
   7736.60    9.151623e-02
   7736.89    9.232374e-02
   7737.18    9.312137e-02
   7737.47    9.384693e-02
   7737.76    9.444861e-02
   7738.04    9.487908e-02
   7738.33    9.514285e-02
   7738.62    9.524863e-02
   7738.91    9.521951e-02
   7739.20    9.508856e-02
   7739.49    9.489395e-02
   7739.78    9.467533e-02
   7740.07    9.449654e-02
   7740.36    9.442150e-02
   7740.64    9.434645e-02
   7740.93    9.427141e-02
   7741.22    9.445895e-02
   7741.51    9.472526e-02
   7741.80    9.499157e-02
   7742.09    9.534022e-02
   7742.38    9.587414e-02
   7742.67    9.640806e-02
   7742.96    9.694198e-02
   7743.24    9.749000e-02
   7743.53    9.804059e-02
   7743.82    9.859118e-02
   7744.11    9.904432e-02
   7744.40    9.934154e-02
   7744.69    9.963875e-02
   7744.98    9.993597e-02
   7745.27    9.986660e-02
   7745.56    9.976667e-02
   7745.84    9.966675e-02
   7746.13    9.940251e-02
   7746.42    9.894658e-02
   7746.71    9.849065e-02
   7747.00    9.803472e-02
   7747.29    9.737231e-02
   7747.58    9.670990e-02
   7747.87    9.604748e-02
   7748.16    9.535160e-02
   7748.44    9.462703e-02
   7748.73    9.390245e-02
   7749.02    9.318060e-02
   7749.31    9.249141e-02
   7749.60    9.180223e-02
   7749.89    9.111304e-02
   7750.18    9.047916e-02
   7750.47    8.987984e-02
   7750.76    8.928052e-02
   7751.04    8.869645e-02
   7751.33    8.819627e-02
   7751.62    8.769610e-02
   7751.91    8.719592e-02
   7752.20    8.674940e-02
   7752.49    8.632672e-02
   7752.78    8.590405e-02
   7753.07    8.549121e-02
   7753.36    8.511111e-02
   7753.64    8.473101e-02
   7753.93    8.435092e-02
   7754.22    8.397589e-02
   7754.51    8.360238e-02
   7754.80    8.322887e-02
   7755.09    8.284895e-02
   7755.38    8.245463e-02
   7755.67    8.206031e-02
   7755.96    8.166599e-02
   7756.24    8.124421e-02
   7756.53    8.081745e-02
   7756.82    8.039069e-02
   7757.11    7.995510e-02
   7757.40    7.950539e-02
   7757.69    7.905569e-02
   7757.98    7.860598e-02
   7758.27    7.816724e-02
   7758.56    7.772941e-02
   7758.84    7.729158e-02
   7759.13    7.688559e-02
   7759.42    7.651676e-02
   7759.71    7.614793e-02
   7760.00    7.577910e-02
