 FDMNES
  energy    <xanes>
   7695.00    5.198185e-04
   7695.29    5.254640e-04
   7695.58    5.311094e-04
   7695.87    5.367548e-04
   7696.16    5.426147e-04
   7696.44    5.486583e-04
   7696.73    5.547019e-04
   7697.02    5.607794e-04
   7697.31    5.672634e-04
   7697.60    5.737474e-04
   7697.89    5.802315e-04
   7698.18    5.870163e-04
   7698.47    5.939891e-04
   7698.76    6.009619e-04
   7699.04    6.080185e-04
   7699.33    6.155357e-04
   7699.62    6.230529e-04
   7699.91    6.305701e-04
   7700.20    6.385086e-04
   7700.49    6.466343e-04
   7700.78    6.547601e-04
   7701.07    6.630435e-04
   7701.36    6.718523e-04
   7701.64    6.806612e-04
   7701.93    6.894700e-04
   7702.22    6.988713e-04
   7702.51    7.084503e-04
   7702.80    7.180293e-04
   7703.09    7.278767e-04
   7703.38    7.383280e-04
   7703.67    7.487793e-04
   7703.96    7.592306e-04
   7704.24    7.705223e-04
   7704.53    7.819668e-04
   7704.82    7.934113e-04
   7705.11    8.052932e-04
   7705.40    8.178748e-04
   7705.69    8.304564e-04
   7705.98    8.430380e-04
   7706.27    8.568287e-04
   7706.56    8.707202e-04
   7706.84    8.846116e-04
   7707.13    8.992041e-04
   7707.42    9.146144e-04
   7707.71    9.300247e-04
   7708.00    9.454350e-04
   7708.29    9.626197e-04
   7708.58    9.798043e-04
   7708.87    9.969889e-04
   7709.16    1.015299e-03
   7709.44    1.034573e-03
   7709.73    1.053847e-03
   7710.02    1.073313e-03
   7710.31    1.095071e-03
   7710.60    1.116829e-03
   7710.89    1.138587e-03
   7711.18    1.162180e-03
   7711.47    1.186921e-03
   7711.76    1.211661e-03
   7712.04    1.236959e-03
   7712.33    1.265323e-03
   7712.62    1.293687e-03
   7712.91    1.322050e-03
   7713.20    1.353502e-03
   7713.49    1.386327e-03
   7713.78    1.419151e-03
   7714.07    1.453262e-03
   7714.36    1.491663e-03
   7714.64    1.530065e-03
   7714.93    1.568466e-03
   7715.22    1.612329e-03
   7715.51    1.657831e-03
   7715.80    1.703333e-03
   7716.09    1.751678e-03
   7716.38    1.806419e-03
   7716.67    1.861160e-03
   7716.96    1.915900e-03
   7717.24    1.981087e-03
   7717.53    2.048173e-03
   7717.82    2.115259e-03
   7718.11    2.188906e-03
   7718.40    2.273050e-03
   7718.69    2.357193e-03
   7718.98    2.441337e-03
   7719.27    2.548212e-03
   7719.56    2.656982e-03
   7719.84    2.765752e-03
   7720.13    2.891956e-03
   7720.42    3.038501e-03
   7720.71    3.185045e-03
   7721.00    3.331590e-03
   7721.29    3.541558e-03
   7721.58    3.751526e-03
   7721.87    3.961494e-03
   7722.16    4.238094e-03
   7722.44    4.571807e-03
   7722.73    4.905520e-03
   7723.02    5.263950e-03
   7723.31    5.918987e-03
   7723.60    6.574023e-03
   7723.89    7.229060e-03
   7724.18    8.620206e-03
   7724.47    1.047142e-02
   7724.76    1.232264e-02
   7725.04    1.433145e-02
   7725.33    1.718442e-02
   7725.62    1.988913e-02
   7725.91    2.243276e-02
   7726.20    2.497227e-02
   7726.49    2.770386e-02
   7726.78    3.074352e-02
   7727.07    3.428599e-02
   7727.36    3.837317e-02
   7727.64    4.310406e-02
   7727.93    4.853250e-02
   7728.22    5.467294e-02
   7728.51    6.166077e-02
   7728.80    6.940217e-02
   7729.09    7.805034e-02
   7729.38    8.731447e-02
   7729.67    9.693674e-02
   7729.96    1.063215e-01
   7730.24    1.147394e-01
   7730.53    1.212690e-01
   7730.82    1.255349e-01
   7731.11    1.275299e-01
   7731.40    1.275622e-01
   7731.69    1.261147e-01
   7731.98    1.236715e-01
   7732.27    1.206167e-01
   7732.56    1.172869e-01
   7732.84    1.139380e-01
   7733.13    1.107376e-01
   7733.42    1.078089e-01
   7733.71    1.052357e-01
   7734.00    1.030674e-01
   7734.29    1.013734e-01
   7734.58    1.000924e-01
   7734.87    9.919288e-02
   7735.16    9.862767e-02
   7735.44    9.833784e-02
   7735.73    9.825633e-02
   7736.02    9.831657e-02
   7736.31    9.843711e-02
   7736.60    9.855143e-02
   7736.89    9.861272e-02
   7737.18    9.859095e-02
   7737.47    9.847411e-02
   7737.76    9.826582e-02
   7738.04    9.798185e-02
   7738.33    9.765971e-02
   7738.62    9.733027e-02
   7738.91    9.702270e-02
   7739.20    9.676166e-02
   7739.49    9.656560e-02
   7739.78    9.645294e-02
   7740.07    9.644385e-02
   7740.36    9.655557e-02
   7740.64    9.666729e-02
   7740.93    9.677900e-02
   7741.22    9.698845e-02
   7741.51    9.722722e-02
   7741.80    9.746599e-02
   7742.09    9.767457e-02
   7742.38    9.781523e-02
   7742.67    9.795589e-02
   7742.96    9.809654e-02
   7743.24    9.798936e-02
   7743.53    9.783711e-02
   7743.82    9.768486e-02
   7744.11    9.739758e-02
   7744.40    9.689423e-02
   7744.69    9.639088e-02
   7744.98    9.588753e-02
   7745.27    9.512970e-02
   7745.56    9.435067e-02
   7745.84    9.357164e-02
   7746.13    9.273215e-02
   7746.42    9.182212e-02
   7746.71    9.091210e-02
   7747.00    9.000207e-02
   7747.29    8.910403e-02
   7747.58    8.820599e-02
   7747.87    8.730796e-02
   7748.16    8.646809e-02
   7748.44    8.567809e-02
   7748.73    8.488808e-02
   7749.02    8.410941e-02
   7749.31    8.346668e-02
   7749.60    8.282394e-02
   7749.89    8.218121e-02
   7750.18    8.162571e-02
   7750.47    8.112473e-02
   7750.76    8.062375e-02
   7751.04    8.013961e-02
   7751.33    7.974807e-02
   7751.62    7.935653e-02
   7751.91    7.896499e-02
   7752.20    7.861888e-02
   7752.49    7.829296e-02
   7752.78    7.796704e-02
   7753.07    7.764593e-02
   7753.36    7.734089e-02
   7753.64    7.703584e-02
   7753.93    7.673079e-02
   7754.22    7.641206e-02
   7754.51    7.608922e-02
   7754.80    7.576638e-02
   7755.09    7.542978e-02
   7755.38    7.506220e-02
   7755.67    7.469463e-02
   7755.96    7.432705e-02
   7756.24    7.391337e-02
   7756.53    7.349131e-02
   7756.82    7.306926e-02
   7757.11    7.263126e-02
   7757.40    7.216776e-02
   7757.69    7.170427e-02
   7757.98    7.124077e-02
   7758.27    7.077729e-02
   7758.56    7.031382e-02
   7758.84    6.985035e-02
   7759.13    6.941793e-02
   7759.42    6.902174e-02
   7759.71    6.862555e-02
   7760.00    6.822935e-02
