 FDMNES
  energy    <xanes>
   7695.00    5.254607e-04
   7695.29    5.312461e-04
   7695.58    5.370315e-04
   7695.87    5.428169e-04
   7696.16    5.488251e-04
   7696.44    5.550243e-04
   7696.73    5.612234e-04
   7697.02    5.674579e-04
   7697.31    5.741153e-04
   7697.60    5.807728e-04
   7697.89    5.874302e-04
   7698.18    5.944012e-04
   7698.47    6.015680e-04
   7698.76    6.087348e-04
   7699.04    6.159891e-04
   7699.33    6.237241e-04
   7699.62    6.314591e-04
   7699.91    6.391941e-04
   7700.20    6.473696e-04
   7700.49    6.557409e-04
   7700.78    6.641122e-04
   7701.07    6.726485e-04
   7701.36    6.817353e-04
   7701.64    6.908220e-04
   7701.93    6.999087e-04
   7702.22    7.096171e-04
   7702.51    7.195120e-04
   7702.80    7.294069e-04
   7703.09    7.395840e-04
   7703.38    7.503962e-04
   7703.67    7.612085e-04
   7703.96    7.720207e-04
   7704.24    7.837187e-04
   7704.53    7.955777e-04
   7704.82    8.074367e-04
   7705.11    8.197577e-04
   7705.40    8.328181e-04
   7705.69    8.458785e-04
   7705.98    8.589388e-04
   7706.27    8.732800e-04
   7706.56    8.877279e-04
   7706.84    9.021758e-04
   7707.13    9.173684e-04
   7707.42    9.334299e-04
   7707.71    9.494915e-04
   7708.00    9.655530e-04
   7708.29    9.835054e-04
   7708.58    1.001458e-03
   7708.87    1.019410e-03
   7709.16    1.038566e-03
   7709.44    1.058753e-03
   7709.73    1.078941e-03
   7710.02    1.099333e-03
   7710.31    1.122186e-03
   7710.60    1.145040e-03
   7710.89    1.167894e-03
   7711.18    1.192726e-03
   7711.47    1.218795e-03
   7711.76    1.244863e-03
   7712.04    1.271536e-03
   7712.33    1.301529e-03
   7712.62    1.331522e-03
   7712.91    1.361516e-03
   7713.20    1.394871e-03
   7713.49    1.429721e-03
   7713.78    1.464572e-03
   7714.07    1.500831e-03
   7714.36    1.541790e-03
   7714.64    1.582749e-03
   7714.93    1.623708e-03
   7715.22    1.670690e-03
   7715.51    1.719478e-03
   7715.80    1.768267e-03
   7716.09    1.820214e-03
   7716.38    1.879268e-03
   7716.67    1.938322e-03
   7716.96    1.997377e-03
   7717.24    2.068140e-03
   7717.53    2.141032e-03
   7717.82    2.213925e-03
   7718.11    2.294246e-03
   7718.40    2.386453e-03
   7718.69    2.478660e-03
   7718.98    2.570868e-03
   7719.27    2.689118e-03
   7719.56    2.809538e-03
   7719.84    2.929959e-03
   7720.13    3.070624e-03
   7720.42    3.234908e-03
   7720.71    3.399192e-03
   7721.00    3.563476e-03
   7721.29    3.802515e-03
   7721.58    4.041555e-03
   7721.87    4.280595e-03
   7722.16    4.599329e-03
   7722.44    4.986373e-03
   7722.73    5.373416e-03
   7723.02    5.790252e-03
   7723.31    6.564589e-03
   7723.60    7.338926e-03
   7723.89    8.113264e-03
   7724.18    9.776989e-03
   7724.47    1.199658e-02
   7724.76    1.421617e-02
   7725.04    1.664333e-02
   7725.33    2.026281e-02
   7725.62    2.397408e-02
   7725.91    2.773362e-02
   7726.20    3.145739e-02
   7726.49    3.503411e-02
   7726.78    3.858274e-02
   7727.07    4.242488e-02
   7727.36    4.684213e-02
   7727.64    5.206142e-02
   7727.93    5.810851e-02
   7728.22    6.488267e-02
   7728.51    7.244463e-02
   7728.80    8.071767e-02
   7729.09    8.985452e-02
   7729.38    9.950444e-02
   7729.67    1.092421e-01
   7729.96    1.183585e-01
   7730.24    1.259989e-01
   7730.53    1.311476e-01
   7730.82    1.335616e-01
   7731.11    1.334311e-01
   7731.40    1.312746e-01
   7731.69    1.277532e-01
   7731.98    1.234815e-01
   7732.27    1.189500e-01
   7732.56    1.145419e-01
   7732.84    1.104734e-01
   7733.13    1.068649e-01
   7733.42    1.037756e-01
   7733.71    1.012229e-01
   7734.00    9.919661e-02
   7734.29    9.772138e-02
   7734.58    9.668808e-02
   7734.87    9.603841e-02
   7735.16    9.570420e-02
   7735.44    9.560887e-02
   7735.73    9.566983e-02
   7736.02    9.580179e-02
   7736.31    9.591325e-02
   7736.60    9.593745e-02
   7736.89    9.583130e-02
   7737.18    9.557636e-02
   7737.47    9.517893e-02
   7737.76    9.466488e-02
   7738.04    9.407493e-02
   7738.33    9.346708e-02
   7738.62    9.288509e-02
   7738.91    9.236529e-02
   7739.20    9.193461e-02
   7739.49    9.161038e-02
   7739.78    9.141111e-02
   7740.07    9.136115e-02
   7740.36    9.148670e-02
   7740.64    9.161225e-02
   7740.93    9.173780e-02
   7741.22    9.205234e-02
   7741.51    9.242357e-02
   7741.80    9.279480e-02
   7742.09    9.317920e-02
   7742.38    9.359326e-02
   7742.67    9.400732e-02
   7742.96    9.442138e-02
   7743.24    9.470557e-02
   7743.53    9.496616e-02
   7743.82    9.522674e-02
   7744.11    9.537411e-02
   7744.40    9.534035e-02
   7744.69    9.530658e-02
   7744.98    9.527282e-02
   7745.27    9.493363e-02
   7745.56    9.456899e-02
   7745.84    9.420435e-02
   7746.13    9.372201e-02
   7746.42    9.310236e-02
   7746.71    9.248271e-02
   7747.00    9.186305e-02
   7747.29    9.112442e-02
   7747.58    9.038579e-02
   7747.87    8.964716e-02
   7748.16    8.891235e-02
   7748.44    8.818080e-02
   7748.73    8.744926e-02
   7749.02    8.672393e-02
   7749.31    8.607306e-02
   7749.60    8.542219e-02
   7749.89    8.477132e-02
   7750.18    8.418070e-02
   7750.47    8.362775e-02
   7750.76    8.307480e-02
   7751.04    8.253377e-02
   7751.33    8.205836e-02
   7751.62    8.158294e-02
   7751.91    8.110752e-02
   7752.20    8.066053e-02
   7752.49    8.022618e-02
   7752.78    7.979183e-02
   7753.07    7.935840e-02
   7753.36    7.892802e-02
   7753.64    7.849765e-02
   7753.93    7.806728e-02
   7754.22    7.761798e-02
   7754.51    7.716300e-02
   7754.80    7.670802e-02
   7755.09    7.624106e-02
   7755.38    7.574714e-02
   7755.67    7.525322e-02
   7755.96    7.475930e-02
   7756.24    7.423587e-02
   7756.53    7.370707e-02
   7756.82    7.317828e-02
   7757.11    7.264564e-02
   7757.40    7.210685e-02
   7757.69    7.156807e-02
   7757.98    7.102928e-02
   7758.27    7.052316e-02
   7758.56    7.001976e-02
   7758.84    6.951637e-02
   7759.13    6.905575e-02
   7759.42    6.864504e-02
   7759.71    6.823433e-02
   7760.00    6.782362e-02
