 FDMNES
  energy    <xanes>
   7695.00    5.367381e-04
   7695.29    5.423756e-04
   7695.58    5.480132e-04
   7695.87    5.536507e-04
   7696.16    5.594974e-04
   7696.44    5.655234e-04
   7696.73    5.715493e-04
   7697.02    5.776083e-04
   7697.31    5.840632e-04
   7697.60    5.905181e-04
   7697.89    5.969730e-04
   7698.18    6.037203e-04
   7698.47    6.106505e-04
   7698.76    6.175807e-04
   7699.04    6.245921e-04
   7699.33    6.320508e-04
   7699.62    6.395094e-04
   7699.91    6.469680e-04
   7700.20    6.548349e-04
   7700.49    6.628833e-04
   7700.78    6.709316e-04
   7701.07    6.791325e-04
   7701.36    6.878417e-04
   7701.64    6.965509e-04
   7701.93    7.052601e-04
   7702.22    7.145414e-04
   7702.51    7.239943e-04
   7702.80    7.334471e-04
   7703.09    7.431588e-04
   7703.38    7.534525e-04
   7703.67    7.637462e-04
   7703.96    7.740399e-04
   7704.24    7.851422e-04
   7704.53    7.963914e-04
   7704.82    8.076407e-04
   7705.11    8.193098e-04
   7705.40    8.316509e-04
   7705.69    8.439920e-04
   7705.98    8.563331e-04
   7706.27    8.698329e-04
   7706.56    8.834292e-04
   7706.84    8.970254e-04
   7707.13    9.112921e-04
   7707.42    9.263410e-04
   7707.71    9.413898e-04
   7708.00    9.564386e-04
   7708.29    9.731807e-04
   7708.58    9.899228e-04
   7708.87    1.006665e-03
   7709.16    1.024479e-03
   7709.44    1.043211e-03
   7709.73    1.061943e-03
   7710.02    1.080856e-03
   7710.31    1.101948e-03
   7710.60    1.123040e-03
   7710.89    1.144132e-03
   7711.18    1.166964e-03
   7711.47    1.190884e-03
   7711.76    1.214803e-03
   7712.04    1.239250e-03
   7712.33    1.266596e-03
   7712.62    1.293942e-03
   7712.91    1.321289e-03
   7713.20    1.351549e-03
   7713.49    1.383104e-03
   7713.78    1.414659e-03
   7714.07    1.447426e-03
   7714.36    1.484231e-03
   7714.64    1.521036e-03
   7714.93    1.557841e-03
   7715.22    1.599775e-03
   7715.51    1.643247e-03
   7715.80    1.686719e-03
   7716.09    1.732854e-03
   7716.38    1.784980e-03
   7716.67    1.837106e-03
   7716.96    1.889232e-03
   7717.24    1.951116e-03
   7717.53    2.014775e-03
   7717.82    2.078435e-03
   7718.11    2.148207e-03
   7718.40    2.227760e-03
   7718.69    2.307313e-03
   7718.98    2.386866e-03
   7719.27    2.487543e-03
   7719.56    2.589980e-03
   7719.84    2.692417e-03
   7720.13    2.811008e-03
   7720.42    2.948447e-03
   7720.71    3.085885e-03
   7721.00    3.223324e-03
   7721.29    3.419340e-03
   7721.58    3.615356e-03
   7721.87    3.811372e-03
   7722.16    4.068684e-03
   7722.44    4.378534e-03
   7722.73    4.688384e-03
   7723.02    5.020845e-03
   7723.31    5.624630e-03
   7723.60    6.228415e-03
   7723.89    6.832200e-03
   7724.18    8.106124e-03
   7724.47    9.798887e-03
   7724.76    1.149165e-02
   7725.04    1.332935e-02
   7725.33    1.595088e-02
   7725.62    1.846669e-02
   7725.91    2.087951e-02
   7726.20    2.331229e-02
   7726.49    2.588744e-02
   7726.78    2.865923e-02
   7727.07    3.177050e-02
   7727.36    3.531887e-02
   7727.64    3.950864e-02
   7727.93    4.452810e-02
   7728.22    5.049386e-02
   7728.51    5.760757e-02
   7728.80    6.566048e-02
   7729.09    7.457213e-02
   7729.38    8.373487e-02
   7729.67    9.252232e-02
   7729.96    1.003694e-01
   7730.24    1.067750e-01
   7730.53    1.112668e-01
   7730.82    1.138742e-01
   7731.11    1.147267e-01
   7731.40    1.140642e-01
   7731.69    1.122299e-01
   7731.98    1.096263e-01
   7732.27    1.066637e-01
   7732.56    1.037414e-01
   7732.84    1.011204e-01
   7733.13    9.894592e-02
   7733.42    9.728425e-02
   7733.71    9.614689e-02
   7734.00    9.550994e-02
   7734.29    9.537276e-02
   7734.58    9.561068e-02
   7734.87    9.614780e-02
   7735.16    9.690170e-02
   7735.44    9.778666e-02
   7735.73    9.871732e-02
   7736.02    9.960514e-02
   7736.31    1.003696e-01
   7736.60    1.009576e-01
   7736.89    1.013300e-01
   7737.18    1.014660e-01
   7737.47    1.013631e-01
   7737.76    1.010326e-01
   7738.04    1.004921e-01
   7738.33    9.980593e-02
   7738.62    9.902132e-02
   7738.91    9.818647e-02
   7739.20    9.734722e-02
   7739.49    9.654413e-02
   7739.78    9.581872e-02
   7740.07    9.523557e-02
   7740.36    9.486339e-02
   7740.64    9.449121e-02
   7740.93    9.411903e-02
   7741.22    9.412526e-02
   7741.51    9.424502e-02
   7741.80    9.436478e-02
   7742.09    9.460981e-02
   7742.38    9.513672e-02
   7742.67    9.566362e-02
   7742.96    9.619052e-02
   7743.24    9.687943e-02
   7743.53    9.759780e-02
   7743.82    9.831617e-02
   7744.11    9.899497e-02
   7744.40    9.961046e-02
   7744.69    1.002259e-01
   7744.98    1.008414e-01
   7745.27    1.010959e-01
   7745.56    1.013203e-01
   7745.84    1.015447e-01
   7746.13    1.015248e-01
   7746.42    1.012199e-01
   7746.71    1.009149e-01
   7747.00    1.006100e-01
   7747.29    9.987747e-02
   7747.58    9.914495e-02
   7747.87    9.841242e-02
   7748.16    9.758531e-02
   7748.44    9.667712e-02
   7748.73    9.576893e-02
   7749.02    9.486417e-02
   7749.31    9.400066e-02
   7749.60    9.313714e-02
   7749.89    9.227363e-02
   7750.18    9.149148e-02
   7750.47    9.076020e-02
   7750.76    9.002891e-02
   7751.04    8.931728e-02
   7751.33    8.871371e-02
   7751.62    8.811015e-02
   7751.91    8.750659e-02
   7752.20    8.696587e-02
   7752.49    8.645309e-02
   7752.78    8.594031e-02
   7753.07    8.543911e-02
   7753.36    8.497650e-02
   7753.64    8.451389e-02
   7753.93    8.405128e-02
   7754.22    8.360209e-02
   7754.51    8.315693e-02
   7754.80    8.271177e-02
   7755.09    8.226555e-02
   7755.38    8.181697e-02
   7755.67    8.136839e-02
   7755.96    8.091981e-02
   7756.24    8.046180e-02
   7756.53    8.000208e-02
   7756.82    7.954237e-02
   7757.11    7.908105e-02
   7757.40    7.861718e-02
   7757.69    7.815331e-02
   7757.98    7.768944e-02
   7758.27    7.724614e-02
   7758.56    7.680454e-02
   7758.84    7.636295e-02
   7759.13    7.595422e-02
   7759.42    7.558382e-02
   7759.71    7.521343e-02
   7760.00    7.484303e-02
