 FDMNES
  energy    <xanes>
   7695.00    5.195635e-04
   7695.29    5.253084e-04
   7695.58    5.310533e-04
   7695.87    5.367982e-04
   7696.16    5.427643e-04
   7696.44    5.489199e-04
   7696.73    5.550756e-04
   7697.02    5.612662e-04
   7697.31    5.678767e-04
   7697.60    5.744872e-04
   7697.89    5.810977e-04
   7698.18    5.880192e-04
   7698.47    5.951351e-04
   7698.76    6.022510e-04
   7699.04    6.094535e-04
   7699.33    6.171328e-04
   7699.62    6.248122e-04
   7699.91    6.324915e-04
   7700.20    6.406075e-04
   7700.49    6.489175e-04
   7700.78    6.572275e-04
   7701.07    6.657011e-04
   7701.36    6.747200e-04
   7701.64    6.837388e-04
   7701.93    6.927577e-04
   7702.22    7.023921e-04
   7702.51    7.122111e-04
   7702.80    7.220302e-04
   7703.09    7.321285e-04
   7703.38    7.428552e-04
   7703.67    7.535819e-04
   7703.96    7.643086e-04
   7704.24    7.759110e-04
   7704.53    7.876725e-04
   7704.82    7.994341e-04
   7705.11    8.116521e-04
   7705.40    8.246003e-04
   7705.69    8.375485e-04
   7705.98    8.504968e-04
   7706.27    8.647087e-04
   7706.56    8.790259e-04
   7706.84    8.933431e-04
   7707.13    9.083943e-04
   7707.42    9.243016e-04
   7707.71    9.402089e-04
   7708.00    9.561162e-04
   7708.29    9.738842e-04
   7708.58    9.916522e-04
   7708.87    1.009420e-03
   7709.16    1.028370e-03
   7709.44    1.048334e-03
   7709.73    1.068297e-03
   7710.02    1.088461e-03
   7710.31    1.111038e-03
   7710.60    1.133615e-03
   7710.89    1.156192e-03
   7711.18    1.180704e-03
   7711.47    1.206425e-03
   7711.76    1.232147e-03
   7712.04    1.258457e-03
   7712.33    1.288005e-03
   7712.62    1.317553e-03
   7712.91    1.347101e-03
   7713.20    1.379916e-03
   7713.49    1.414184e-03
   7713.78    1.448451e-03
   7714.07    1.484082e-03
   7714.36    1.524259e-03
   7714.64    1.564437e-03
   7714.93    1.604614e-03
   7715.22    1.650586e-03
   7715.51    1.698297e-03
   7715.80    1.746008e-03
   7716.09    1.796738e-03
   7716.38    1.854259e-03
   7716.67    1.911781e-03
   7716.96    1.969302e-03
   7717.24    2.037914e-03
   7717.53    2.108541e-03
   7717.82    2.179169e-03
   7718.11    2.256750e-03
   7718.40    2.345456e-03
   7718.69    2.434163e-03
   7718.98    2.522869e-03
   7719.27    2.635558e-03
   7719.56    2.750246e-03
   7719.84    2.864934e-03
   7720.13    2.997841e-03
   7720.42    3.152005e-03
   7720.71    3.306168e-03
   7721.00    3.460331e-03
   7721.29    3.679526e-03
   7721.58    3.898721e-03
   7721.87    4.117916e-03
   7722.16    4.402925e-03
   7722.44    4.744347e-03
   7722.73    5.085769e-03
   7723.02    5.449920e-03
   7723.31    6.086824e-03
   7723.60    6.723729e-03
   7723.89    7.360633e-03
   7724.18    8.623292e-03
   7724.47    1.027705e-02
   7724.76    1.193080e-02
   7725.04    1.372988e-02
   7725.33    1.636697e-02
   7725.62    1.908697e-02
   7725.91    2.196360e-02
   7726.20    2.511755e-02
   7726.49    2.879693e-02
   7726.78    3.304068e-02
   7727.07    3.810957e-02
   7727.36    4.407213e-02
   7727.64    5.112049e-02
   7727.93    5.931201e-02
   7728.22    6.848578e-02
   7728.51    7.843173e-02
   7728.80    8.864215e-02
   7729.09    9.857780e-02
   7729.38    1.077592e-01
   7729.67    1.154843e-01
   7729.96    1.215292e-01
   7730.24    1.257155e-01
   7730.53    1.279881e-01
   7730.82    1.287617e-01
   7731.11    1.283819e-01
   7731.40    1.271262e-01
   7731.69    1.252058e-01
   7731.98    1.227871e-01
   7732.27    1.200145e-01
   7732.56    1.170667e-01
   7732.84    1.141180e-01
   7733.13    1.112984e-01
   7733.42    1.087004e-01
   7733.71    1.063781e-01
   7734.00    1.043553e-01
   7734.29    1.026688e-01
   7734.58    1.012665e-01
   7734.87    1.001207e-01
   7735.16    9.919357e-02
   7735.44    9.843956e-02
   7735.73    9.780828e-02
   7736.02    9.725028e-02
   7736.31    9.671191e-02
   7736.60    9.615529e-02
   7736.89    9.555929e-02
   7737.18    9.491788e-02
   7737.47    9.423958e-02
   7737.76    9.354524e-02
   7738.04    9.286887e-02
   7738.33    9.224414e-02
   7738.62    9.170168e-02
   7738.91    9.126734e-02
   7739.20    9.096042e-02
   7739.49    9.079298e-02
   7739.78    9.078202e-02
   7740.07    9.095140e-02
   7740.36    9.132726e-02
   7740.64    9.170312e-02
   7740.93    9.207899e-02
   7741.22    9.265274e-02
   7741.51    9.328586e-02
   7741.80    9.391898e-02
   7742.09    9.454174e-02
   7742.38    9.514120e-02
   7742.67    9.574065e-02
   7742.96    9.634011e-02
   7743.24    9.666571e-02
   7743.53    9.694152e-02
   7743.82    9.721732e-02
   7744.11    9.730896e-02
   7744.40    9.710591e-02
   7744.69    9.690287e-02
   7744.98    9.669982e-02
   7745.27    9.610631e-02
   7745.56    9.548026e-02
   7745.84    9.485421e-02
   7746.13    9.412006e-02
   7746.42    9.325980e-02
   7746.71    9.239954e-02
   7747.00    9.153928e-02
   7747.29    9.063915e-02
   7747.58    8.973901e-02
   7747.87    8.883888e-02
   7748.16    8.798619e-02
   7748.44    8.717417e-02
   7748.73    8.636215e-02
   7749.02    8.556070e-02
   7749.31    8.488602e-02
   7749.60    8.421134e-02
   7749.89    8.353667e-02
   7750.18    8.293957e-02
   7750.47    8.239095e-02
   7750.76    8.184233e-02
   7751.04    8.130653e-02
   7751.33    8.084124e-02
   7751.62    8.037595e-02
   7751.91    7.991066e-02
   7752.20    7.946947e-02
   7752.49    7.903899e-02
   7752.78    7.860851e-02
   7753.07    7.817696e-02
   7753.36    7.774184e-02
   7753.64    7.730672e-02
   7753.93    7.687161e-02
   7754.22    7.641352e-02
   7754.51    7.594855e-02
   7754.80    7.548358e-02
   7755.09    7.500608e-02
   7755.38    7.450042e-02
   7755.67    7.399475e-02
   7755.96    7.348908e-02
   7756.24    7.295190e-02
   7756.53    7.240898e-02
   7756.82    7.186606e-02
   7757.11    7.131681e-02
   7757.40    7.075743e-02
   7757.69    7.019806e-02
   7757.98    6.963868e-02
   7758.27    6.910452e-02
   7758.56    6.857247e-02
   7758.84    6.804042e-02
   7759.13    6.755037e-02
   7759.42    6.710932e-02
   7759.71    6.666828e-02
   7760.00    6.622723e-02
