 FDMNES
  energy    <xanes>
   7695.00    5.296784e-04
   7695.29    5.354331e-04
   7695.58    5.411878e-04
   7695.87    5.469425e-04
   7696.16    5.529167e-04
   7696.44    5.590791e-04
   7696.73    5.652416e-04
   7697.02    5.714387e-04
   7697.31    5.780523e-04
   7697.60    5.846660e-04
   7697.89    5.912796e-04
   7698.18    5.982016e-04
   7698.47    6.053163e-04
   7698.76    6.124310e-04
   7699.04    6.196316e-04
   7699.33    6.273047e-04
   7699.62    6.349778e-04
   7699.91    6.426510e-04
   7700.20    6.507565e-04
   7700.49    6.590543e-04
   7700.78    6.673520e-04
   7701.07    6.758117e-04
   7701.36    6.848111e-04
   7701.64    6.938106e-04
   7701.93    7.028100e-04
   7702.22    7.124183e-04
   7702.51    7.222093e-04
   7702.80    7.320004e-04
   7703.09    7.420675e-04
   7703.38    7.527559e-04
   7703.67    7.634443e-04
   7703.96    7.741327e-04
   7704.24    7.856863e-04
   7704.53    7.973972e-04
   7704.82    8.091080e-04
   7705.11    8.212696e-04
   7705.40    8.341521e-04
   7705.69    8.470346e-04
   7705.98    8.599172e-04
   7706.27    8.740465e-04
   7706.56    8.882798e-04
   7706.84    9.025131e-04
   7707.13    9.174700e-04
   7707.42    9.332710e-04
   7707.71    9.490720e-04
   7708.00    9.648730e-04
   7708.29    9.825070e-04
   7708.58    1.000141e-03
   7708.87    1.017775e-03
   7709.16    1.036573e-03
   7709.44    1.056367e-03
   7709.73    1.076162e-03
   7710.02    1.096155e-03
   7710.31    1.118520e-03
   7710.60    1.140885e-03
   7710.89    1.163250e-03
   7711.18    1.187517e-03
   7711.47    1.212971e-03
   7711.76    1.238425e-03
   7712.04    1.264457e-03
   7712.33    1.293667e-03
   7712.62    1.322877e-03
   7712.91    1.352087e-03
   7713.20    1.384500e-03
   7713.49    1.418336e-03
   7713.78    1.452173e-03
   7714.07    1.487345e-03
   7714.36    1.526967e-03
   7714.64    1.566590e-03
   7714.93    1.606213e-03
   7715.22    1.651503e-03
   7715.51    1.698493e-03
   7715.80    1.745483e-03
   7716.09    1.795421e-03
   7716.38    1.851991e-03
   7716.67    1.908562e-03
   7716.96    1.965132e-03
   7717.24    2.032519e-03
   7717.53    2.101873e-03
   7717.82    2.171226e-03
   7718.11    2.247354e-03
   7718.40    2.334320e-03
   7718.69    2.421287e-03
   7718.98    2.508253e-03
   7719.27    2.618572e-03
   7719.56    2.730837e-03
   7719.84    2.843102e-03
   7720.13    2.973120e-03
   7720.42    3.123849e-03
   7720.71    3.274579e-03
   7721.00    3.425309e-03
   7721.29    3.639638e-03
   7721.58    3.853968e-03
   7721.87    4.068298e-03
   7722.16    4.347671e-03
   7722.44    4.682795e-03
   7722.73    5.017919e-03
   7723.02    5.376085e-03
   7723.31    6.010748e-03
   7723.60    6.645410e-03
   7723.89    7.280072e-03
   7724.18    8.567975e-03
   7724.47    1.026415e-02
   7724.76    1.196033e-02
   7725.04    1.380030e-02
   7725.33    1.643992e-02
   7725.62    1.906575e-02
   7725.91    2.174223e-02
   7726.20    2.460413e-02
   7726.49    2.784576e-02
   7726.78    3.149062e-02
   7727.07    3.571020e-02
   7727.36    4.054603e-02
   7727.64    4.614560e-02
   7727.93    5.259796e-02
   7728.22    5.988872e-02
   7728.51    6.806898e-02
   7728.80    7.693230e-02
   7729.09    8.653255e-02
   7729.38    9.661916e-02
   7729.67    1.070389e-01
   7729.96    1.173759e-01
   7730.24    1.270266e-01
   7730.53    1.349997e-01
   7730.82    1.405538e-01
   7731.11    1.432307e-01
   7731.40    1.429893e-01
   7731.69    1.402342e-01
   7731.98    1.356559e-01
   7732.27    1.299966e-01
   7732.56    1.239983e-01
   7732.84    1.181918e-01
   7733.13    1.128868e-01
   7733.42    1.082588e-01
   7733.71    1.043790e-01
   7734.00    1.012455e-01
   7734.29    9.888490e-02
   7734.58    9.713078e-02
   7734.87    9.589482e-02
   7735.16    9.508477e-02
   7735.44    9.460804e-02
   7735.73    9.437416e-02
   7736.02    9.430212e-02
   7736.31    9.430031e-02
   7736.60    9.429640e-02
   7736.89    9.423967e-02
   7737.18    9.409598e-02
   7737.47    9.384875e-02
   7737.76    9.349673e-02
   7738.04    9.305030e-02
   7738.33    9.254722e-02
   7738.62    9.201962e-02
   7738.91    9.150033e-02
   7739.20    9.101948e-02
   7739.49    9.060222e-02
   7739.78    9.027525e-02
   7740.07    9.007653e-02
   7740.36    9.004489e-02
   7740.64    9.001325e-02
   7740.93    8.998162e-02
   7741.22    9.017473e-02
   7741.51    9.043526e-02
   7741.80    9.069580e-02
   7742.09    9.099238e-02
   7742.38    9.137007e-02
   7742.67    9.174776e-02
   7742.96    9.212545e-02
   7743.24    9.240655e-02
   7743.53    9.267009e-02
   7743.82    9.293363e-02
   7744.11    9.308741e-02
   7744.40    9.306558e-02
   7744.69    9.304374e-02
   7744.98    9.302191e-02
   7745.27    9.270249e-02
   7745.56    9.235826e-02
   7745.84    9.201404e-02
   7746.13    9.156130e-02
   7746.42    9.098195e-02
   7746.71    9.040260e-02
   7747.00    8.982326e-02
   7747.29    8.914334e-02
   7747.58    8.846342e-02
   7747.87    8.778349e-02
   7748.16    8.710963e-02
   7748.44    8.644096e-02
   7748.73    8.577229e-02
   7749.02    8.510937e-02
   7749.31    8.451552e-02
   7749.60    8.392167e-02
   7749.89    8.332782e-02
   7750.18    8.279202e-02
   7750.47    8.229250e-02
   7750.76    8.179299e-02
   7751.04    8.130629e-02
   7751.33    8.089009e-02
   7751.62    8.047389e-02
   7751.91    8.005770e-02
   7752.20    7.968021e-02
   7752.49    7.931992e-02
   7752.78    7.895963e-02
   7753.07    7.860483e-02
   7753.36    7.826831e-02
   7753.64    7.793180e-02
   7753.93    7.759529e-02
   7754.22    7.725505e-02
   7754.51    7.691368e-02
   7754.80    7.657231e-02
   7755.09    7.622352e-02
   7755.38    7.585802e-02
   7755.67    7.549252e-02
   7755.96    7.512701e-02
   7756.24    7.473702e-02
   7756.53    7.434257e-02
   7756.82    7.394812e-02
   7757.11    7.354789e-02
   7757.40    7.313841e-02
   7757.69    7.272894e-02
   7757.98    7.231946e-02
   7758.27    7.192794e-02
   7758.56    7.153791e-02
   7758.84    7.114788e-02
   7759.13    7.078910e-02
   7759.42    7.046679e-02
   7759.71    7.014448e-02
   7760.00    6.982217e-02
