 FDMNES
  energy    <xanes>
   7695.00    5.465290e-04
   7695.29    5.523354e-04
   7695.58    5.581417e-04
   7695.87    5.639481e-04
   7696.16    5.699736e-04
   7696.44    5.761870e-04
   7696.73    5.824004e-04
   7697.02    5.886484e-04
   7697.31    5.953121e-04
   7697.60    6.019759e-04
   7697.89    6.086397e-04
   7698.18    6.156111e-04
   7698.47    6.227749e-04
   7698.76    6.299387e-04
   7699.04    6.371882e-04
   7699.33    6.449092e-04
   7699.62    6.526302e-04
   7699.91    6.603512e-04
   7700.20    6.685037e-04
   7700.49    6.768480e-04
   7700.78    6.851923e-04
   7701.07    6.936982e-04
   7701.36    7.027427e-04
   7701.64    7.117872e-04
   7701.93    7.208318e-04
   7702.22    7.304841e-04
   7702.51    7.403187e-04
   7702.80    7.501534e-04
   7703.09    7.602637e-04
   7703.38    7.709943e-04
   7703.67    7.817250e-04
   7703.96    7.924556e-04
   7704.24    8.040505e-04
   7704.53    8.158026e-04
   7704.82    8.275546e-04
   7705.11    8.397571e-04
   7705.40    8.526804e-04
   7705.69    8.656036e-04
   7705.98    8.785269e-04
   7706.27    8.926976e-04
   7706.56    9.069722e-04
   7706.84    9.212469e-04
   7707.13    9.362463e-04
   7707.42    9.520912e-04
   7707.71    9.679361e-04
   7708.00    9.837810e-04
   7708.29    1.001465e-03
   7708.58    1.019148e-03
   7708.87    1.036832e-03
   7709.16    1.055684e-03
   7709.44    1.075539e-03
   7709.73    1.095394e-03
   7710.02    1.115448e-03
   7710.31    1.137891e-03
   7710.60    1.160335e-03
   7710.89    1.182778e-03
   7711.18    1.207141e-03
   7711.47    1.232704e-03
   7711.76    1.258267e-03
   7712.04    1.284416e-03
   7712.33    1.313784e-03
   7712.62    1.343153e-03
   7712.91    1.372521e-03
   7713.20    1.405149e-03
   7713.49    1.439225e-03
   7713.78    1.473301e-03
   7714.07    1.508743e-03
   7714.36    1.548738e-03
   7714.64    1.588732e-03
   7714.93    1.628727e-03
   7715.22    1.674555e-03
   7715.51    1.722133e-03
   7715.80    1.769711e-03
   7716.09    1.820348e-03
   7716.38    1.877867e-03
   7716.67    1.935387e-03
   7716.96    1.992906e-03
   7717.24    2.061762e-03
   7717.53    2.132679e-03
   7717.82    2.203596e-03
   7718.11    2.281703e-03
   7718.40    2.371315e-03
   7718.69    2.460928e-03
   7718.98    2.550540e-03
   7719.27    2.665348e-03
   7719.56    2.782255e-03
   7719.84    2.899163e-03
   7720.13    3.035635e-03
   7720.42    3.194932e-03
   7720.71    3.354229e-03
   7721.00    3.513527e-03
   7721.29    3.744908e-03
   7721.58    3.976290e-03
   7721.87    4.207672e-03
   7722.16    4.515593e-03
   7722.44    4.889118e-03
   7722.73    5.262644e-03
   7723.02    5.664634e-03
   7723.31    6.408194e-03
   7723.60    7.151754e-03
   7723.89    7.895314e-03
   7724.18    9.483451e-03
   7724.47    1.159945e-02
   7724.76    1.371545e-02
   7725.04    1.601828e-02
   7725.33    1.934283e-02
   7725.62    2.256292e-02
   7725.91    2.568968e-02
   7726.20    2.891788e-02
   7726.49    3.255717e-02
   7726.78    3.678676e-02
   7727.07    4.199956e-02
   7727.36    4.827230e-02
   7727.64    5.562684e-02
   7727.93    6.372241e-02
   7728.22    7.195323e-02
   7728.51    7.978115e-02
   7728.80    8.710484e-02
   7729.09    9.392603e-02
   7729.38    1.003761e-01
   7729.67    1.061592e-01
   7729.96    1.109834e-01
   7730.24    1.144753e-01
   7730.53    1.162940e-01
   7730.82    1.166039e-01
   7731.11    1.156816e-01
   7731.40    1.138588e-01
   7731.69    1.114591e-01
   7731.98    1.087510e-01
   7732.27    1.059490e-01
   7732.56    1.032426e-01
   7732.84    1.007579e-01
   7733.13    9.857717e-02
   7733.42    9.674868e-02
   7733.71    9.529432e-02
   7734.00    9.421483e-02
   7734.29    9.353128e-02
   7734.58    9.316205e-02
   7734.87    9.305715e-02
   7735.16    9.315648e-02
   7735.44    9.339283e-02
   7735.73    9.369544e-02
   7736.02    9.398923e-02
   7736.31    9.420143e-02
   7736.60    9.428238e-02
   7736.89    9.419820e-02
   7737.18    9.393468e-02
   7737.47    9.349831e-02
   7737.76    9.291310e-02
   7738.04    9.221772e-02
   7738.33    9.147865e-02
   7738.62    9.074952e-02
   7738.91    9.008014e-02
   7739.20    8.951268e-02
   7739.49    8.907940e-02
   7739.78    8.881593e-02
   7740.07    8.877271e-02
   7740.36    8.900262e-02
   7740.64    8.923254e-02
   7740.93    8.946245e-02
   7741.22    9.002846e-02
   7741.51    9.069530e-02
   7741.80    9.136215e-02
   7742.09    9.207625e-02
   7742.38    9.289667e-02
   7742.67    9.371709e-02
   7742.96    9.453751e-02
   7743.24    9.521942e-02
   7743.53    9.587614e-02
   7743.82    9.653286e-02
   7744.11    9.704000e-02
   7744.40    9.730780e-02
   7744.69    9.757559e-02
   7744.98    9.784339e-02
   7745.27    9.770826e-02
   7745.56    9.753955e-02
   7745.84    9.737084e-02
   7746.13    9.705085e-02
   7746.42    9.655437e-02
   7746.71    9.605789e-02
   7747.00    9.556141e-02
   7747.29    9.490501e-02
   7747.58    9.424861e-02
   7747.87    9.359221e-02
   7748.16    9.292521e-02
   7748.44    9.224912e-02
   7748.73    9.157304e-02
   7749.02    9.090163e-02
   7749.31    9.028636e-02
   7749.60    8.967110e-02
   7749.89    8.905583e-02
   7750.18    8.849509e-02
   7750.47    8.796842e-02
   7750.76    8.744175e-02
   7751.04    8.692729e-02
   7751.33    8.647997e-02
   7751.62    8.603265e-02
   7751.91    8.558534e-02
   7752.20    8.517659e-02
   7752.49    8.478498e-02
   7752.78    8.439337e-02
   7753.07    8.400918e-02
   7753.36    8.364971e-02
   7753.64    8.329023e-02
   7753.93    8.293076e-02
   7754.22    8.258136e-02
   7754.51    8.223498e-02
   7754.80    8.188860e-02
   7755.09    8.154206e-02
   7755.38    8.119517e-02
   7755.67    8.084827e-02
   7755.96    8.050137e-02
   7756.24    8.014744e-02
   7756.53    7.979223e-02
   7756.82    7.943703e-02
   7757.11    7.907905e-02
   7757.40    7.871665e-02
   7757.69    7.835424e-02
   7757.98    7.799183e-02
   7758.27    7.763961e-02
   7758.56    7.728824e-02
   7758.84    7.693687e-02
   7759.13    7.660968e-02
   7759.42    7.631069e-02
   7759.71    7.601170e-02
   7760.00    7.571271e-02
