 FDMNES
  energy    <xanes>
   7695.00    5.595673e-04
   7695.29    5.653246e-04
   7695.58    5.710818e-04
   7695.87    5.768391e-04
   7696.16    5.828077e-04
   7696.44    5.889576e-04
   7696.73    5.951074e-04
   7697.02    6.012906e-04
   7697.31    6.078739e-04
   7697.60    6.144571e-04
   7697.89    6.210404e-04
   7698.18    6.279190e-04
   7698.47    6.349823e-04
   7698.76    6.420456e-04
   7699.04    6.491910e-04
   7699.33    6.567878e-04
   7699.62    6.643847e-04
   7699.91    6.719815e-04
   7700.20    6.799904e-04
   7700.49    6.881825e-04
   7700.78    6.963745e-04
   7701.07    7.047205e-04
   7701.36    7.135793e-04
   7701.64    7.224381e-04
   7701.93    7.312970e-04
   7702.22    7.407328e-04
   7702.51    7.503418e-04
   7702.80    7.599507e-04
   7703.09    7.698206e-04
   7703.38    7.802775e-04
   7703.67    7.907344e-04
   7703.96    8.011913e-04
   7704.24    8.124633e-04
   7704.53    8.238835e-04
   7704.82    8.353038e-04
   7705.11    8.471473e-04
   7705.40    8.596682e-04
   7705.69    8.721890e-04
   7705.98    8.847099e-04
   7706.27    8.983985e-04
   7706.56    9.121845e-04
   7706.84    9.259704e-04
   7707.13    9.404320e-04
   7707.42    9.556819e-04
   7707.71    9.709318e-04
   7708.00    9.861817e-04
   7708.29    1.003138e-03
   7708.58    1.020095e-03
   7708.87    1.037051e-03
   7709.16    1.055088e-03
   7709.44    1.074050e-03
   7709.73    1.093012e-03
   7710.02    1.112158e-03
   7710.31    1.133499e-03
   7710.60    1.154841e-03
   7710.89    1.176182e-03
   7711.18    1.199279e-03
   7711.47    1.223472e-03
   7711.76    1.247665e-03
   7712.04    1.272390e-03
   7712.33    1.300041e-03
   7712.62    1.327692e-03
   7712.91    1.355344e-03
   7713.20    1.385937e-03
   7713.49    1.417839e-03
   7713.78    1.449740e-03
   7714.07    1.482866e-03
   7714.36    1.520074e-03
   7714.64    1.557283e-03
   7714.93    1.594491e-03
   7715.22    1.636890e-03
   7715.51    1.680848e-03
   7715.80    1.724805e-03
   7716.09    1.771462e-03
   7716.38    1.824195e-03
   7716.67    1.876928e-03
   7716.96    1.929661e-03
   7717.24    1.992315e-03
   7717.53    2.056774e-03
   7717.82    2.121232e-03
   7718.11    2.191928e-03
   7718.40    2.272602e-03
   7718.69    2.353276e-03
   7718.98    2.433950e-03
   7719.27    2.536281e-03
   7719.56    2.640416e-03
   7719.84    2.744550e-03
   7720.13    2.865363e-03
   7720.42    3.005633e-03
   7720.71    3.145904e-03
   7721.00    3.286174e-03
   7721.29    3.487544e-03
   7721.58    3.688914e-03
   7721.87    3.890285e-03
   7722.16    4.156575e-03
   7722.44    4.478510e-03
   7722.73    4.800446e-03
   7723.02    5.146845e-03
   7723.31    5.786809e-03
   7723.60    6.426773e-03
   7723.89    7.066737e-03
   7724.18    8.454127e-03
   7724.47    1.030866e-02
   7724.76    1.216319e-02
   7725.04    1.418976e-02
   7725.33    1.715538e-02
   7725.62    1.994926e-02
   7725.91    2.237166e-02
   7726.20    2.453284e-02
   7726.49    2.667592e-02
   7726.78    2.910815e-02
   7727.07    3.215639e-02
   7727.36    3.592008e-02
   7727.64    4.052461e-02
   7727.93    4.597753e-02
   7728.22    5.216098e-02
   7728.51    5.899136e-02
   7728.80    6.619694e-02
   7729.09    7.365619e-02
   7729.38    8.117406e-02
   7729.67    8.857346e-02
   7729.96    9.562333e-02
   7730.24    1.019703e-01
   7730.53    1.070697e-01
   7730.82    1.106412e-01
   7731.11    1.126067e-01
   7731.40    1.131186e-01
   7731.69    1.125029e-01
   7731.98    1.111381e-01
   7732.27    1.093524e-01
   7732.56    1.074163e-01
   7732.84    1.054935e-01
   7733.13    1.036593e-01
   7733.42    1.019460e-01
   7733.71    1.003671e-01
   7734.00    9.893678e-02
   7734.29    9.770376e-02
   7734.58    9.668268e-02
   7734.87    9.590327e-02
   7735.16    9.538451e-02
   7735.44    9.512954e-02
   7735.73    9.512381e-02
   7736.02    9.534728e-02
   7736.31    9.574191e-02
   7736.60    9.623928e-02
   7736.89    9.677834e-02
   7737.18    9.730000e-02
   7737.47    9.775211e-02
   7737.76    9.809119e-02
   7738.04    9.827674e-02
   7738.33    9.831250e-02
   7738.62    9.820386e-02
   7738.91    9.796745e-02
   7739.20    9.762790e-02
   7739.49    9.721443e-02
   7739.78    9.675650e-02
   7740.07    9.630517e-02
   7740.36    9.591422e-02
   7740.64    9.552326e-02
   7740.93    9.513230e-02
   7741.22    9.497412e-02
   7741.51    9.488577e-02
   7741.80    9.479743e-02
   7742.09    9.482041e-02
   7742.38    9.509390e-02
   7742.67    9.536739e-02
   7742.96    9.564087e-02
   7743.24    9.612031e-02
   7743.53    9.663720e-02
   7743.82    9.715409e-02
   7744.11    9.767360e-02
   7744.40    9.819729e-02
   7744.69    9.872098e-02
   7744.98    9.924467e-02
   7745.27    9.954024e-02
   7745.56    9.981680e-02
   7745.84    1.000934e-01
   7746.13    1.001903e-01
   7746.42    1.000778e-01
   7746.71    9.996535e-02
   7747.00    9.985285e-02
   7747.29    9.938678e-02
   7747.58    9.892072e-02
   7747.87    9.845465e-02
   7748.16    9.788249e-02
   7748.44    9.721940e-02
   7748.73    9.655631e-02
   7749.02    9.589091e-02
   7749.31    9.519782e-02
   7749.60    9.450473e-02
   7749.89    9.381164e-02
   7750.18    9.316982e-02
   7750.47    9.256005e-02
   7750.76    9.195028e-02
   7751.04    9.136090e-02
   7751.33    9.088374e-02
   7751.62    9.040657e-02
   7751.91    8.992941e-02
   7752.20    8.953653e-02
   7752.49    8.918110e-02
   7752.78    8.882568e-02
   7753.07    8.848879e-02
   7753.36    8.821369e-02
   7753.64    8.793860e-02
   7753.93    8.766351e-02
   7754.22    8.741394e-02
   7754.51    8.717204e-02
   7754.80    8.693013e-02
   7755.09    8.668568e-02
   7755.38    8.643550e-02
   7755.67    8.618532e-02
   7755.96    8.593513e-02
   7756.24    8.565407e-02
   7756.53    8.536738e-02
   7756.82    8.508070e-02
   7757.11    8.477714e-02
   7757.40    8.444656e-02
   7757.69    8.411598e-02
   7757.98    8.378540e-02
   7758.27    8.343572e-02
   7758.56    8.308444e-02
   7758.84    8.273317e-02
   7759.13    8.239914e-02
   7759.42    8.208523e-02
   7759.71    8.177133e-02
   7760.00    8.145742e-02
