 FDMNES
  energy    <xanes>
   7695.00    5.309720e-04
   7695.29    5.365353e-04
   7695.58    5.420986e-04
   7695.87    5.476620e-04
   7696.16    5.534309e-04
   7696.44    5.593760e-04
   7696.73    5.653212e-04
   7697.02    5.712987e-04
   7697.31    5.776654e-04
   7697.60    5.840321e-04
   7697.89    5.903988e-04
   7698.18    5.970528e-04
   7698.47    6.038864e-04
   7698.76    6.107199e-04
   7699.04    6.176333e-04
   7699.33    6.249858e-04
   7699.62    6.323383e-04
   7699.91    6.396908e-04
   7700.20    6.474441e-04
   7700.49    6.553755e-04
   7700.78    6.633070e-04
   7701.07    6.713880e-04
   7701.36    6.799678e-04
   7701.64    6.885477e-04
   7701.93    6.971275e-04
   7702.22    7.062685e-04
   7702.51    7.155778e-04
   7702.80    7.248871e-04
   7703.09    7.344500e-04
   7703.38    7.445837e-04
   7703.67    7.547174e-04
   7703.96    7.648512e-04
   7704.24    7.757773e-04
   7704.53    7.868475e-04
   7704.82    7.979178e-04
   7705.11    8.093994e-04
   7705.40    8.215394e-04
   7705.69    8.336794e-04
   7705.98    8.458195e-04
   7706.27    8.590943e-04
   7706.56    8.724637e-04
   7706.84    8.858332e-04
   7707.13    8.998590e-04
   7707.42    9.146508e-04
   7707.71    9.294426e-04
   7708.00    9.442344e-04
   7708.29    9.606839e-04
   7708.58    9.771334e-04
   7708.87    9.935830e-04
   7709.16    1.011081e-03
   7709.44    1.029479e-03
   7709.73    1.047877e-03
   7710.02    1.066452e-03
   7710.31    1.087160e-03
   7710.60    1.107868e-03
   7710.89    1.128576e-03
   7711.18    1.150988e-03
   7711.47    1.174465e-03
   7711.76    1.197942e-03
   7712.04    1.221935e-03
   7712.33    1.248770e-03
   7712.62    1.275605e-03
   7712.91    1.302439e-03
   7713.20    1.332132e-03
   7713.49    1.363094e-03
   7713.78    1.394057e-03
   7714.07    1.426210e-03
   7714.36    1.462329e-03
   7714.64    1.498448e-03
   7714.93    1.534567e-03
   7715.22    1.575735e-03
   7715.51    1.618418e-03
   7715.80    1.661101e-03
   7716.09    1.706415e-03
   7716.38    1.757646e-03
   7716.67    1.808877e-03
   7716.96    1.860108e-03
   7717.24    1.921027e-03
   7717.53    1.983708e-03
   7717.82    2.046389e-03
   7718.11    2.115183e-03
   7718.40    2.193760e-03
   7718.69    2.272336e-03
   7718.98    2.350913e-03
   7719.27    2.450847e-03
   7719.56    2.552561e-03
   7719.84    2.654274e-03
   7720.13    2.772592e-03
   7720.42    2.910280e-03
   7720.71    3.047967e-03
   7721.00    3.185655e-03
   7721.29    3.385064e-03
   7721.58    3.584472e-03
   7721.87    3.783881e-03
   7722.16    4.050337e-03
   7722.44    4.374262e-03
   7722.73    4.698187e-03
   7723.02    5.048165e-03
   7723.31    5.710770e-03
   7723.60    6.373375e-03
   7723.89    7.035980e-03
   7724.18    8.518082e-03
   7724.47    1.051237e-02
   7724.76    1.250666e-02
   7725.04    1.469256e-02
   7725.33    1.792998e-02
   7725.62    2.100606e-02
   7725.91    2.370918e-02
   7726.20    2.606118e-02
   7726.49    2.804445e-02
   7726.78    2.988879e-02
   7727.07    3.185127e-02
   7727.36    3.418092e-02
   7727.64    3.713458e-02
   7727.93    4.089366e-02
   7728.22    4.554962e-02
   7728.51    5.129576e-02
   7728.80    5.798497e-02
   7729.09    6.571328e-02
   7729.38    7.403463e-02
   7729.67    8.255730e-02
   7729.96    9.065644e-02
   7730.24    9.762354e-02
   7730.53    1.026128e-01
   7730.82    1.053984e-01
   7731.11    1.061492e-01
   7731.40    1.053478e-01
   7731.69    1.036083e-01
   7731.98    1.014775e-01
   7732.27    9.934539e-02
   7732.56    9.743640e-02
   7732.84    9.581374e-02
   7733.13    9.449281e-02
   7733.42    9.347077e-02
   7733.71    9.274301e-02
   7734.00    9.230852e-02
   7734.29    9.220101e-02
   7734.58    9.237882e-02
   7734.87    9.282832e-02
   7735.16    9.352940e-02
   7735.44    9.445542e-02
   7735.73    9.557276e-02
   7736.02    9.684726e-02
   7736.31    9.822008e-02
   7736.60    9.962859e-02
   7736.89    1.010149e-01
   7737.18    1.023226e-01
   7737.47    1.035014e-01
   7737.76    1.045084e-01
   7738.04    1.053009e-01
   7738.33    1.058922e-01
   7738.62    1.062927e-01
   7738.91    1.065250e-01
   7739.20    1.066192e-01
   7739.49    1.066088e-01
   7739.78    1.065227e-01
   7740.07    1.063976e-01
   7740.36    1.062621e-01
   7740.64    1.061266e-01
   7740.93    1.059911e-01
   7741.22    1.058969e-01
   7741.51    1.058149e-01
   7741.80    1.057330e-01
   7742.09    1.056480e-01
   7742.38    1.055561e-01
   7742.67    1.054642e-01
   7742.96    1.053723e-01
   7743.24    1.051533e-01
   7743.53    1.049112e-01
   7743.82    1.046691e-01
   7744.11    1.043299e-01
   7744.40    1.038352e-01
   7744.69    1.033405e-01
   7744.98    1.028458e-01
   7745.27    1.021135e-01
   7745.56    1.013613e-01
   7745.84    1.006092e-01
   7746.13    9.977971e-02
   7746.42    9.886004e-02
   7746.71    9.794037e-02
   7747.00    9.702070e-02
   7747.29    9.606952e-02
   7747.58    9.511834e-02
   7747.87    9.416716e-02
   7748.16    9.326283e-02
   7748.44    9.239866e-02
   7748.73    9.153449e-02
   7749.02    9.068095e-02
   7749.31    8.995486e-02
   7749.60    8.922878e-02
   7749.89    8.850269e-02
   7750.18    8.786229e-02
   7750.47    8.727543e-02
   7750.76    8.668858e-02
   7751.04    8.611979e-02
   7751.33    8.565035e-02
   7751.62    8.518091e-02
   7751.91    8.471147e-02
   7752.20    8.430069e-02
   7752.49    8.391599e-02
   7752.78    8.353128e-02
   7753.07    8.315750e-02
   7753.36    8.282011e-02
   7753.64    8.248273e-02
   7753.93    8.214534e-02
   7754.22    8.181522e-02
   7754.51    8.148728e-02
   7754.80    8.115933e-02
   7755.09    8.082415e-02
   7755.38    8.047266e-02
   7755.67    8.012118e-02
   7755.96    7.976969e-02
   7756.24    7.938136e-02
   7756.53    7.898634e-02
   7756.82    7.859131e-02
   7757.11    7.818073e-02
   7757.40    7.774528e-02
   7757.69    7.730982e-02
   7757.98    7.687436e-02
   7758.27    7.643399e-02
   7758.56    7.599321e-02
   7758.84    7.555242e-02
   7759.13    7.513934e-02
   7759.42    7.475857e-02
   7759.71    7.437780e-02
   7760.00    7.399704e-02
