 FDMNES
  energy    <xanes>
   7695.00    5.271957e-04
   7695.29    5.329272e-04
   7695.58    5.386587e-04
   7695.87    5.443903e-04
   7696.16    5.503407e-04
   7696.44    5.564786e-04
   7696.73    5.626166e-04
   7697.02    5.687891e-04
   7697.31    5.753769e-04
   7697.60    5.819648e-04
   7697.89    5.885526e-04
   7698.18    5.954479e-04
   7698.47    6.025354e-04
   7698.76    6.096229e-04
   7699.04    6.167961e-04
   7699.33    6.244406e-04
   7699.62    6.320851e-04
   7699.91    6.397296e-04
   7700.20    6.478056e-04
   7700.49    6.560733e-04
   7700.78    6.643411e-04
   7701.07    6.727704e-04
   7701.36    6.817385e-04
   7701.64    6.907066e-04
   7701.93    6.996747e-04
   7702.22    7.092508e-04
   7702.51    7.190093e-04
   7702.80    7.287678e-04
   7703.09    7.388022e-04
   7703.38    7.494572e-04
   7703.67    7.601121e-04
   7703.96    7.707671e-04
   7704.24    7.822869e-04
   7704.53    7.939639e-04
   7704.82    8.056409e-04
   7705.11    8.177686e-04
   7705.40    8.306174e-04
   7705.69    8.434662e-04
   7705.98    8.563150e-04
   7706.27    8.704118e-04
   7706.56    8.846126e-04
   7706.84    8.988133e-04
   7707.13    9.137389e-04
   7707.42    9.295102e-04
   7707.71    9.452814e-04
   7708.00    9.610526e-04
   7708.29    9.786619e-04
   7708.58    9.962712e-04
   7708.87    1.013881e-03
   7709.16    1.032658e-03
   7709.44    1.052436e-03
   7709.73    1.072215e-03
   7710.02    1.092192e-03
   7710.31    1.114555e-03
   7710.60    1.136918e-03
   7710.89    1.159280e-03
   7711.18    1.183557e-03
   7711.47    1.209031e-03
   7711.76    1.234504e-03
   7712.04    1.260560e-03
   7712.33    1.289823e-03
   7712.62    1.319085e-03
   7712.91    1.348347e-03
   7713.20    1.380849e-03
   7713.49    1.414789e-03
   7713.78    1.448730e-03
   7714.07    1.484024e-03
   7714.36    1.523832e-03
   7714.64    1.563640e-03
   7714.93    1.603448e-03
   7715.22    1.649020e-03
   7715.51    1.696322e-03
   7715.80    1.743624e-03
   7716.09    1.793935e-03
   7716.38    1.851020e-03
   7716.67    1.908104e-03
   7716.96    1.965188e-03
   7717.24    2.033366e-03
   7717.53    2.103562e-03
   7717.82    2.173757e-03
   7718.11    2.250937e-03
   7718.40    2.339292e-03
   7718.69    2.427647e-03
   7718.98    2.516002e-03
   7719.27    2.628574e-03
   7719.56    2.743164e-03
   7719.84    2.857755e-03
   7720.13    2.990864e-03
   7720.42    3.145578e-03
   7720.71    3.300292e-03
   7721.00    3.455006e-03
   7721.29    3.676333e-03
   7721.58    3.897659e-03
   7721.87    4.118986e-03
   7722.16    4.408205e-03
   7722.44    4.755619e-03
   7722.73    5.103032e-03
   7723.02    5.473863e-03
   7723.31    6.125701e-03
   7723.60    6.777540e-03
   7723.89    7.429379e-03
   7724.18    8.723404e-03
   7724.47    1.041880e-02
   7724.76    1.211419e-02
   7725.04    1.397459e-02
   7725.33    1.684371e-02
   7725.62    2.000852e-02
   7725.91    2.358790e-02
   7726.20    2.762565e-02
   7726.49    3.226771e-02
   7726.78    3.736723e-02
   7727.07    4.298588e-02
   7727.36    4.909387e-02
   7727.64    5.564248e-02
   7727.93    6.232890e-02
   7728.22    6.878554e-02
   7728.51    7.495344e-02
   7728.80    8.123873e-02
   7729.09    8.821900e-02
   7729.38    9.588944e-02
   7729.67    1.039731e-01
   7729.96    1.117380e-01
   7730.24    1.183459e-01
   7730.53    1.228657e-01
   7730.82    1.250906e-01
   7731.11    1.252275e-01
   7731.40    1.237682e-01
   7731.69    1.213055e-01
   7731.98    1.183529e-01
   7732.27    1.152640e-01
   7732.56    1.122452e-01
   7732.84    1.093787e-01
   7733.13    1.067116e-01
   7733.42    1.042889e-01
   7733.71    1.021585e-01
   7734.00    1.003619e-01
   7734.29    9.895985e-02
   7734.58    9.789515e-02
   7734.87    9.712817e-02
   7735.16    9.660357e-02
   7735.44    9.625657e-02
   7735.73    9.601836e-02
   7736.02    9.581979e-02
   7736.31    9.559203e-02
   7736.60    9.528909e-02
   7736.89    9.488457e-02
   7737.18    9.437237e-02
   7737.47    9.376620e-02
   7737.76    9.309577e-02
   7738.04    9.240563e-02
   7738.33    9.174613e-02
   7738.62    9.115799e-02
   7738.91    9.067406e-02
   7739.20    9.031720e-02
   7739.49    9.009977e-02
   7739.78    9.003582e-02
   7740.07    9.013813e-02
   7740.36    9.041857e-02
   7740.64    9.069902e-02
   7740.93    9.097947e-02
   7741.22    9.139184e-02
   7741.51    9.184379e-02
   7741.80    9.229574e-02
   7742.09    9.273025e-02
   7742.38    9.312550e-02
   7742.67    9.352075e-02
   7742.96    9.391600e-02
   7743.24    9.415787e-02
   7743.53    9.437185e-02
   7743.82    9.458583e-02
   7744.11    9.471765e-02
   7744.40    9.471802e-02
   7744.69    9.471839e-02
   7744.98    9.471876e-02
   7745.27    9.452332e-02
   7745.56    9.431157e-02
   7745.84    9.409982e-02
   7746.13    9.379579e-02
   7746.42    9.338409e-02
   7746.71    9.297240e-02
   7747.00    9.256070e-02
   7747.29    9.199400e-02
   7747.58    9.142730e-02
   7747.87    9.086060e-02
   7748.16    9.025097e-02
   7748.44    8.960456e-02
   7748.73    8.895814e-02
   7749.02    8.831141e-02
   7749.31    8.766092e-02
   7749.60    8.701043e-02
   7749.89    8.635994e-02
   7750.18    8.573577e-02
   7750.47    8.512806e-02
   7750.76    8.452035e-02
   7751.04    8.392104e-02
   7751.33    8.336795e-02
   7751.62    8.281487e-02
   7751.91    8.226178e-02
   7752.20    8.173857e-02
   7752.49    8.122863e-02
   7752.78    8.071870e-02
   7753.07    8.021416e-02
   7753.36    7.972764e-02
   7753.64    7.924111e-02
   7753.93    7.875458e-02
   7754.22    7.827315e-02
   7754.51    7.779325e-02
   7754.80    7.731336e-02
   7755.09    7.683317e-02
   7755.38    7.635233e-02
   7755.67    7.587149e-02
   7755.96    7.539065e-02
   7756.24    7.491186e-02
   7756.53    7.443345e-02
   7756.82    7.395503e-02
   7757.11    7.348291e-02
   7757.40    7.302084e-02
   7757.69    7.255878e-02
   7757.98    7.209671e-02
   7758.27    7.167360e-02
   7758.56    7.125373e-02
   7758.84    7.083386e-02
   7759.13    7.045071e-02
   7759.42    7.011039e-02
   7759.71    6.977007e-02
   7760.00    6.942976e-02
