 FDMNES
  energy    <xanes>
   7695.00    5.170130e-04
   7695.29    5.226937e-04
   7695.58    5.283744e-04
   7695.87    5.340551e-04
   7696.16    5.399528e-04
   7696.44    5.460364e-04
   7696.73    5.521201e-04
   7697.02    5.582380e-04
   7697.31    5.647675e-04
   7697.60    5.712970e-04
   7697.89    5.778265e-04
   7698.18    5.846606e-04
   7698.47    5.916850e-04
   7698.76    5.987095e-04
   7699.04    6.058188e-04
   7699.33    6.133947e-04
   7699.62    6.209706e-04
   7699.91    6.285465e-04
   7700.20    6.365493e-04
   7700.49    6.447419e-04
   7700.78    6.529345e-04
   7701.07    6.612869e-04
   7701.36    6.701719e-04
   7701.64    6.790570e-04
   7701.93    6.879421e-04
   7702.22    6.974279e-04
   7702.51    7.070939e-04
   7702.80    7.167600e-04
   7703.09    7.266984e-04
   7703.38    7.372495e-04
   7703.67    7.478005e-04
   7703.96    7.583516e-04
   7704.24    7.697557e-04
   7704.53    7.813149e-04
   7704.82    7.928740e-04
   7705.11    8.048773e-04
   7705.40    8.175912e-04
   7705.69    8.303051e-04
   7705.98    8.430189e-04
   7706.27    8.569612e-04
   7706.56    8.710058e-04
   7706.84    8.850505e-04
   7707.13    8.998077e-04
   7707.42    9.153964e-04
   7707.71    9.309850e-04
   7708.00    9.465737e-04
   7708.29    9.639671e-04
   7708.58    9.813605e-04
   7708.87    9.987539e-04
   7709.16    1.017293e-03
   7709.44    1.036813e-03
   7709.73    1.056333e-03
   7710.02    1.076048e-03
   7710.31    1.098099e-03
   7710.60    1.120149e-03
   7710.89    1.142199e-03
   7711.18    1.166120e-03
   7711.47    1.191211e-03
   7711.76    1.216301e-03
   7712.04    1.241961e-03
   7712.33    1.270748e-03
   7712.62    1.299535e-03
   7712.91    1.328323e-03
   7713.20    1.360264e-03
   7713.49    1.393607e-03
   7713.78    1.426950e-03
   7714.07    1.461609e-03
   7714.36    1.500654e-03
   7714.64    1.539700e-03
   7714.93    1.578745e-03
   7715.22    1.623382e-03
   7715.51    1.669697e-03
   7715.80    1.716011e-03
   7716.09    1.765240e-03
   7716.38    1.821026e-03
   7716.67    1.876811e-03
   7716.96    1.932597e-03
   7717.24    1.999106e-03
   7717.53    2.067566e-03
   7717.82    2.136026e-03
   7718.11    2.211230e-03
   7718.40    2.297228e-03
   7718.69    2.383225e-03
   7718.98    2.469222e-03
   7719.27    2.578622e-03
   7719.56    2.689971e-03
   7719.84    2.801320e-03
   7720.13    2.930630e-03
   7720.42    3.080893e-03
   7720.71    3.231156e-03
   7721.00    3.381418e-03
   7721.29    3.596942e-03
   7721.58    3.812466e-03
   7721.87    4.027989e-03
   7722.16    4.311687e-03
   7722.44    4.653820e-03
   7722.73    4.995953e-03
   7723.02    5.362969e-03
   7723.31    6.028582e-03
   7723.60    6.694196e-03
   7723.89    7.359809e-03
   7724.18    8.757702e-03
   7724.47    1.061327e-02
   7724.76    1.246884e-02
   7725.04    1.449429e-02
   7725.33    1.746897e-02
   7725.62    2.038908e-02
   7725.91    2.319337e-02
   7726.20    2.600503e-02
   7726.49    2.904539e-02
   7726.78    3.246627e-02
   7727.07    3.654530e-02
   7727.36    4.138194e-02
   7727.64    4.714250e-02
   7727.93    5.384172e-02
   7728.22    6.126528e-02
   7728.51    6.909792e-02
   7728.80    7.691289e-02
   7729.09    8.451287e-02
   7729.38    9.198512e-02
   7729.67    9.929285e-02
   7729.96    1.062171e-01
   7730.24    1.123607e-01
   7730.53    1.172152e-01
   7730.82    1.206094e-01
   7731.11    1.224987e-01
   7731.40    1.229447e-01
   7731.69    1.221100e-01
   7731.98    1.202399e-01
   7732.27    1.176155e-01
   7732.56    1.145911e-01
   7732.84    1.114904e-01
   7733.13    1.085351e-01
   7733.42    1.058876e-01
   7733.71    1.036523e-01
   7734.00    1.018794e-01
   7734.29    1.006241e-01
   7734.58    9.979261e-02
   7734.87    9.932659e-02
   7735.16    9.915406e-02
   7735.44    9.919529e-02
   7735.73    9.936807e-02
   7736.02    9.959169e-02
   7736.31    9.978622e-02
   7736.60    9.989734e-02
   7736.89    9.989150e-02
   7737.18    9.975562e-02
   7737.47    9.949639e-02
   7737.76    9.913631e-02
   7738.04    9.871076e-02
   7738.33    9.827139e-02
   7738.62    9.785901e-02
   7738.91    9.750916e-02
   7739.20    9.724949e-02
   7739.49    9.709865e-02
   7739.78    9.707635e-02
   7740.07    9.720411e-02
   7740.36    9.750150e-02
   7740.64    9.779889e-02
   7740.93    9.809628e-02
   7741.22    9.853183e-02
   7741.51    9.900883e-02
   7741.80    9.948583e-02
   7742.09    9.993310e-02
   7742.38    1.003135e-01
   7742.67    1.006939e-01
   7742.96    1.010743e-01
   7743.24    1.011629e-01
   7743.53    1.011986e-01
   7743.82    1.012342e-01
   7744.11    1.010947e-01
   7744.40    1.006750e-01
   7744.69    1.002552e-01
   7744.98    9.983550e-02
   7745.27    9.907771e-02
   7745.56    9.829176e-02
   7745.84    9.750581e-02
   7746.13    9.664407e-02
   7746.42    9.569393e-02
   7746.71    9.474378e-02
   7747.00    9.379363e-02
   7747.29    9.286308e-02
   7747.58    9.193252e-02
   7747.87    9.100196e-02
   7748.16    9.013552e-02
   7748.44    8.932405e-02
   7748.73    8.851258e-02
   7749.02    8.771176e-02
   7749.31    8.703888e-02
   7749.60    8.636601e-02
   7749.89    8.569313e-02
   7750.18    8.508760e-02
   7750.47    8.452416e-02
   7750.76    8.396072e-02
   7751.04    8.340680e-02
   7751.33    8.290520e-02
   7751.62    8.240361e-02
   7751.91    8.190201e-02
   7752.20    8.141190e-02
   7752.49    8.092689e-02
   7752.78    8.044188e-02
   7753.07    7.995311e-02
   7753.36    7.945177e-02
   7753.64    7.895043e-02
   7753.93    7.844909e-02
   7754.22    7.792062e-02
   7754.51    7.738401e-02
   7754.80    7.684740e-02
   7755.09    7.629780e-02
   7755.38    7.571897e-02
   7755.67    7.514014e-02
   7755.96    7.456131e-02
   7756.24    7.395089e-02
   7756.53    7.333473e-02
   7756.82    7.271857e-02
   7757.11    7.209649e-02
   7757.40    7.146493e-02
   7757.69    7.083337e-02
   7757.98    7.020182e-02
   7758.27    6.959986e-02
   7758.56    6.900037e-02
   7758.84    6.840087e-02
   7759.13    6.784880e-02
   7759.42    6.735203e-02
   7759.71    6.685527e-02
   7760.00    6.635851e-02
