 FDMNES
  energy    <xanes>
   7695.00    5.286545e-04
   7695.29    5.343396e-04
   7695.58    5.400246e-04
   7695.87    5.457097e-04
   7696.16    5.516093e-04
   7696.44    5.576927e-04
   7696.73    5.637761e-04
   7697.02    5.698934e-04
   7697.31    5.764172e-04
   7697.60    5.829410e-04
   7697.89    5.894649e-04
   7698.18    5.962894e-04
   7698.47    6.033018e-04
   7698.76    6.103142e-04
   7699.04    6.174102e-04
   7699.33    6.249665e-04
   7699.62    6.325228e-04
   7699.91    6.400791e-04
   7700.20    6.480561e-04
   7700.49    6.562202e-04
   7700.78    6.643842e-04
   7701.07    6.727056e-04
   7701.36    6.815515e-04
   7701.64    6.903975e-04
   7701.93    6.992434e-04
   7702.22    7.086804e-04
   7702.51    7.182947e-04
   7702.80    7.279090e-04
   7703.09    7.377911e-04
   7703.38    7.482754e-04
   7703.67    7.587597e-04
   7703.96    7.692440e-04
   7704.24    7.805660e-04
   7704.53    7.920403e-04
   7704.82    8.035147e-04
   7705.11    8.154248e-04
   7705.40    8.280321e-04
   7705.69    8.406394e-04
   7705.98    8.532466e-04
   7706.27    8.670580e-04
   7706.56    8.809697e-04
   7706.84    8.948814e-04
   7707.13    9.094908e-04
   7707.42    9.249144e-04
   7707.71    9.403379e-04
   7708.00    9.557615e-04
   7708.29    9.729502e-04
   7708.58    9.901390e-04
   7708.87    1.007328e-03
   7709.16    1.025635e-03
   7709.44    1.044902e-03
   7709.73    1.064169e-03
   7710.02    1.083626e-03
   7710.31    1.105361e-03
   7710.60    1.127096e-03
   7710.89    1.148832e-03
   7711.18    1.172390e-03
   7711.47    1.197088e-03
   7711.76    1.221786e-03
   7712.04    1.247038e-03
   7712.33    1.275333e-03
   7712.62    1.303629e-03
   7712.91    1.331924e-03
   7713.20    1.363285e-03
   7713.49    1.396007e-03
   7713.78    1.428730e-03
   7714.07    1.462729e-03
   7714.36    1.500983e-03
   7714.64    1.539238e-03
   7714.93    1.577492e-03
   7715.22    1.621162e-03
   7715.51    1.666456e-03
   7715.80    1.711750e-03
   7716.09    1.759862e-03
   7716.38    1.814311e-03
   7716.67    1.868760e-03
   7716.96    1.923210e-03
   7717.24    1.988004e-03
   7717.53    2.054679e-03
   7717.82    2.121354e-03
   7718.11    2.194521e-03
   7718.40    2.278076e-03
   7718.69    2.361631e-03
   7718.98    2.445186e-03
   7719.27    2.551211e-03
   7719.56    2.659109e-03
   7719.84    2.767007e-03
   7720.13    2.892106e-03
   7720.42    3.037275e-03
   7720.71    3.182443e-03
   7721.00    3.327612e-03
   7721.29    3.535139e-03
   7721.58    3.742667e-03
   7721.87    3.950195e-03
   7722.16    4.222772e-03
   7722.44    4.551107e-03
   7722.73    4.879441e-03
   7723.02    5.231562e-03
   7723.31    5.869115e-03
   7723.60    6.506669e-03
   7723.89    7.144222e-03
   7724.18    8.479866e-03
   7724.47    1.025182e-02
   7724.76    1.202377e-02
   7725.04    1.394910e-02
   7725.33    1.671177e-02
   7725.62    1.938377e-02
   7725.91    2.197255e-02
   7726.20    2.463800e-02
   7726.49    2.760972e-02
   7726.78    3.098480e-02
   7727.07    3.497844e-02
   7727.36    3.962130e-02
   7727.64    4.498319e-02
   7727.93    5.101897e-02
   7728.22    5.758591e-02
   7728.51    6.459972e-02
   7728.80    7.188225e-02
   7729.09    7.938413e-02
   7729.38    8.698757e-02
   7729.67    9.458770e-02
   7729.96    1.019675e-01
   7730.24    1.087480e-01
   7730.53    1.142820e-01
   7730.82    1.181030e-01
   7731.11    1.199399e-01
   7731.40    1.198504e-01
   7731.69    1.182359e-01
   7731.98    1.156791e-01
   7732.27    1.127505e-01
   7732.56    1.099261e-01
   7732.84    1.074639e-01
   7733.13    1.054861e-01
   7733.42    1.040372e-01
   7733.71    1.031140e-01
   7734.00    1.026811e-01
   7734.29    1.027220e-01
   7734.58    1.030983e-01
   7734.87    1.037170e-01
   7735.16    1.044765e-01
   7735.44    1.052708e-01
   7735.73    1.059939e-01
   7736.02    1.065297e-01
   7736.31    1.067890e-01
   7736.60    1.067286e-01
   7736.89    1.063267e-01
   7737.18    1.055931e-01
   7737.47    1.045670e-01
   7737.76    1.033073e-01
   7738.04    1.018854e-01
   7738.33    1.004011e-01
   7738.62    9.892559e-02
   7738.91    9.751910e-02
   7739.20    9.622844e-02
   7739.49    9.508684e-02
   7739.78    9.412991e-02
   7740.07    9.341103e-02
   7740.36    9.299035e-02
   7740.64    9.256968e-02
   7740.93    9.214901e-02
   7741.22    9.213769e-02
   7741.51    9.224917e-02
   7741.80    9.236066e-02
   7742.09    9.257274e-02
   7742.38    9.301117e-02
   7742.67    9.344959e-02
   7742.96    9.388802e-02
   7743.24    9.438112e-02
   7743.53    9.488415e-02
   7743.82    9.538719e-02
   7744.11    9.581556e-02
   7744.40    9.612449e-02
   7744.69    9.643341e-02
   7744.98    9.674233e-02
   7745.27    9.671674e-02
   7745.56    9.666326e-02
   7745.84    9.660979e-02
   7746.13    9.638394e-02
   7746.42    9.595698e-02
   7746.71    9.553002e-02
   7747.00    9.510306e-02
   7747.29    9.442113e-02
   7747.58    9.373921e-02
   7747.87    9.305729e-02
   7748.16    9.232434e-02
   7748.44    9.154765e-02
   7748.73    9.077096e-02
   7749.02    8.999646e-02
   7749.31    8.924818e-02
   7749.60    8.849989e-02
   7749.89    8.775160e-02
   7750.18    8.705606e-02
   7750.47    8.639348e-02
   7750.76    8.573090e-02
   7751.04    8.508214e-02
   7751.33    8.450936e-02
   7751.62    8.393658e-02
   7751.91    8.336380e-02
   7752.20    8.283650e-02
   7752.49    8.232942e-02
   7752.78    8.182233e-02
   7753.07    8.132303e-02
   7753.36    8.084967e-02
   7753.64    8.037631e-02
   7753.93    7.990295e-02
   7754.22    7.943472e-02
   7754.51    7.896802e-02
   7754.80    7.850132e-02
   7755.09    7.803209e-02
   7755.38    7.755716e-02
   7755.67    7.708223e-02
   7755.96    7.660730e-02
   7756.24    7.612570e-02
   7756.53    7.564290e-02
   7756.82    7.516009e-02
   7757.11    7.468027e-02
   7757.40    7.420523e-02
   7757.69    7.373020e-02
   7757.98    7.325517e-02
   7758.27    7.281555e-02
   7758.56    7.237888e-02
   7758.84    7.194222e-02
   7759.13    7.154290e-02
   7759.42    7.118715e-02
   7759.71    7.083140e-02
   7760.00    7.047565e-02
