 FDMNES
  energy    <xanes>
   7695.00    5.422452e-04
   7695.29    5.481259e-04
   7695.58    5.540067e-04
   7695.87    5.598874e-04
   7696.16    5.659930e-04
   7696.44    5.722914e-04
   7696.73    5.785898e-04
   7697.02    5.849238e-04
   7697.31    5.916846e-04
   7697.60    5.984455e-04
   7697.89    6.052064e-04
   7698.18    6.122834e-04
   7698.47    6.195581e-04
   7698.76    6.268328e-04
   7699.04    6.341956e-04
   7699.33    6.420433e-04
   7699.62    6.498909e-04
   7699.91    6.577386e-04
   7700.20    6.660302e-04
   7700.49    6.745193e-04
   7700.78    6.830083e-04
   7701.07    6.916637e-04
   7701.36    7.008737e-04
   7701.64    7.100837e-04
   7701.93    7.192937e-04
   7702.22    7.291300e-04
   7702.51    7.391541e-04
   7702.80    7.491782e-04
   7703.09    7.594866e-04
   7703.38    7.704344e-04
   7703.67    7.813823e-04
   7703.96    7.923301e-04
   7704.24    8.041696e-04
   7704.53    8.161711e-04
   7704.82    8.281726e-04
   7705.11    8.406391e-04
   7705.40    8.538494e-04
   7705.69    8.670597e-04
   7705.98    8.802700e-04
   7706.27    8.947685e-04
   7706.56    9.093743e-04
   7706.84    9.239801e-04
   7707.13    9.393345e-04
   7707.42    9.555624e-04
   7707.71    9.717903e-04
   7708.00    9.880181e-04
   7708.29    1.006146e-03
   7708.58    1.024274e-03
   7708.87    1.042401e-03
   7709.16    1.061738e-03
   7709.44    1.082109e-03
   7709.73    1.102481e-03
   7710.02    1.123059e-03
   7710.31    1.146106e-03
   7710.60    1.169154e-03
   7710.89    1.192201e-03
   7711.18    1.217233e-03
   7711.47    1.243504e-03
   7711.76    1.269776e-03
   7712.04    1.296652e-03
   7712.33    1.326856e-03
   7712.62    1.357059e-03
   7712.91    1.387263e-03
   7713.20    1.420831e-03
   7713.49    1.455896e-03
   7713.78    1.490960e-03
   7714.07    1.527434e-03
   7714.36    1.568604e-03
   7714.64    1.609775e-03
   7714.93    1.650946e-03
   7715.22    1.698127e-03
   7715.51    1.747112e-03
   7715.80    1.796097e-03
   7716.09    1.848229e-03
   7716.38    1.907439e-03
   7716.67    1.966650e-03
   7716.96    2.025860e-03
   7717.24    2.096704e-03
   7717.53    2.169663e-03
   7717.82    2.242622e-03
   7718.11    2.322936e-03
   7718.40    2.415018e-03
   7718.69    2.507100e-03
   7718.98    2.599182e-03
   7719.27    2.716925e-03
   7719.56    2.836806e-03
   7719.84    2.956687e-03
   7720.13    3.096376e-03
   7720.42    3.259174e-03
   7720.71    3.421971e-03
   7721.00    3.584769e-03
   7721.29    3.819926e-03
   7721.58    4.055084e-03
   7721.87    4.290241e-03
   7722.16    4.601214e-03
   7722.44    4.977171e-03
   7722.73    5.353128e-03
   7723.02    5.756633e-03
   7723.31    6.490712e-03
   7723.60    7.224790e-03
   7723.89    7.958869e-03
   7724.18    9.496345e-03
   7724.47    1.153594e-02
   7724.76    1.357554e-02
   7725.04    1.580928e-02
   7725.33    1.916445e-02
   7725.62    2.260134e-02
   7725.91    2.610358e-02
   7726.20    2.975322e-02
   7726.49    3.374753e-02
   7726.78    3.816494e-02
   7727.07    4.319728e-02
   7727.36    4.879565e-02
   7727.64    5.489378e-02
   7727.93    6.135594e-02
   7728.22    6.808323e-02
   7728.51    7.513469e-02
   7728.80    8.254589e-02
   7729.09    9.044579e-02
   7729.38    9.862984e-02
   7729.67    1.068045e-01
   7729.96    1.145487e-01
   7730.24    1.213909e-01
   7730.53    1.267494e-01
   7730.82    1.303983e-01
   7731.11    1.322561e-01
   7731.40    1.323989e-01
   7731.69    1.310665e-01
   7731.98    1.286125e-01
   7732.27    1.254113e-01
   7732.56    1.218544e-01
   7732.84    1.182352e-01
   7733.13    1.147199e-01
   7733.42    1.114146e-01
   7733.71    1.083847e-01
   7734.00    1.056690e-01
   7734.29    1.033274e-01
   7734.58    1.013230e-01
   7734.87    9.964433e-02
   7735.16    9.826957e-02
   7735.44    9.716750e-02
   7735.73    9.629954e-02
   7736.02    9.563141e-02
   7736.31    9.510639e-02
   7736.60    9.466950e-02
   7736.89    9.427941e-02
   7737.18    9.390185e-02
   7737.47    9.351193e-02
   7737.76    9.309491e-02
   7738.04    9.264571e-02
   7738.33    9.217608e-02
   7738.62    9.170185e-02
   7738.91    9.124309e-02
   7739.20    9.082127e-02
   7739.49    9.045668e-02
   7739.78    9.017369e-02
   7740.07    9.001059e-02
   7740.36    9.000768e-02
   7740.64    9.000477e-02
   7740.93    9.000186e-02
   7741.22    9.022213e-02
   7741.51    9.050934e-02
   7741.80    9.079656e-02
   7742.09    9.112024e-02
   7742.38    9.152596e-02
   7742.67    9.193169e-02
   7742.96    9.233741e-02
   7743.24    9.265449e-02
   7743.53    9.295545e-02
   7743.82    9.325641e-02
   7744.11    9.345053e-02
   7744.40    9.347373e-02
   7744.69    9.349692e-02
   7744.98    9.352011e-02
   7745.27    9.323770e-02
   7745.56    9.292982e-02
   7745.84    9.262195e-02
   7746.13    9.219517e-02
   7746.42    9.162968e-02
   7746.71    9.106419e-02
   7747.00    9.049870e-02
   7747.29    8.981352e-02
   7747.58    8.912833e-02
   7747.87    8.844315e-02
   7748.16    8.776309e-02
   7748.44    8.708743e-02
   7748.73    8.641178e-02
   7749.02    8.574307e-02
   7749.31    8.515782e-02
   7749.60    8.457257e-02
   7749.89    8.398732e-02
   7750.18    8.347567e-02
   7750.47    8.301004e-02
   7750.76    8.254440e-02
   7751.04    8.209576e-02
   7751.33    8.174061e-02
   7751.62    8.138546e-02
   7751.91    8.103031e-02
   7752.20    8.072910e-02
   7752.49    8.045187e-02
   7752.78    8.017463e-02
   7753.07    7.990543e-02
   7753.36    7.966299e-02
   7753.64    7.942055e-02
   7753.93    7.917811e-02
   7754.22    7.892983e-02
   7754.51    7.867979e-02
   7754.80    7.842974e-02
   7755.09    7.816760e-02
   7755.38    7.787821e-02
   7755.67    7.758882e-02
   7755.96    7.729943e-02
   7756.24    7.696595e-02
   7756.53    7.662446e-02
   7756.82    7.628297e-02
   7757.11    7.592608e-02
   7757.40    7.554457e-02
   7757.69    7.516305e-02
   7757.98    7.478154e-02
   7758.27    7.439900e-02
   7758.56    7.401638e-02
   7758.84    7.363377e-02
   7759.13    7.327757e-02
   7759.42    7.295221e-02
   7759.71    7.262684e-02
   7760.00    7.230147e-02
