 FDMNES
  energy    <xanes>
   7695.00    5.134695e-04
   7695.29    5.192665e-04
   7695.58    5.250635e-04
   7695.87    5.308605e-04
   7696.16    5.368847e-04
   7696.44    5.431035e-04
   7696.73    5.493224e-04
   7697.02    5.555773e-04
   7697.31    5.622640e-04
   7697.60    5.689508e-04
   7697.89    5.756375e-04
   7698.18    5.826447e-04
   7698.47    5.898522e-04
   7698.76    5.970596e-04
   7699.04    6.043565e-04
   7699.33    6.121455e-04
   7699.62    6.199345e-04
   7699.91    6.277235e-04
   7700.20    6.359640e-04
   7700.49    6.444052e-04
   7700.78    6.528463e-04
   7701.07    6.614569e-04
   7701.36    6.706324e-04
   7701.64    6.798079e-04
   7701.93    6.889834e-04
   7702.22    6.987979e-04
   7702.51    7.088042e-04
   7702.80    7.188104e-04
   7703.09    7.291072e-04
   7703.38    7.400578e-04
   7703.67    7.510084e-04
   7703.96    7.619590e-04
   7704.24    7.738229e-04
   7704.53    7.858528e-04
   7704.82    7.978827e-04
   7705.11    8.103898e-04
   7705.40    8.236604e-04
   7705.69    8.369310e-04
   7705.98    8.502016e-04
   7706.27    8.647971e-04
   7706.56    8.795030e-04
   7706.84    8.942089e-04
   7707.13    9.096866e-04
   7707.42    9.260645e-04
   7707.71    9.424425e-04
   7708.00    9.588205e-04
   7708.29    9.771613e-04
   7708.58    9.955022e-04
   7708.87    1.013843e-03
   7709.16    1.033435e-03
   7709.44    1.054100e-03
   7709.73    1.074765e-03
   7710.02    1.095643e-03
   7710.31    1.119086e-03
   7710.60    1.142529e-03
   7710.89    1.165971e-03
   7711.18    1.191479e-03
   7711.47    1.218278e-03
   7711.76    1.245076e-03
   7712.04    1.272506e-03
   7712.33    1.303409e-03
   7712.62    1.334311e-03
   7712.91    1.365214e-03
   7713.20    1.399639e-03
   7713.49    1.435630e-03
   7713.78    1.471621e-03
   7714.07    1.509091e-03
   7714.36    1.551493e-03
   7714.64    1.593895e-03
   7714.93    1.636297e-03
   7715.22    1.685030e-03
   7715.51    1.735663e-03
   7715.80    1.786296e-03
   7716.09    1.840255e-03
   7716.38    1.901695e-03
   7716.67    1.963135e-03
   7716.96    2.024575e-03
   7717.24    2.098354e-03
   7717.53    2.174376e-03
   7717.82    2.250398e-03
   7718.11    2.334251e-03
   7718.40    2.430633e-03
   7718.69    2.527015e-03
   7718.98    2.623397e-03
   7719.27    2.747209e-03
   7719.56    2.873307e-03
   7719.84    2.999405e-03
   7720.13    3.146768e-03
   7720.42    3.318943e-03
   7720.71    3.491117e-03
   7721.00    3.663291e-03
   7721.29    3.913549e-03
   7721.58    4.163807e-03
   7721.87    4.414065e-03
   7722.16    4.746703e-03
   7722.44    5.149954e-03
   7722.73    5.553204e-03
   7723.02    5.986749e-03
   7723.31    6.783834e-03
   7723.60    7.580919e-03
   7723.89    8.378004e-03
   7724.18    1.006501e-02
   7724.47    1.230821e-02
   7724.76    1.455141e-02
   7725.04    1.699861e-02
   7725.33    2.059770e-02
   7725.62    2.421238e-02
   7725.91    2.784003e-02
   7726.20    3.155578e-02
   7726.49    3.547781e-02
   7726.78    3.968894e-02
   7727.07    4.445936e-02
   7727.36    4.995953e-02
   7727.64    5.645342e-02
   7727.93    6.414056e-02
   7728.22    7.315463e-02
   7728.51    8.377298e-02
   7728.80    9.562649e-02
   7729.09    1.082409e-01
   7729.38    1.203648e-01
   7729.67    1.303446e-01
   7729.96    1.372824e-01
   7730.24    1.407673e-01
   7730.53    1.409794e-01
   7730.82    1.389660e-01
   7731.11    1.355040e-01
   7731.40    1.311680e-01
   7731.69    1.263949e-01
   7731.98    1.215180e-01
   7732.27    1.168103e-01
   7732.56    1.124867e-01
   7732.84    1.086497e-01
   7733.13    1.053649e-01
   7733.42    1.026538e-01
   7733.71    1.005009e-01
   7734.00    9.886370e-02
   7734.29    9.772674e-02
   7734.58    9.695505e-02
   7734.87    9.646797e-02
   7735.16    9.618329e-02
   7735.44    9.602066e-02
   7735.73    9.590499e-02
   7736.02    9.576486e-02
   7736.31    9.554164e-02
   7736.60    9.520434e-02
   7736.89    9.473924e-02
   7737.18    9.415100e-02
   7737.47    9.346008e-02
   7737.76    9.269787e-02
   7738.04    9.190465e-02
   7738.33    9.112519e-02
   7738.62    9.039351e-02
   7738.91    8.973719e-02
   7739.20    8.917655e-02
   7739.49    8.872474e-02
   7739.78    8.839839e-02
   7740.07    8.822355e-02
   7740.36    8.823050e-02
   7740.64    8.823745e-02
   7740.93    8.824440e-02
   7741.22    8.846701e-02
   7741.51    8.875432e-02
   7741.80    8.904164e-02
   7742.09    8.935398e-02
   7742.38    8.972264e-02
   7742.67    9.009131e-02
   7742.96    9.045997e-02
   7743.24    9.070755e-02
   7743.53    9.093310e-02
   7743.82    9.115866e-02
   7744.11    9.127665e-02
   7744.40    9.122254e-02
   7744.69    9.116842e-02
   7744.98    9.111430e-02
   7745.27    9.080290e-02
   7745.56    9.047005e-02
   7745.84    9.013721e-02
   7746.13    8.971870e-02
   7746.42    8.920026e-02
   7746.71    8.868183e-02
   7747.00    8.816339e-02
   7747.29    8.756410e-02
   7747.58    8.696482e-02
   7747.87    8.636554e-02
   7748.16    8.576407e-02
   7748.44    8.516072e-02
   7748.73    8.455737e-02
   7749.02    8.395689e-02
   7749.31    8.339073e-02
   7749.60    8.282457e-02
   7749.89    8.225842e-02
   7750.18    8.171897e-02
   7750.47    8.119622e-02
   7750.76    8.067346e-02
   7751.04    8.015442e-02
   7751.33    7.965576e-02
   7751.62    7.915710e-02
   7751.91    7.865844e-02
   7752.20    7.815572e-02
   7752.49    7.765121e-02
   7752.78    7.714669e-02
   7753.07    7.663453e-02
   7753.36    7.609689e-02
   7753.64    7.555925e-02
   7753.93    7.502160e-02
   7754.22    7.444735e-02
   7754.51    7.386212e-02
   7754.80    7.327689e-02
   7755.09    7.267859e-02
   7755.38    7.205091e-02
   7755.67    7.142322e-02
   7755.96    7.079554e-02
   7756.24    7.015448e-02
   7756.53    6.951100e-02
   7756.82    6.886751e-02
   7757.11    6.823476e-02
   7757.40    6.761918e-02
   7757.69    6.700359e-02
   7757.98    6.638801e-02
   7758.27    6.584501e-02
   7758.56    6.530807e-02
   7758.84    6.477112e-02
   7759.13    6.429024e-02
   7759.42    6.387478e-02
   7759.71    6.345932e-02
   7760.00    6.304386e-02
