 FDMNES
  energy    <xanes>
   7695.00    5.113965e-04
   7695.29    5.171319e-04
   7695.58    5.228674e-04
   7695.87    5.286029e-04
   7696.16    5.345615e-04
   7696.44    5.407113e-04
   7696.73    5.468611e-04
   7697.02    5.530462e-04
   7697.31    5.596553e-04
   7697.60    5.662643e-04
   7697.89    5.728733e-04
   7698.18    5.797966e-04
   7698.47    5.869162e-04
   7698.76    5.940359e-04
   7699.04    6.012433e-04
   7699.33    6.089330e-04
   7699.62    6.166226e-04
   7699.91    6.243123e-04
   7700.20    6.324441e-04
   7700.49    6.407724e-04
   7700.78    6.491007e-04
   7701.07    6.575949e-04
   7701.36    6.666418e-04
   7701.64    6.756888e-04
   7701.93    6.847357e-04
   7702.22    6.944075e-04
   7702.51    7.042667e-04
   7702.80    7.141259e-04
   7703.09    7.242689e-04
   7703.38    7.350508e-04
   7703.67    7.458326e-04
   7703.96    7.566144e-04
   7704.24    7.682877e-04
   7704.53    7.801231e-04
   7704.82    7.919584e-04
   7705.11    8.042592e-04
   7705.40    8.173046e-04
   7705.69    8.303499e-04
   7705.98    8.433953e-04
   7706.27    8.577317e-04
   7706.56    8.721756e-04
   7706.84    8.866196e-04
   7707.13    9.018148e-04
   7707.42    9.178865e-04
   7707.71    9.339582e-04
   7708.00    9.500300e-04
   7708.29    9.680108e-04
   7708.58    9.859916e-04
   7708.87    1.003972e-03
   7709.16    1.023169e-03
   7709.44    1.043409e-03
   7709.73    1.063648e-03
   7710.02    1.084094e-03
   7710.31    1.107031e-03
   7710.60    1.129967e-03
   7710.89    1.152903e-03
   7711.18    1.177843e-03
   7711.47    1.204034e-03
   7711.76    1.230226e-03
   7712.04    1.257030e-03
   7712.33    1.287201e-03
   7712.62    1.317371e-03
   7712.91    1.347541e-03
   7713.20    1.381125e-03
   7713.49    1.416225e-03
   7713.78    1.451326e-03
   7714.07    1.487860e-03
   7714.36    1.529170e-03
   7714.64    1.570481e-03
   7714.93    1.611792e-03
   7715.22    1.659236e-03
   7715.51    1.708521e-03
   7715.80    1.757806e-03
   7716.09    1.810315e-03
   7716.38    1.870078e-03
   7716.67    1.929840e-03
   7716.96    1.989603e-03
   7717.24    2.061351e-03
   7717.53    2.135277e-03
   7717.82    2.209204e-03
   7718.11    2.290763e-03
   7718.40    2.384534e-03
   7718.69    2.478306e-03
   7718.98    2.572078e-03
   7719.27    2.692757e-03
   7719.56    2.815679e-03
   7719.84    2.938601e-03
   7720.13    3.082627e-03
   7720.42    3.251276e-03
   7720.71    3.419924e-03
   7721.00    3.588572e-03
   7721.29    3.836386e-03
   7721.58    4.084199e-03
   7721.87    4.332013e-03
   7722.16    4.666861e-03
   7722.44    5.076310e-03
   7722.73    5.485758e-03
   7723.02    5.929875e-03
   7723.31    6.790015e-03
   7723.60    7.650156e-03
   7723.89    8.510296e-03
   7724.18    1.046135e-02
   7724.47    1.309423e-02
   7724.76    1.572711e-02
   7725.04    1.854388e-02
   7725.33    2.213335e-02
   7725.62    2.490435e-02
   7725.91    2.711049e-02
   7726.20    2.942080e-02
   7726.49    3.231532e-02
   7726.78    3.584225e-02
   7727.07    4.018554e-02
   7727.36    4.531848e-02
   7727.64    5.136928e-02
   7727.93    5.845622e-02
   7728.22    6.665651e-02
   7728.51    7.617890e-02
   7728.80    8.675581e-02
   7729.09    9.821627e-02
   7729.38    1.097559e-01
   7729.67    1.202923e-01
   7729.96    1.288095e-01
   7730.24    1.343689e-01
   7730.53    1.363526e-01
   7730.82    1.353973e-01
   7731.11    1.323301e-01
   7731.40    1.279693e-01
   7731.69    1.230072e-01
   7731.98    1.179562e-01
   7732.27    1.131813e-01
   7732.56    1.089102e-01
   7732.84    1.052107e-01
   7733.13    1.021157e-01
   7733.42    9.961982e-02
   7733.71    9.769136e-02
   7734.00    9.628222e-02
   7734.29    9.538056e-02
   7734.58    9.485695e-02
   7734.87    9.463562e-02
   7735.16    9.463651e-02
   7735.44    9.477841e-02
   7735.73    9.498293e-02
   7736.02    9.517441e-02
   7736.31    9.528845e-02
   7736.60    9.528960e-02
   7736.89    9.516181e-02
   7737.18    9.490931e-02
   7737.47    9.455418e-02
   7737.76    9.413127e-02
   7738.04    9.368664e-02
   7738.33    9.326950e-02
   7738.62    9.291806e-02
   7738.91    9.266288e-02
   7739.20    9.252557e-02
   7739.49    9.251875e-02
   7739.78    9.265776e-02
   7740.07    9.295884e-02
   7740.36    9.343693e-02
   7740.64    9.391503e-02
   7740.93    9.439313e-02
   7741.22    9.498808e-02
   7741.51    9.561809e-02
   7741.80    9.624810e-02
   7742.09    9.682292e-02
   7742.38    9.727358e-02
   7742.67    9.772424e-02
   7742.96    9.817490e-02
   7743.24    9.826483e-02
   7743.53    9.828918e-02
   7743.82    9.831352e-02
   7744.11    9.815319e-02
   7744.40    9.769740e-02
   7744.69    9.724160e-02
   7744.98    9.678581e-02
   7745.27    9.600326e-02
   7745.56    9.519348e-02
   7745.84    9.438370e-02
   7746.13    9.350198e-02
   7746.42    9.253632e-02
   7746.71    9.157065e-02
   7747.00    9.060499e-02
   7747.29    8.965817e-02
   7747.58    8.871135e-02
   7747.87    8.776453e-02
   7748.16    8.688618e-02
   7748.44    8.606652e-02
   7748.73    8.524686e-02
   7749.02    8.443946e-02
   7749.31    8.377908e-02
   7749.60    8.311870e-02
   7749.89    8.245833e-02
   7750.18    8.187926e-02
   7750.47    8.135101e-02
   7750.76    8.082276e-02
   7751.04    8.030628e-02
   7751.33    7.985455e-02
   7751.62    7.940281e-02
   7751.91    7.895108e-02
   7752.20    7.851198e-02
   7752.49    7.807849e-02
   7752.78    7.764500e-02
   7753.07    7.720495e-02
   7753.36    7.674302e-02
   7753.64    7.628109e-02
   7753.93    7.581916e-02
   7754.22    7.531296e-02
   7754.51    7.479346e-02
   7754.80    7.427397e-02
   7755.09    7.373403e-02
   7755.38    7.314808e-02
   7755.67    7.256212e-02
   7755.96    7.197617e-02
   7756.24    7.134534e-02
   7756.53    7.070636e-02
   7756.82    7.006737e-02
   7757.11    6.942230e-02
   7757.40    6.876750e-02
   7757.69    6.811270e-02
   7757.98    6.745790e-02
   7758.27    6.684363e-02
   7758.56    6.623274e-02
   7758.84    6.562185e-02
   7759.13    6.506379e-02
   7759.42    6.456736e-02
   7759.71    6.407094e-02
   7760.00    6.357452e-02
