 FDMNES
  energy    <xanes>
   7695.00    5.435859e-04
   7695.29    5.495423e-04
   7695.58    5.554987e-04
   7695.87    5.614550e-04
   7696.16    5.676414e-04
   7696.44    5.740250e-04
   7696.73    5.804086e-04
   7697.02    5.868286e-04
   7697.31    5.936856e-04
   7697.60    6.005426e-04
   7697.89    6.073997e-04
   7698.18    6.145808e-04
   7698.47    6.219644e-04
   7698.76    6.293480e-04
   7699.04    6.368221e-04
   7699.33    6.447935e-04
   7699.62    6.527649e-04
   7699.91    6.607363e-04
   7700.20    6.691638e-04
   7700.49    6.777940e-04
   7700.78    6.864241e-04
   7701.07    6.952254e-04
   7701.36    7.045969e-04
   7701.64    7.139685e-04
   7701.93    7.233400e-04
   7702.22    7.333564e-04
   7702.51    7.435662e-04
   7702.80    7.537760e-04
   7703.09    7.642788e-04
   7703.38    7.754411e-04
   7703.67    7.866033e-04
   7703.96    7.977655e-04
   7704.24    8.098484e-04
   7704.53    8.220987e-04
   7704.82    8.343489e-04
   7705.11    8.470801e-04
   7705.40    8.605806e-04
   7705.69    8.740810e-04
   7705.98    8.875815e-04
   7706.27    9.024166e-04
   7706.56    9.173629e-04
   7706.84    9.323092e-04
   7707.13    9.480326e-04
   7707.42    9.646627e-04
   7707.71    9.812928e-04
   7708.00    9.979229e-04
   7708.29    1.016529e-03
   7708.58    1.035135e-03
   7708.87    1.053742e-03
   7709.16    1.073608e-03
   7709.44    1.094553e-03
   7709.73    1.115499e-03
   7710.02    1.136660e-03
   7710.31    1.160401e-03
   7710.60    1.184143e-03
   7710.89    1.207885e-03
   7711.18    1.233706e-03
   7711.47    1.260825e-03
   7711.76    1.287945e-03
   7712.04    1.315701e-03
   7712.33    1.346953e-03
   7712.62    1.378205e-03
   7712.91    1.409456e-03
   7713.20    1.444256e-03
   7713.49    1.480632e-03
   7713.78    1.517009e-03
   7714.07    1.554876e-03
   7714.36    1.597712e-03
   7714.64    1.640549e-03
   7714.93    1.683385e-03
   7715.22    1.732606e-03
   7715.51    1.783742e-03
   7715.80    1.834877e-03
   7716.09    1.889369e-03
   7716.38    1.951411e-03
   7716.67    2.013453e-03
   7716.96    2.075495e-03
   7717.24    2.150002e-03
   7717.53    2.226775e-03
   7717.82    2.303548e-03
   7718.11    2.388242e-03
   7718.40    2.485607e-03
   7718.69    2.582973e-03
   7718.98    2.680339e-03
   7719.27    2.805480e-03
   7719.56    2.932936e-03
   7719.84    3.060392e-03
   7720.13    3.209397e-03
   7720.42    3.383544e-03
   7720.71    3.557690e-03
   7721.00    3.731837e-03
   7721.29    3.985046e-03
   7721.58    4.238254e-03
   7721.87    4.491463e-03
   7722.16    4.827678e-03
   7722.44    5.235040e-03
   7722.73    5.642403e-03
   7723.02    6.079849e-03
   7723.31    6.878301e-03
   7723.60    7.676752e-03
   7723.89    8.475203e-03
   7724.18    1.013945e-02
   7724.47    1.234483e-02
   7724.76    1.455020e-02
   7725.04    1.695705e-02
   7725.33    2.051970e-02
   7725.62    2.418149e-02
   7725.91    2.805324e-02
   7726.20    3.230982e-02
   7726.49    3.728528e-02
   7726.78    4.298968e-02
   7727.07    4.960005e-02
   7727.36    5.690018e-02
   7727.64    6.455312e-02
   7727.93    7.212113e-02
   7728.22    7.946779e-02
   7728.51    8.692021e-02
   7728.80    9.489957e-02
   7729.09    1.037167e-01
   7729.38    1.128902e-01
   7729.67    1.215438e-01
   7729.96    1.286492e-01
   7730.24    1.332526e-01
   7730.53    1.347470e-01
   7730.82    1.337321e-01
   7731.11    1.310053e-01
   7731.40    1.273106e-01
   7731.69    1.232135e-01
   7731.98    1.190781e-01
   7732.27    1.151248e-01
   7732.56    1.114647e-01
   7732.84    1.081210e-01
   7733.13    1.051170e-01
   7733.42    1.024737e-01
   7733.71    1.002088e-01
   7734.00    9.833190e-02
   7734.29    9.688403e-02
   7734.58    9.579704e-02
   7734.87    9.503359e-02
   7735.16    9.454279e-02
   7735.44    9.426328e-02
   7735.73    9.412720e-02
   7736.02    9.406568e-02
   7736.31    9.400443e-02
   7736.60    9.388908e-02
   7736.89    9.368418e-02
   7737.18    9.337190e-02
   7737.47    9.295178e-02
   7737.76    9.243719e-02
   7738.04    9.185222e-02
   7738.33    9.123925e-02
   7738.62    9.063270e-02
   7738.91    9.006493e-02
   7739.20    8.956400e-02
   7739.49    8.915223e-02
   7739.78    8.885524e-02
   7740.07    8.871174e-02
   7740.36    8.876334e-02
   7740.64    8.881495e-02
   7740.93    8.886655e-02
   7741.22    8.917496e-02
   7741.51    8.956041e-02
   7741.80    8.994586e-02
   7742.09    9.037528e-02
   7742.38    9.090363e-02
   7742.67    9.143198e-02
   7742.96    9.196033e-02
   7743.24    9.240418e-02
   7743.53    9.283267e-02
   7743.82    9.326115e-02
   7744.11    9.357201e-02
   7744.40    9.369466e-02
   7744.69    9.381731e-02
   7744.98    9.393995e-02
   7745.27    9.370961e-02
   7745.56    9.344984e-02
   7745.84    9.319007e-02
   7746.13    9.279038e-02
   7746.42    9.222743e-02
   7746.71    9.166449e-02
   7747.00    9.110154e-02
   7747.29    9.040001e-02
   7747.58    8.969848e-02
   7747.87    8.899694e-02
   7748.16    8.830354e-02
   7748.44    8.761709e-02
   7748.73    8.693064e-02
   7749.02    8.625205e-02
   7749.31    8.566766e-02
   7749.60    8.508327e-02
   7749.89    8.449888e-02
   7750.18    8.398820e-02
   7750.47    8.352359e-02
   7750.76    8.305899e-02
   7751.04    8.260877e-02
   7751.33    8.223771e-02
   7751.62    8.186665e-02
   7751.91    8.149559e-02
   7752.20    8.115928e-02
   7752.49    8.083842e-02
   7752.78    8.051756e-02
   7753.07    8.019862e-02
   7753.36    7.988610e-02
   7753.64    7.957358e-02
   7753.93    7.926106e-02
   7754.22    7.893177e-02
   7754.51    7.859744e-02
   7754.80    7.826312e-02
   7755.09    7.791775e-02
   7755.38    7.754750e-02
   7755.67    7.717725e-02
   7755.96    7.680700e-02
   7756.24    7.640867e-02
   7756.53    7.600522e-02
   7756.82    7.560178e-02
   7757.11    7.519303e-02
   7757.40    7.477578e-02
   7757.69    7.435853e-02
   7757.98    7.394129e-02
   7758.27    7.354456e-02
   7758.56    7.314955e-02
   7758.84    7.275454e-02
   7759.13    7.239175e-02
   7759.42    7.206656e-02
   7759.71    7.174136e-02
   7760.00    7.141617e-02
