 FDMNES
  energy    <xanes>
   7695.00    5.344993e-04
   7695.29    5.400831e-04
   7695.58    5.456668e-04
   7695.87    5.512506e-04
   7696.16    5.570406e-04
   7696.44    5.630075e-04
   7696.73    5.689743e-04
   7697.02    5.749736e-04
   7697.31    5.813633e-04
   7697.60    5.877530e-04
   7697.89    5.941427e-04
   7698.18    6.008206e-04
   7698.47    6.076788e-04
   7698.76    6.145369e-04
   7699.04    6.214751e-04
   7699.33    6.288539e-04
   7699.62    6.362326e-04
   7699.91    6.436114e-04
   7700.20    6.513923e-04
   7700.49    6.593520e-04
   7700.78    6.673117e-04
   7701.07    6.754215e-04
   7701.36    6.840319e-04
   7701.64    6.926422e-04
   7701.93    7.012526e-04
   7702.22    7.104261e-04
   7702.51    7.197685e-04
   7702.80    7.291109e-04
   7703.09    7.387079e-04
   7703.38    7.488778e-04
   7703.67    7.590477e-04
   7703.96    7.692176e-04
   7704.24    7.801829e-04
   7704.53    7.912929e-04
   7704.82    8.024028e-04
   7705.11    8.139258e-04
   7705.40    8.261096e-04
   7705.69    8.382935e-04
   7705.98    8.504773e-04
   7706.27    8.638005e-04
   7706.56    8.772187e-04
   7706.84    8.906368e-04
   7707.13    9.047141e-04
   7707.42    9.195603e-04
   7707.71    9.344066e-04
   7708.00    9.492528e-04
   7708.29    9.657636e-04
   7708.58    9.822744e-04
   7708.87    9.987852e-04
   7709.16    1.016349e-03
   7709.44    1.034816e-03
   7709.73    1.053283e-03
   7710.02    1.071928e-03
   7710.31    1.092715e-03
   7710.60    1.113502e-03
   7710.89    1.134289e-03
   7711.18    1.156786e-03
   7711.47    1.180353e-03
   7711.76    1.203920e-03
   7712.04    1.228005e-03
   7712.33    1.254942e-03
   7712.62    1.281880e-03
   7712.91    1.308817e-03
   7713.20    1.338622e-03
   7713.49    1.369701e-03
   7713.78    1.400780e-03
   7714.07    1.433053e-03
   7714.36    1.469303e-03
   7714.64    1.505553e-03
   7714.93    1.541803e-03
   7715.22    1.583111e-03
   7715.51    1.625936e-03
   7715.80    1.668761e-03
   7716.09    1.714217e-03
   7716.38    1.765592e-03
   7716.67    1.816966e-03
   7716.96    1.868341e-03
   7717.24    1.929381e-03
   7717.53    1.992179e-03
   7717.82    2.054976e-03
   7718.11    2.123849e-03
   7718.40    2.202444e-03
   7718.69    2.281039e-03
   7718.98    2.359633e-03
   7719.27    2.459324e-03
   7719.56    2.560774e-03
   7719.84    2.662223e-03
   7720.13    2.779915e-03
   7720.42    2.916558e-03
   7720.71    3.053200e-03
   7721.00    3.189842e-03
   7721.29    3.385941e-03
   7721.58    3.582039e-03
   7721.87    3.778138e-03
   7722.16    4.037272e-03
   7722.44    4.350438e-03
   7722.73    4.663603e-03
   7723.02    5.000431e-03
   7723.31    5.621203e-03
   7723.60    6.241975e-03
   7723.89    6.862747e-03
   7724.18    8.193967e-03
   7724.47    9.969218e-03
   7724.76    1.174447e-02
   7725.04    1.367071e-02
   7725.33    1.640465e-02
   7725.62    1.900544e-02
   7725.91    2.149262e-02
   7726.20    2.401412e-02
   7726.49    2.670784e-02
   7726.78    2.961062e-02
   7727.07    3.282818e-02
   7727.36    3.641800e-02
   7727.64    4.055339e-02
   7727.93    4.542771e-02
   7728.22    5.118969e-02
   7728.51    5.807479e-02
   7728.80    6.591353e-02
   7729.09    7.463833e-02
   7729.38    8.354946e-02
   7729.67    9.171118e-02
   7729.96    9.822603e-02
   7730.24    1.023070e-01
   7730.53    1.035132e-01
   7730.82    1.025431e-01
   7731.11    1.003142e-01
   7731.40    9.770945e-02
   7731.69    9.537870e-02
   7731.98    9.365895e-02
   7732.27    9.264999e-02
   7732.56    9.223623e-02
   7732.84    9.219516e-02
   7733.13    9.236354e-02
   7733.42    9.262290e-02
   7733.71    9.290750e-02
   7734.00    9.319796e-02
   7734.29    9.351422e-02
   7734.58    9.388897e-02
   7734.87    9.435453e-02
   7735.16    9.493315e-02
   7735.44    9.563219e-02
   7735.73    9.644255e-02
   7736.02    9.734323e-02
   7736.31    9.828950e-02
   7736.60    9.923210e-02
   7736.89    1.001254e-01
   7737.18    1.009288e-01
   7737.47    1.016109e-01
   7737.76    1.021505e-01
   7738.04    1.025318e-01
   7738.33    1.027815e-01
   7738.62    1.029220e-01
   7738.91    1.029826e-01
   7739.20    1.029957e-01
   7739.49    1.029927e-01
   7739.78    1.030046e-01
   7740.07    1.030708e-01
   7740.36    1.032251e-01
   7740.64    1.033795e-01
   7740.93    1.035338e-01
   7741.22    1.038064e-01
   7741.51    1.041143e-01
   7741.80    1.044223e-01
   7742.09    1.047196e-01
   7742.38    1.049929e-01
   7742.67    1.052661e-01
   7742.96    1.055394e-01
   7743.24    1.055930e-01
   7743.53    1.056067e-01
   7743.82    1.056204e-01
   7744.11    1.054842e-01
   7744.40    1.051084e-01
   7744.69    1.047326e-01
   7744.98    1.043568e-01
   7745.27    1.036381e-01
   7745.56    1.028908e-01
   7745.84    1.021434e-01
   7746.13    1.012876e-01
   7746.42    1.003050e-01
   7746.71    9.932245e-02
   7747.00    9.833990e-02
   7747.29    9.729531e-02
   7747.58    9.625073e-02
   7747.87    9.520614e-02
   7748.16    9.420070e-02
   7748.44    9.322880e-02
   7748.73    9.225691e-02
   7749.02    9.129574e-02
   7749.31    9.046329e-02
   7749.60    8.963084e-02
   7749.89    8.879839e-02
   7750.18    8.805813e-02
   7750.47    8.737548e-02
   7750.76    8.669283e-02
   7751.04    8.603016e-02
   7751.33    8.547732e-02
   7751.62    8.492449e-02
   7751.91    8.437166e-02
   7752.20    8.388786e-02
   7752.49    8.343474e-02
   7752.78    8.298162e-02
   7753.07    8.254410e-02
   7753.36    8.215858e-02
   7753.64    8.177307e-02
   7753.93    8.138755e-02
   7754.22    8.103185e-02
   7754.51    8.068508e-02
   7754.80    8.033832e-02
   7755.09    7.999649e-02
   7755.38    7.966575e-02
   7755.67    7.933501e-02
   7755.96    7.900427e-02
   7756.24    7.867430e-02
   7756.53    7.834448e-02
   7756.82    7.801465e-02
   7757.11    7.768333e-02
   7757.40    7.734961e-02
   7757.69    7.701589e-02
   7757.98    7.668218e-02
   7758.27    7.635625e-02
   7758.56    7.603098e-02
   7758.84    7.570571e-02
   7759.13    7.540118e-02
   7759.42    7.512087e-02
   7759.71    7.484055e-02
   7760.00    7.456024e-02
