 FDMNES
  energy    <xanes>
   7695.00    5.400736e-04
   7695.29    5.455945e-04
   7695.58    5.511154e-04
   7695.87    5.566363e-04
   7696.16    5.623577e-04
   7696.44    5.682508e-04
   7696.73    5.741440e-04
   7697.02    5.800687e-04
   7697.31    5.863722e-04
   7697.60    5.926758e-04
   7697.89    5.989794e-04
   7698.18    6.055623e-04
   7698.47    6.123198e-04
   7698.76    6.190773e-04
   7699.04    6.259124e-04
   7699.33    6.331738e-04
   7699.62    6.404352e-04
   7699.91    6.476966e-04
   7700.20    6.553465e-04
   7700.49    6.631692e-04
   7700.78    6.709918e-04
   7701.07    6.789593e-04
   7701.36    6.874097e-04
   7701.64    6.958600e-04
   7701.93    7.043104e-04
   7702.22    7.133030e-04
   7702.51    7.224583e-04
   7702.80    7.316137e-04
   7703.09    7.410137e-04
   7703.38    7.509644e-04
   7703.67    7.609151e-04
   7703.96    7.708659e-04
   7704.24    7.815797e-04
   7704.53    7.924323e-04
   7704.82    8.032849e-04
   7705.11    8.145330e-04
   7705.40    8.264139e-04
   7705.69    8.382947e-04
   7705.98    8.501755e-04
   7706.27    8.631449e-04
   7706.56    8.762050e-04
   7706.84    8.892651e-04
   7707.13    9.029535e-04
   7707.42    9.173749e-04
   7707.71    9.317962e-04
   7708.00    9.462176e-04
   7708.29    9.622219e-04
   7708.58    9.782261e-04
   7708.87    9.942304e-04
   7709.16    1.011234e-03
   7709.44    1.029093e-03
   7709.73    1.046953e-03
   7710.02    1.064981e-03
   7710.31    1.085035e-03
   7710.60    1.105089e-03
   7710.89    1.125143e-03
   7711.18    1.146810e-03
   7711.47    1.169486e-03
   7711.76    1.192162e-03
   7712.04    1.215325e-03
   7712.33    1.241170e-03
   7712.62    1.267014e-03
   7712.91    1.292859e-03
   7713.20    1.321391e-03
   7713.49    1.351118e-03
   7713.78    1.380845e-03
   7714.07    1.411686e-03
   7714.36    1.446242e-03
   7714.64    1.480799e-03
   7714.93    1.515355e-03
   7715.22    1.554620e-03
   7715.51    1.595297e-03
   7715.80    1.635974e-03
   7716.09    1.679092e-03
   7716.38    1.727701e-03
   7716.67    1.776310e-03
   7716.96    1.824920e-03
   7717.24    1.882470e-03
   7717.53    1.941646e-03
   7717.82    2.000822e-03
   7718.11    2.065606e-03
   7718.40    2.139364e-03
   7718.69    2.213122e-03
   7718.98    2.286880e-03
   7719.27    2.380106e-03
   7719.56    2.474955e-03
   7719.84    2.569803e-03
   7720.13    2.679691e-03
   7720.42    2.807124e-03
   7720.71    2.934557e-03
   7721.00    3.061990e-03
   7721.29    3.245056e-03
   7721.58    3.428122e-03
   7721.87    3.611188e-03
   7722.16    3.854710e-03
   7722.44    4.150049e-03
   7722.73    4.445389e-03
   7723.02    4.764563e-03
   7723.31    5.369740e-03
   7723.60    5.974918e-03
   7723.89    6.580095e-03
   7724.18    7.940753e-03
   7724.47    9.773587e-03
   7724.76    1.160642e-02
   7725.04    1.359103e-02
   7725.33    1.632029e-02
   7725.62    1.863238e-02
   7725.91    2.042078e-02
   7726.20    2.197198e-02
   7726.49    2.355702e-02
   7726.78    2.536130e-02
   7727.07    2.755460e-02
   7727.36    3.018003e-02
   7727.64    3.332182e-02
   7727.93    3.701500e-02
   7728.22    4.124218e-02
   7728.51    4.605285e-02
   7728.80    5.133986e-02
   7729.09    5.717988e-02
   7729.38    6.343062e-02
   7729.67    7.010407e-02
   7729.96    7.707022e-02
   7730.24    8.417587e-02
   7730.53    9.109911e-02
   7730.82    9.739464e-02
   7731.11    1.025900e-01
   7731.40    1.062907e-01
   7731.69    1.083135e-01
   7731.98    1.087426e-01
   7732.27    1.078389e-01
   7732.56    1.060554e-01
   7732.84    1.038505e-01
   7733.13    1.015186e-01
   7733.42    9.927190e-02
   7733.71    9.725376e-02
   7734.00    9.555352e-02
   7734.29    9.426608e-02
   7734.58    9.336486e-02
   7734.87    9.284414e-02
   7735.16    9.268485e-02
   7735.44    9.285787e-02
   7735.73    9.332584e-02
   7736.02    9.405728e-02
   7736.31    9.498756e-02
   7736.60    9.604525e-02
   7736.89    9.716776e-02
   7737.18    9.829196e-02
   7737.47    9.935822e-02
   7737.76    1.003122e-01
   7738.04    1.010983e-01
   7738.33    1.017085e-01
   7738.62    1.021384e-01
   7738.91    1.023981e-01
   7739.20    1.025091e-01
   7739.49    1.025003e-01
   7739.78    1.023991e-01
   7740.07    1.022505e-01
   7740.36    1.020973e-01
   7740.64    1.019442e-01
   7740.93    1.017910e-01
   7741.22    1.017640e-01
   7741.51    1.017748e-01
   7741.80    1.017855e-01
   7742.09    1.018556e-01
   7742.38    1.020589e-01
   7742.67    1.022622e-01
   7742.96    1.024655e-01
   7743.24    1.027138e-01
   7743.53    1.029702e-01
   7743.82    1.032266e-01
   7744.11    1.034283e-01
   7744.40    1.035423e-01
   7744.69    1.036563e-01
   7744.98    1.037703e-01
   7745.27    1.036115e-01
   7745.56    1.034299e-01
   7745.84    1.032482e-01
   7746.13    1.029093e-01
   7746.42    1.023869e-01
   7746.71    1.018644e-01
   7747.00    1.013420e-01
   7747.29    1.005530e-01
   7747.58    9.976405e-02
   7747.87    9.897507e-02
   7748.16    9.812495e-02
   7748.44    9.722240e-02
   7748.73    9.631985e-02
   7749.02    9.542047e-02
   7749.31    9.455901e-02
   7749.60    9.369755e-02
   7749.89    9.283610e-02
   7750.18    9.204624e-02
   7750.47    9.130114e-02
   7750.76    9.055604e-02
   7751.04    8.983048e-02
   7751.33    8.921243e-02
   7751.62    8.859438e-02
   7751.91    8.797633e-02
   7752.20    8.743463e-02
   7752.49    8.692687e-02
   7752.78    8.641911e-02
   7753.07    8.593066e-02
   7753.36    8.550660e-02
   7753.64    8.508254e-02
   7753.93    8.465847e-02
   7754.22    8.427685e-02
   7754.51    8.390796e-02
   7754.80    8.353907e-02
   7755.09    8.317950e-02
   7755.38    8.284093e-02
   7755.67    8.250236e-02
   7755.96    8.216379e-02
   7756.24    8.183650e-02
   7756.53    8.151126e-02
   7756.82    8.118602e-02
   7757.11    8.086376e-02
   7757.40    8.054626e-02
   7757.69    8.022877e-02
   7757.98    7.991128e-02
   7758.27    7.961070e-02
   7758.56    7.931154e-02
   7758.84    7.901237e-02
   7759.13    7.873523e-02
   7759.42    7.848377e-02
   7759.71    7.823232e-02
   7760.00    7.798087e-02
