 FDMNES
  energy    <xanes>
   7695.00    5.264785e-04
   7695.29    5.322702e-04
   7695.58    5.380619e-04
   7695.87    5.438536e-04
   7696.16    5.498681e-04
   7696.44    5.560736e-04
   7696.73    5.622791e-04
   7697.02    5.685199e-04
   7697.31    5.751837e-04
   7697.60    5.818475e-04
   7697.89    5.885112e-04
   7698.18    5.954884e-04
   7698.47    6.026615e-04
   7698.76    6.098346e-04
   7699.04    6.170951e-04
   7699.33    6.248362e-04
   7699.62    6.325774e-04
   7699.91    6.403185e-04
   7700.20    6.485000e-04
   7700.49    6.568771e-04
   7700.78    6.652543e-04
   7701.07    6.737965e-04
   7701.36    6.828888e-04
   7701.64    6.919811e-04
   7701.93    7.010734e-04
   7702.22    7.107870e-04
   7702.51    7.206870e-04
   7702.80    7.305870e-04
   7703.09    7.407690e-04
   7703.38    7.515857e-04
   7703.67    7.624023e-04
   7703.96    7.732190e-04
   7704.24    7.849206e-04
   7704.53    7.967831e-04
   7704.82    8.086456e-04
   7705.11    8.209697e-04
   7705.40    8.340323e-04
   7705.69    8.470949e-04
   7705.98    8.601575e-04
   7706.27    8.744993e-04
   7706.56    8.889478e-04
   7706.84    9.033962e-04
   7707.13    9.185883e-04
   7707.42    9.346480e-04
   7707.71    9.507077e-04
   7708.00    9.667674e-04
   7708.29    9.847149e-04
   7708.58    1.002662e-03
   7708.87    1.020610e-03
   7709.16    1.039758e-03
   7709.44    1.059936e-03
   7709.73    1.080114e-03
   7710.02    1.100497e-03
   7710.31    1.123335e-03
   7710.60    1.146173e-03
   7710.89    1.169011e-03
   7711.18    1.193822e-03
   7711.47    1.219867e-03
   7711.76    1.245911e-03
   7712.04    1.272558e-03
   7712.33    1.302515e-03
   7712.62    1.332471e-03
   7712.91    1.362428e-03
   7713.20    1.395734e-03
   7713.49    1.430529e-03
   7713.78    1.465324e-03
   7714.07    1.501523e-03
   7714.36    1.542398e-03
   7714.64    1.583274e-03
   7714.93    1.624149e-03
   7715.22    1.671014e-03
   7715.51    1.719675e-03
   7715.80    1.768335e-03
   7716.09    1.820132e-03
   7716.38    1.878986e-03
   7716.67    1.937839e-03
   7716.96    1.996692e-03
   7717.24    2.067146e-03
   7717.53    2.139709e-03
   7717.82    2.212273e-03
   7718.11    2.292173e-03
   7718.40    2.383814e-03
   7718.69    2.475455e-03
   7718.98    2.567095e-03
   7719.27    2.684337e-03
   7719.56    2.803713e-03
   7719.84    2.923089e-03
   7720.13    3.062216e-03
   7720.42    3.224388e-03
   7720.71    3.386559e-03
   7721.00    3.548731e-03
   7721.29    3.782922e-03
   7721.58    4.017114e-03
   7721.87    4.251305e-03
   7722.16    4.560577e-03
   7722.44    4.934204e-03
   7722.73    5.307831e-03
   7723.02    5.708416e-03
   7723.31    6.432504e-03
   7723.60    7.156593e-03
   7723.89    7.880681e-03
   7724.18    9.380326e-03
   7724.47    1.136470e-02
   7724.76    1.334906e-02
   7725.04    1.552643e-02
   7725.33    1.884487e-02
   7725.62    2.234539e-02
   7725.91    2.604049e-02
   7726.20    2.994613e-02
   7726.49    3.413378e-02
   7726.78    3.858796e-02
   7727.07    4.348903e-02
   7727.36    4.896991e-02
   7727.64    5.524181e-02
   7727.93    6.238685e-02
   7728.22    7.028962e-02
   7728.51    7.878073e-02
   7728.80    8.747947e-02
   7729.09    9.605755e-02
   7729.38    1.042252e-01
   7729.67    1.114926e-01
   7729.96    1.175423e-01
   7730.24    1.219992e-01
   7730.53    1.245231e-01
   7730.82    1.253282e-01
   7731.11    1.247343e-01
   7731.40    1.231106e-01
   7731.69    1.208113e-01
   7731.98    1.181345e-01
   7732.27    1.153144e-01
   7732.56    1.125321e-01
   7732.84    1.098862e-01
   7733.13    1.074288e-01
   7733.42    1.051871e-01
   7733.71    1.031733e-01
   7734.00    1.013936e-01
   7734.29    9.988130e-02
   7734.58    9.861293e-02
   7734.87    9.758925e-02
   7735.16    9.680392e-02
   7735.44    9.624036e-02
   7735.73    9.587025e-02
   7736.02    9.566087e-02
   7736.31    9.555291e-02
   7736.60    9.548550e-02
   7736.89    9.540797e-02
   7737.18    9.527799e-02
   7737.47    9.506620e-02
   7737.76    9.475741e-02
   7738.04    9.434857e-02
   7738.33    9.386989e-02
   7738.62    9.335099e-02
   7738.91    9.282628e-02
   7739.20    9.233055e-02
   7739.49    9.189530e-02
   7739.78    9.155503e-02
   7740.07    9.136108e-02
   7740.36    9.136614e-02
   7740.64    9.137120e-02
   7740.93    9.137626e-02
   7741.22    9.167101e-02
   7741.51    9.205268e-02
   7741.80    9.243435e-02
   7742.09    9.287406e-02
   7742.38    9.344437e-02
   7742.67    9.401468e-02
   7742.96    9.458499e-02
   7743.24    9.508070e-02
   7743.53    9.556284e-02
   7743.82    9.604498e-02
   7744.11    9.639484e-02
   7744.40    9.653303e-02
   7744.69    9.667122e-02
   7744.98    9.680941e-02
   7745.27    9.653317e-02
   7745.56    9.622239e-02
   7745.84    9.591161e-02
   7746.13    9.543441e-02
   7746.42    9.476306e-02
   7746.71    9.409171e-02
   7747.00    9.342036e-02
   7747.29    9.258611e-02
   7747.58    9.175186e-02
   7747.87    9.091760e-02
   7748.16    9.009307e-02
   7748.44    8.927687e-02
   7748.73    8.846068e-02
   7749.02    8.765341e-02
   7749.31    8.695329e-02
   7749.60    8.625316e-02
   7749.89    8.555304e-02
   7750.18    8.493565e-02
   7750.47    8.436997e-02
   7750.76    8.380429e-02
   7751.04    8.325459e-02
   7751.33    8.279276e-02
   7751.62    8.233093e-02
   7751.91    8.186910e-02
   7752.20    8.144421e-02
   7752.49    8.103575e-02
   7752.78    8.062729e-02
   7753.07    8.021953e-02
   7753.36    7.981411e-02
   7753.64    7.940869e-02
   7753.93    7.900327e-02
   7754.22    7.857076e-02
   7754.51    7.813012e-02
   7754.80    7.768949e-02
   7755.09    7.723198e-02
   7755.38    7.673652e-02
   7755.67    7.624107e-02
   7755.96    7.574561e-02
   7756.24    7.520565e-02
   7756.53    7.465760e-02
   7756.82    7.410955e-02
   7757.11    7.355111e-02
   7757.40    7.297607e-02
   7757.69    7.240103e-02
   7757.98    7.182598e-02
   7758.27    7.127249e-02
   7758.56    7.072080e-02
   7758.84    7.016910e-02
   7759.13    6.966031e-02
   7759.42    6.920158e-02
   7759.71    6.874286e-02
   7760.00    6.828413e-02
