 FDMNES
  energy    <xanes>
   7695.00    5.202450e-04
   7695.29    5.259047e-04
   7695.58    5.315645e-04
   7695.87    5.372242e-04
   7696.16    5.430990e-04
   7696.44    5.491580e-04
   7696.73    5.552171e-04
   7697.02    5.613101e-04
   7697.31    5.678109e-04
   7697.60    5.743116e-04
   7697.89    5.808123e-04
   7698.18    5.876146e-04
   7698.47    5.946055e-04
   7698.76    6.015963e-04
   7699.04    6.086711e-04
   7699.33    6.162078e-04
   7699.62    6.237444e-04
   7699.91    6.312810e-04
   7700.20    6.392400e-04
   7700.49    6.473867e-04
   7700.78    6.555333e-04
   7701.07    6.638380e-04
   7701.36    6.726694e-04
   7701.64    6.815007e-04
   7701.93    6.903320e-04
   7702.22    6.997570e-04
   7702.51    7.093600e-04
   7702.80    7.189631e-04
   7703.09    7.288350e-04
   7703.38    7.393120e-04
   7703.67    7.497890e-04
   7703.96    7.602660e-04
   7704.24    7.715846e-04
   7704.53    7.830562e-04
   7704.82    7.945279e-04
   7705.11    8.064374e-04
   7705.40    8.190474e-04
   7705.69    8.316575e-04
   7705.98    8.442675e-04
   7706.27    8.580875e-04
   7706.56    8.720082e-04
   7706.84    8.859290e-04
   7707.13    9.005508e-04
   7707.42    9.159907e-04
   7707.71    9.314305e-04
   7708.00    9.468703e-04
   7708.29    9.640835e-04
   7708.58    9.812967e-04
   7708.87    9.985099e-04
   7709.16    1.016847e-03
   7709.44    1.036147e-03
   7709.73    1.055447e-03
   7710.02    1.074938e-03
   7710.31    1.096716e-03
   7710.60    1.118494e-03
   7710.89    1.140272e-03
   7711.18    1.163878e-03
   7711.47    1.188628e-03
   7711.76    1.213378e-03
   7712.04    1.238682e-03
   7712.33    1.267037e-03
   7712.62    1.295391e-03
   7712.91    1.323746e-03
   7713.20    1.355167e-03
   7713.49    1.387951e-03
   7713.78    1.420735e-03
   7714.07    1.454794e-03
   7714.36    1.493102e-03
   7714.64    1.531411e-03
   7714.93    1.569719e-03
   7715.22    1.613422e-03
   7715.51    1.658742e-03
   7715.80    1.704063e-03
   7716.09    1.752179e-03
   7716.38    1.806587e-03
   7716.67    1.860994e-03
   7716.96    1.915401e-03
   7717.24    1.980028e-03
   7717.53    2.046512e-03
   7717.82    2.112997e-03
   7718.11    2.185853e-03
   7718.40    2.268905e-03
   7718.69    2.351956e-03
   7718.98    2.435008e-03
   7719.27    2.539916e-03
   7719.56    2.646647e-03
   7719.84    2.753377e-03
   7720.13    2.876632e-03
   7720.42    3.019166e-03
   7720.71    3.161700e-03
   7721.00    3.304234e-03
   7721.29    3.505609e-03
   7721.58    3.706984e-03
   7721.87    3.908359e-03
   7722.16    4.169537e-03
   7722.44    4.481975e-03
   7722.73    4.794412e-03
   7723.02    5.127918e-03
   7723.31    5.714241e-03
   7723.60    6.300563e-03
   7723.89    6.886886e-03
   7724.18    8.071679e-03
   7724.47    9.630517e-03
   7724.76    1.118936e-02
   7725.04    1.288386e-02
   7725.33    1.533932e-02
   7725.62    1.778251e-02
   7725.91    2.021248e-02
   7726.20    2.271500e-02
   7726.49    2.542664e-02
   7726.78    2.841602e-02
   7727.07    3.188063e-02
   7727.36    3.592410e-02
   7727.64    4.074909e-02
   7727.93    4.651040e-02
   7728.22    5.326883e-02
   7728.51    6.117357e-02
   7728.80    7.000934e-02
   7729.09    7.985718e-02
   7729.38    9.036306e-02
   7729.67    1.013148e-01
   7729.96    1.121460e-01
   7730.24    1.220680e-01
   7730.53    1.299316e-01
   7730.82    1.350972e-01
   7731.11    1.373724e-01
   7731.40    1.370010e-01
   7731.69    1.345366e-01
   7731.98    1.306411e-01
   7732.27    1.259209e-01
   7732.56    1.209377e-01
   7732.84    1.160947e-01
   7733.13    1.116448e-01
   7733.42    1.077542e-01
   7733.71    1.045135e-01
   7734.00    1.019525e-01
   7734.29    1.001309e-01
   7734.58    9.891811e-02
   7734.87    9.824567e-02
   7735.16    9.803011e-02
   7735.44    9.817511e-02
   7735.73    9.857392e-02
   7736.02    9.911476e-02
   7736.31    9.966589e-02
   7736.60    1.001195e-01
   7736.89    1.003933e-01
   7737.18    1.004319e-01
   7737.47    1.002105e-01
   7737.76    9.973069e-02
   7738.04    9.901185e-02
   7738.33    9.813355e-02
   7738.62    9.715718e-02
   7738.91    9.614389e-02
   7739.20    9.514870e-02
   7739.49    9.421661e-02
   7739.78    9.339072e-02
   7740.07    9.272838e-02
   7740.36    9.228642e-02
   7740.64    9.184446e-02
   7740.93    9.140250e-02
   7741.22    9.128153e-02
   7741.51    9.125686e-02
   7741.80    9.123219e-02
   7742.09    9.128763e-02
   7742.38    9.152330e-02
   7742.67    9.175897e-02
   7742.96    9.199464e-02
   7743.24    9.228935e-02
   7743.53    9.259480e-02
   7743.82    9.290025e-02
   7744.11    9.316323e-02
   7744.40    9.335825e-02
   7744.69    9.355327e-02
   7744.98    9.374829e-02
   7745.27    9.372246e-02
   7745.56    9.367822e-02
   7745.84    9.363399e-02
   7746.13    9.346105e-02
   7746.42    9.313796e-02
   7746.71    9.281486e-02
   7747.00    9.249177e-02
   7747.29    9.194763e-02
   7747.58    9.140349e-02
   7747.87    9.085934e-02
   7748.16    9.025501e-02
   7748.44    8.959910e-02
   7748.73    8.894318e-02
   7749.02    8.828611e-02
   7749.31    8.761520e-02
   7749.60    8.694428e-02
   7749.89    8.627336e-02
   7750.18    8.562532e-02
   7750.47    8.499159e-02
   7750.76    8.435785e-02
   7751.04    8.373155e-02
   7751.33    8.314612e-02
   7751.62    8.256069e-02
   7751.91    8.197526e-02
   7752.20    8.141475e-02
   7752.49    8.086531e-02
   7752.78    8.031587e-02
   7753.07    7.977018e-02
   7753.36    7.923701e-02
   7753.64    7.870383e-02
   7753.93    7.817065e-02
   7754.22    7.763720e-02
   7754.51    7.710368e-02
   7754.80    7.657015e-02
   7755.09    7.603441e-02
   7755.38    7.549366e-02
   7755.67    7.495292e-02
   7755.96    7.441217e-02
   7756.24    7.387110e-02
   7756.53    7.332998e-02
   7756.82    7.278885e-02
   7757.11    7.225591e-02
   7757.40    7.173607e-02
   7757.69    7.121623e-02
   7757.98    7.069639e-02
   7758.27    7.022811e-02
   7758.56    6.976412e-02
   7758.84    6.930013e-02
   7759.13    6.888026e-02
   7759.42    6.851186e-02
   7759.71    6.814346e-02
   7760.00    6.777506e-02
