    Energy   (100,001)      (010,001)      (001,110)   
  -25.0000  1.7229406E-04  1.8245832E-04  1.8317632E-04
  -24.0000  1.7821772E-04  1.8949161E-04  1.8944953E-04
  -23.0000  1.8452405E-04  1.9703763E-04  1.9613196E-04
  -22.0000  1.9125038E-04  2.0515289E-04  2.0326419E-04
  -21.0000  1.9843898E-04  2.1390232E-04  2.1089227E-04
  -20.0000  2.0613793E-04  2.2336101E-04  2.1906875E-04
  -19.0000  2.1440217E-04  2.3361611E-04  2.2785379E-04
  -18.0000  2.2329475E-04  2.4476946E-04  2.3731663E-04
  -17.0000  2.3288837E-04  2.5694068E-04  2.4753739E-04
  -16.0000  2.4326734E-04  2.7027123E-04  2.5860922E-04
  -15.0000  2.5452999E-04  2.8492955E-04  2.7064119E-04
  -14.0000  2.6679171E-04  3.0111775E-04  2.8376172E-04
  -13.0000  2.8018887E-04  3.1908035E-04  2.9812321E-04
  -12.0000  2.9488384E-04  3.3911585E-04  3.1390790E-04
  -11.0000  3.1107164E-04  3.6159232E-04  3.3133562E-04
  -10.0000  3.2898864E-04  3.8696870E-04  3.5067418E-04
  -9.00000  3.4892440E-04  4.1582424E-04  3.7225336E-04
  -8.00000  3.7123793E-04  4.4890025E-04  3.9648433E-04
  -7.00000  3.9638047E-04  4.8716036E-04  4.2388705E-04
  -6.00000  4.2492826E-04  5.3187967E-04  4.5512983E-04
  -5.00000  4.5763116E-04  5.8478050E-04  4.9108833E-04
  -4.00000  4.9548707E-04  6.4824575E-04  5.3293637E-04
  -3.00000  5.3986113E-04  7.2566803E-04  5.8229188E-04
  -2.00000  5.9268664E-04  8.2204824E-04  6.4146378E-04
  -1.00000  6.5682720E-04  9.4508507E-04  7.1389770E-04
   0.00000  7.3678902E-04  1.1073158E-03  8.0505248E-04
   1.00000  8.4029575E-04  1.3307802E-03  9.2433339E-04
   2.00000  9.8239087E-04  1.6587870E-03  1.0901050E-03
   3.00000  1.1990483E-03  2.1930357E-03  1.3462194E-03
   4.00000  1.6125846E-03  3.2612744E-03  1.8409546E-03
   5.00000  2.7836659E-03  6.2909083E-03  3.2546538E-03
   5.20000  3.1462350E-03  7.2475511E-03  3.6963219E-03
   5.40000  3.4982882E-03  8.2128194E-03  4.1246275E-03
   5.60000  3.8251150E-03  9.1658983E-03  4.5164494E-03
   5.80000  4.1271007E-03  1.0123787E-02  4.8685158E-03
   6.00000  4.4083040E-03  1.1112458E-02  5.1869343E-03
   6.20000  4.6722294E-03  1.2153741E-02  5.4819934E-03
   6.40000  4.9222522E-03  1.3263317E-02  5.7660891E-03
   6.60000  5.1626657E-03  1.4452333E-02  6.0521552E-03
   6.80000  5.3989043E-03  1.5729934E-02  6.3524985E-03
   7.00000  5.6370524E-03  1.7105838E-02  6.6782977E-03
   7.20000  5.8831836E-03  1.8592203E-02  7.0395473E-03
   7.40000  6.1429372E-03  2.0204651E-02  7.4450850E-03
   7.60000  6.4214363E-03  2.1962523E-02  7.9025129E-03
   7.80000  6.7234456E-03  2.3888338E-02  8.4180092E-03
   8.00000  7.0536298E-03  2.6006358E-02  8.9961273E-03
   8.20000  7.4167999E-03  2.8340080E-02  9.6396574E-03
   8.40000  7.8180692E-03  3.0908400E-02  1.0349548E-02
   8.60000  8.2628715E-03  3.3720192E-02  1.1124816E-02
   8.80000  8.7568377E-03  3.6767326E-02  1.1962419E-02
   9.00000  9.3055689E-03  4.0016695E-02  1.2857170E-02
   9.20000  9.9143687E-03  4.3402650E-02  1.3801875E-02
   9.40000  1.0587997E-02  4.6822210E-02  1.4787800E-02
   9.60000  1.1330454E-02  5.0136148E-02  1.5805445E-02
   9.80000  1.2144709E-02  5.3178398E-02  1.6845558E-02
   10.0000  1.3032181E-02  5.5773716E-02  1.7900294E-02
   10.2500  1.4242796E-02  5.8146640E-02  1.9230430E-02
   10.5000  1.5557617E-02  5.9344100E-02  2.0565130E-02
   10.7500  1.6960264E-02  5.9284497E-02  2.1894528E-02
   11.0000  1.8427308E-02  5.8050923E-02  2.3207099E-02
   11.2500  1.9929723E-02  5.5862964E-02  2.4492012E-02
   11.5000  2.1434826E-02  5.3014885E-02  2.5740673E-02
   11.7500  2.2908816E-02  4.9806311E-02  2.6945393E-02
   12.0000  2.4319537E-02  4.6491303E-02  2.8097351E-02
   12.2500  2.5639466E-02  4.3255969E-02  2.9186046E-02
   12.5000  2.6849169E-02  4.0219014E-02  3.0200478E-02
   12.7500  2.7941034E-02  3.7444126E-02  3.1131802E-02
   13.0000  2.8921173E-02  3.4955410E-02  3.1976418E-02
   13.2500  2.9807261E-02  3.2751818E-02  3.2737127E-02
   13.5000  3.0623771E-02  3.0818420E-02  3.3422392E-02
   13.7500  3.1397412E-02  2.9133658E-02  3.4045504E-02
   14.0000  3.2153644E-02  2.7673501E-02  3.4623435E-02
   14.2500  3.2914102E-02  2.6413801E-02  3.5174803E-02
   14.5000  3.3694889E-02  2.5331643E-02  3.5717533E-02
   14.7500  3.4505656E-02  2.4406076E-02  3.6266876E-02
   15.0000  3.5349357E-02  2.3618464E-02  3.6834048E-02
   15.2500  3.6222513E-02  2.2952582E-02  3.7425411E-02
   15.5000  3.7115837E-02  2.2394539E-02  3.8042021E-02
   15.7500  3.8015139E-02  2.1932604E-02  3.8679429E-02
   16.0000  3.8902427E-02  2.1556962E-02  3.9327747E-02
   16.2500  3.9757133E-02  2.1259464E-02  3.9972038E-02
   16.5000  4.0557403E-02  2.1033350E-02  4.0593206E-02
   16.7500  4.1281408E-02  2.0873005E-02  4.1169430E-02
   17.0000  4.1908618E-02  2.0773716E-02  4.1678122E-02
   17.2500  4.2421026E-02  2.0731467E-02  4.2098191E-02
   17.5000  4.2804270E-02  2.0742754E-02  4.2412273E-02
   17.7500  4.3048604E-02  2.0804430E-02  4.2608538E-02
   18.0000  4.3149639E-02  2.0913580E-02  4.2681779E-02
   18.2500  4.3108755E-02  2.1067421E-02  4.2633621E-02
   18.5000  4.2933097E-02  2.1263242E-02  4.2471891E-02
   18.7500  4.2635073E-02  2.1498364E-02  4.2209340E-02
   19.0000  4.2231364E-02  2.1770151E-02  4.1861970E-02
   19.2500  4.1741526E-02  2.2076059E-02  4.1447263E-02
   19.5000  4.1186344E-02  2.2413701E-02  4.0982523E-02
   19.7500  4.0586318E-02  2.2780869E-02  4.0483630E-02
   20.0000  3.9960763E-02  2.3175382E-02  3.9964480E-02
   21.0000  3.7549485E-02  2.4969225E-02  3.7909227E-02
   22.0000  3.5842869E-02  2.6963668E-02  3.6210420E-02
   23.0000  3.5066765E-02  2.8981702E-02  3.4958870E-02
   24.0000  3.5072592E-02  3.0833203E-02  3.4043894E-02
   25.0000  3.5514849E-02  3.2324943E-02  3.3302642E-02
   26.0000  3.5943946E-02  3.3307168E-02  3.2594128E-02
   27.0000  3.5953379E-02  3.3722585E-02  3.1843345E-02
   28.0000  3.5370326E-02  3.3623149E-02  3.1058349E-02
   29.0000  3.4313568E-02  3.3140167E-02  3.0305031E-02
   30.0000  3.3055046E-02  3.2434638E-02  2.9659358E-02
   31.0000  3.1831746E-02  3.1647762E-02  2.9168702E-02
   32.0000  3.0748046E-02  3.0852854E-02  2.8832378E-02
   33.0000  2.9813939E-02  3.0067264E-02  2.8619795E-02
   34.0000  2.9002084E-02  2.9278974E-02  2.8489201E-02
   35.0000  2.8276883E-02  2.8464027E-02  2.8395563E-02
   36.0000  2.7607924E-02  2.7602048E-02  2.8295946E-02
   37.0000  2.6975776E-02  2.6690696E-02  2.8155866E-02
   38.0000  2.6376150E-02  2.5758489E-02  2.7958543E-02
   39.0000  2.5827282E-02  2.4874791E-02  2.7717798E-02
   40.0000  2.5374776E-02  2.4144308E-02  2.7485708E-02
