    Energy   (100,001)      (010,001)      (001,110)   
  -25.0000  1.6772795E-04  1.8367610E-04  1.7370564E-04
  -24.0000  1.7401554E-04  1.9055186E-04  1.8029533E-04
  -23.0000  1.8073993E-04  1.9791880E-04  1.8735305E-04
  -22.0000  1.8794647E-04  2.0583026E-04  1.9492878E-04
  -21.0000  1.9568684E-04  2.1434747E-04  2.0307971E-04
  -20.0000  2.0402028E-04  2.2354106E-04  2.1187167E-04
  -19.0000  2.1301491E-04  2.3349294E-04  2.2138071E-04
  -18.0000  2.2274952E-04  2.4429863E-04  2.3169524E-04
  -17.0000  2.3331568E-04  2.5607012E-04  2.4291858E-04
  -16.0000  2.4482044E-04  2.6893962E-04  2.5517223E-04
  -15.0000  2.5738973E-04  2.8306423E-04  2.6860001E-04
  -14.0000  2.7117264E-04  2.9863209E-04  2.8337345E-04
  -13.0000  2.8634705E-04  3.1587028E-04  2.9969874E-04
  -12.0000  3.0312682E-04  3.3505537E-04  3.1782595E-04
  -11.0000  3.2177141E-04  3.5652756E-04  3.3806133E-04
  -10.0000  3.4259867E-04  3.8070986E-04  3.6078404E-04
  -9.00000  3.6600229E-04  4.0813462E-04  3.8646930E-04
  -8.00000  3.9247596E-04  4.3948099E-04  4.1572103E-04
  -7.00000  4.2264744E-04  4.7562869E-04  4.4931896E-04
  -6.00000  4.5732795E-04  5.1773735E-04  4.8828843E-04
  -5.00000  4.9758552E-04  5.6736659E-04  5.3400704E-04
  -4.00000  5.4485762E-04  6.2666396E-04  5.8837365E-04
  -3.00000  6.0113086E-04  6.9867041E-04  6.5408822E-04
  -2.00000  6.6924173E-04  7.8784111E-04  7.3514096E-04
  -1.00000  7.5341114E-04  9.0098677E-04  8.3772772E-04
   0.00000  8.6027137E-04  1.0491110E-03  9.7212079E-04
   1.00000  1.0010604E-03  1.2513879E-03  1.1569717E-03
   2.00000  1.1970747E-03  1.5451500E-03  1.4309798E-03
   3.00000  1.4967037E-03  2.0173664E-03  1.8932167E-03
   4.00000  2.0520080E-03  2.9474752E-03  2.9047456E-03
   5.00000  3.5229454E-03  5.5579220E-03  6.2189767E-03
   5.20000  3.9864295E-03  6.3771776E-03  7.2670421E-03
   5.40000  4.4580778E-03  7.1914472E-03  8.2189017E-03
   5.60000  4.9234031E-03  7.9706671E-03  8.9675734E-03
   5.80000  5.3840327E-03  8.7213865E-03  9.4869927E-03
   6.00000  5.8481081E-03  9.4676165E-03  9.8234885E-03
   6.20000  6.3258180E-03  1.0238954E-02  1.0064673E-02
   6.40000  6.8275342E-03  1.1063972E-02  1.0300312E-02
   6.60000  7.3621880E-03  1.1966925E-02  1.0597121E-02
   6.80000  7.9360080E-03  1.2967592E-02  1.0994789E-02
   7.00000  8.5522260E-03  1.4083072E-02  1.1514002E-02
   7.20000  9.2118789E-03  1.5330136E-02  1.2165379E-02
   7.40000  9.9153046E-03  1.6727379E-02  1.2954101E-02
   7.60000  1.0663740E-02  1.8296614E-02  1.3880198E-02
   7.80000  1.1460532E-02  2.0062893E-02  1.4936806E-02
   8.00000  1.2311632E-02  2.2052851E-02  1.6108840E-02
   8.20000  1.3225309E-02  2.4291560E-02  1.7373808E-02
   8.40000  1.4211305E-02  2.6798377E-02  1.8705477E-02
   8.60000  1.5279768E-02  2.9582401E-02  2.0080002E-02
   8.80000  1.6440172E-02  3.2637952E-02  2.1482523E-02
   9.00000  1.7700273E-02  3.5940116E-02  2.2911166E-02
   9.20000  1.9065108E-02  3.9439898E-02  2.4375978E-02
   9.40000  2.0535973E-02  4.3058449E-02  2.5893012E-02
   9.60000  2.2109263E-02  4.6681416E-02  2.7476304E-02
   9.80000  2.3775071E-02  5.0157038E-02  2.9130728E-02
   10.0000  2.5515863E-02  5.3302070E-02  3.0846813E-02
   10.2500  2.7757366E-02  5.6467352E-02  3.3036086E-02
   10.5000  3.0008780E-02  5.8460553E-02  3.5191373E-02
   10.7500  3.2189829E-02  5.9075449E-02  3.7204059E-02
   11.0000  3.4212121E-02  5.8316369E-02  3.8966089E-02
   11.2500  3.5987945E-02  5.6388690E-02  4.0387917E-02
   11.5000  3.7443294E-02  5.3618113E-02  4.1411596E-02
   11.7500  3.8531490E-02  5.0351208E-02  4.2017364E-02
   12.0000  3.9242834E-02  4.6885850E-02  4.2223964E-02
   12.2500  3.9606468E-02  4.3443017E-02  4.2082657E-02
   12.5000  3.9683353E-02  4.0168091E-02  4.1666302E-02
   12.7500  3.9553322E-02  3.7146366E-02  4.1057774E-02
   13.0000  3.9300916E-02  3.4420360E-02  4.0340368E-02
   13.2500  3.9003115E-02  3.2003662E-02  3.9589236E-02
   13.5000  3.8721053E-02  2.9891022E-02  3.8864564E-02
   13.7500  3.8496976E-02  2.8065336E-02  3.8209399E-02
   14.0000  3.8355361E-02  2.6502657E-02  3.7651628E-02
   14.2500  3.8305788E-02  2.5175970E-02  3.7207203E-02
   14.5000  3.8345994E-02  2.4057864E-02  3.6882846E-02
   14.7500  3.8464638E-02  2.3122220E-02  3.6677891E-02
   15.0000  3.8643778E-02  2.2345102E-02  3.6585400E-02
   15.2500  3.8861155E-02  2.1705149E-02  3.6592837E-02
   15.5000  3.9092368E-02  2.1183645E-02  3.6682595E-02
   15.7500  3.9312970E-02  2.0764443E-02  3.6832699E-02
   16.0000  3.9500444E-02  2.0433810E-02  3.7017916E-02
   16.2500  3.9635963E-02  2.0180265E-02  3.7211376E-02
   16.5000  3.9705788E-02  1.9994400E-02  3.7386664E-02
   16.7500  3.9702151E-02  1.9868687E-02  3.7520081E-02
   17.0000  3.9623525E-02  1.9797260E-02  3.7592722E-02
   17.2500  3.9474240E-02  1.9775647E-02  3.7591963E-02
   17.5000  3.9263540E-02  1.9800485E-02  3.7512092E-02
   17.7500  3.9004245E-02  1.9869211E-02  3.7354028E-02
   18.0000  3.8711239E-02  1.9979784E-02  3.7124263E-02
   18.2500  3.8399997E-02  2.0130451E-02  3.6833329E-02
   18.5000  3.8085318E-02  2.0319578E-02  3.6494106E-02
   18.7500  3.7780367E-02  2.0545556E-02  3.6120256E-02
   19.0000  3.7496043E-02  2.0806778E-02  3.5724932E-02
   19.2500  3.7240659E-02  2.1101681E-02  3.5319849E-02
   19.5000  3.7019841E-02  2.1428808E-02  3.4914692E-02
   19.7500  3.6836608E-02  2.1786839E-02  3.4516857E-02
   20.0000  3.6691564E-02  2.2174445E-02  3.4131589E-02
   21.0000  3.6442058E-02  2.3980149E-02  3.2774140E-02
   22.0000  3.6476643E-02  2.6084132E-02  3.1736889E-02
   23.0000  3.6358224E-02  2.8331065E-02  3.0921815E-02
   24.0000  3.5671391E-02  3.0519236E-02  3.0189710E-02
   25.0000  3.4237291E-02  3.2395039E-02  2.9435589E-02
   26.0000  3.2239857E-02  3.3721046E-02  2.8618746E-02
   27.0000  3.0066972E-02  3.4414576E-02  2.7757263E-02
   28.0000  2.8079811E-02  3.4541220E-02  2.6920153E-02
   29.0000  2.6475444E-02  3.4248457E-02  2.6197087E-02
   30.0000  2.5286808E-02  3.3700332E-02  2.5654484E-02
   31.0000  2.4451799E-02  3.3027794E-02  2.5306038E-02
   32.0000  2.3875240E-02  3.2308314E-02  2.5110979E-02
   33.0000  2.3462929E-02  3.1569376E-02  2.4994797E-02
   34.0000  2.3136002E-02  3.0804738E-02  2.4876366E-02
   35.0000  2.2835511E-02  2.9994794E-02  2.4688654E-02
   36.0000  2.2523665E-02  2.9125868E-02  2.4390540E-02
   37.0000  2.2184228E-02  2.8204989E-02  2.3972817E-02
   38.0000  2.1822782E-02  2.7269129E-02  2.3461933E-02
   39.0000  2.1467263E-02  2.6390678E-02  2.2923187E-02
   40.0000  2.1163765E-02  2.5670668E-02  2.2453222E-02
