    Energy   (100,001)      (010,001)      (001,110)   
  -25.0000  1.6778514E-04  1.8901434E-04  1.7090653E-04
  -24.0000  1.7428616E-04  1.9592909E-04  1.7752334E-04
  -23.0000  1.8125347E-04  2.0333106E-04  1.8461545E-04
  -22.0000  1.8873704E-04  2.1127274E-04  1.9223380E-04
  -21.0000  1.9679403E-04  2.1981431E-04  2.0043671E-04
  -20.0000  2.0549025E-04  2.2902519E-04  2.0929123E-04
  -19.0000  2.1490170E-04  2.3898582E-04  2.1887483E-04
  -18.0000  2.2511671E-04  2.4978990E-04  2.2927746E-04
  -17.0000  2.3623846E-04  2.6154728E-04  2.4060416E-04
  -16.0000  2.4838826E-04  2.7438752E-04  2.5297829E-04
  -15.0000  2.6170960E-04  2.8846450E-04  2.6654565E-04
  -14.0000  2.7637348E-04  3.0396234E-04  2.8147980E-04
  -13.0000  2.9258526E-04  3.2110318E-04  2.9798888E-04
  -12.0000  3.1059372E-04  3.4015738E-04  3.1632455E-04
  -11.0000  3.3070303E-04  3.6145731E-04  3.3679391E-04
  -10.0000  3.5328909E-04  3.8541602E-04  3.5977548E-04
  -9.00000  3.7882189E-04  4.1255304E-04  3.8574104E-04
  -8.00000  4.0789689E-04  4.4353086E-04  4.1528600E-04
  -7.00000  4.4127987E-04  4.7920723E-04  4.4917251E-04
  -6.00000  4.7997281E-04  5.2071242E-04  4.8839197E-04
  -5.00000  5.2531315E-04  5.6956620E-04  5.3425819E-04
  -4.00000  5.7912856E-04  6.2786086E-04  5.8855041E-04
  -3.00000  6.4398803E-04  6.9855914E-04  6.5374121E-04
  -2.00000  7.2362945E-04  7.8600216E-04  7.3337623E-04
  -1.00000  8.2373326E-04  8.9682828E-04  8.3274327E-04
   0.00000  9.5343728E-04  1.0417669E-03  9.6014061E-04
   1.00000  1.1286357E-03  1.2395196E-03  1.1295321E-03
   2.00000  1.3803376E-03  1.5264839E-03  1.3669652E-03
   3.00000  1.7813239E-03  1.9872388E-03  1.7299780E-03
   4.00000  2.5687554E-03  2.8916324E-03  2.3924057E-03
   5.00000  4.7838166E-03  5.4041605E-03  4.0652350E-03
   5.20000  5.4674404E-03  6.1899266E-03  4.5649540E-03
   5.40000  6.1373989E-03  6.9808279E-03  5.0648580E-03
   5.60000  6.7750490E-03  7.7617002E-03  5.5638451E-03
   5.80000  7.3951834E-03  8.5487813E-03  6.0807267E-03
   6.00000  8.0228993E-03  9.3658283E-03  6.6368797E-03
   6.20000  8.6819889E-03  1.0233963E-02  7.2502527E-03
   6.40000  9.3924370E-03  1.1170466E-02  7.9356932E-03
   6.60000  1.0171083E-02  1.2189735E-02  8.7063997E-03
   6.80000  1.1032686E-02  1.3303968E-02  9.5748214E-03
   7.00000  1.1990402E-02  1.4523167E-02  1.0552750E-02
   7.20000  1.3055437E-02  1.5854606E-02  1.1650684E-02
   7.40000  1.4235956E-02  1.7302214E-02  1.2876701E-02
   7.60000  1.5535680E-02  1.8866587E-02  1.4235329E-02
   7.80000  1.6952939E-02  2.0546421E-02  1.5727216E-02
   8.00000  1.8481213E-02  2.2341555E-02  1.7350233E-02
   8.20000  2.0111536E-02  2.4256579E-02  1.9101846E-02
   8.40000  2.1835249E-02  2.6302723E-02  2.0981487E-02
   8.60000  2.3643933E-02  2.8495871E-02  2.2991095E-02
   8.80000  2.5525378E-02  3.0850424E-02  2.5132567E-02
   9.00000  2.7458174E-02  3.3371132E-02  2.7402461E-02
   9.20000  2.9408328E-02  3.6045932E-02  2.9785959E-02
   9.40000  3.1330751E-02  3.8841877E-02  3.2252554E-02
   9.60000  3.3174590E-02  4.1703700E-02  3.4754674E-02
   9.80000  3.4886694E-02  4.4552564E-02  3.7228944E-02
   10.0000  3.6413951E-02  4.7286308E-02  3.9599973E-02
   10.2500  3.7994216E-02  5.0357843E-02  4.2296379E-02
   10.5000  3.9158951E-02  5.2813636E-02  4.4562144E-02
   10.7500  3.9897427E-02  5.4425720E-02  4.6292048E-02
   11.0000  4.0238616E-02  5.5027600E-02  4.7432711E-02
   11.2500  4.0238395E-02  5.4559281E-02  4.7981061E-02
   11.5000  3.9966188E-02  5.3096900E-02  4.7977430E-02
   11.7500  3.9494918E-02  5.0840560E-02  4.7498221E-02
   12.0000  3.8894052E-02  4.8059677E-02  4.6646490E-02
   12.2500  3.8224707E-02  4.5025435E-02  4.5537557E-02
   12.5000  3.7536974E-02  4.1961619E-02  4.4282133E-02
   12.7500  3.6869813E-02  3.9024507E-02  4.2974503E-02
   13.0000  3.6252509E-02  3.6305957E-02  4.1688706E-02
   13.2500  3.5706410E-02  3.3848378E-02  4.0479420E-02
   13.5000  3.5246265E-02  3.1661641E-02  3.9384331E-02
   13.7500  3.4881027E-02  2.9736574E-02  3.8426930E-02
   14.0000  3.4614290E-02  2.8054135E-02  3.7619334E-02
   14.2500  3.4444611E-02  2.6591262E-02  3.6964876E-02
   14.5000  3.4365841E-02  2.5324373E-02  3.6460222E-02
   14.7500  3.4367561E-02  2.4231284E-02  3.6096988E-02
   15.0000  3.4435724E-02  2.3292126E-02  3.5862901E-02
   15.2500  3.4553572E-02  2.2489641E-02  3.5742636E-02
   15.5000  3.4702858E-02  2.1809118E-02  3.5718456E-02
   15.7500  3.4865303E-02  2.1238116E-02  3.5770817E-02
   16.0000  3.5024154E-02  2.0766114E-02  3.5879030E-02
   16.2500  3.5165643E-02  2.0384136E-02  3.6022075E-02
   16.5000  3.5280127E-02  2.0084420E-02  3.6179545E-02
   16.7500  3.5362745E-02  1.9860149E-02  3.6332685E-02
   17.0000  3.5413478E-02  1.9705245E-02  3.6465371E-02
   17.2500  3.5436645E-02  1.9614221E-02  3.6564916E-02
   17.5000  3.5439921E-02  1.9582085E-02  3.6622538E-02
   17.7500  3.5433073E-02  1.9604278E-02  3.6633452E-02
   18.0000  3.5426623E-02  1.9676635E-02  3.6596552E-02
   18.2500  3.5430609E-02  1.9795363E-02  3.6513782E-02
   18.5000  3.5453604E-02  1.9957024E-02  3.6389314E-02
   18.7500  3.5502038E-02  2.0158531E-02  3.6228662E-02
   19.0000  3.5579845E-02  2.0397157E-02  3.6037853E-02
   19.2500  3.5688400E-02  2.0670556E-02  3.5822726E-02
   19.5000  3.5826671E-02  2.0976787E-02  3.5588411E-02
   19.7500  3.5991454E-02  2.1314294E-02  3.5339013E-02
   20.0000  3.6177513E-02  2.1681723E-02  3.5077568E-02
   21.0000  3.6965365E-02  2.3416095E-02  3.3946808E-02
   22.0000  3.7358674E-02  2.5491904E-02  3.2700975E-02
   23.0000  3.6880193E-02  2.7804790E-02  3.1316821E-02
   24.0000  3.5426764E-02  3.0171173E-02  2.9817456E-02
   25.0000  3.3279116E-02  3.2309763E-02  2.8304834E-02
   26.0000  3.0851448E-02  3.3987656E-02  2.6890458E-02
   27.0000  2.8503459E-02  3.5054498E-02  2.5661886E-02
   28.0000  2.6465949E-02  3.5475183E-02  2.4671265E-02
   29.0000  2.4834745E-02  3.5347842E-02  2.3931476E-02
   30.0000  2.3604667E-02  3.4844732E-02  2.3421952E-02
   31.0000  2.2715292E-02  3.4131349E-02  2.3096727E-02
   32.0000  2.2087065E-02  3.3325040E-02  2.2893350E-02
   33.0000  2.1641671E-02  3.2493536E-02  2.2744127E-02
   34.0000  2.1311329E-02  3.1668897E-02  2.2587667E-02
   35.0000  2.1042974E-02  3.0862378E-02  2.2378925E-02
   36.0000  2.0800630E-02  3.0075850E-02  2.2097400E-02
   37.0000  2.0566127E-02  2.9310398E-02  2.1752075E-02
   38.0000  2.0337432E-02  2.8575398E-02  2.1379758E-02
   39.0000  2.0125242E-02  2.7901797E-02  2.1033261E-02
   40.0000  1.9948059E-02  2.7350793E-02  2.0758932E-02
