    Energy   (100,001)      (010,001)      (001,110)   
  -25.0000  1.7893801E-04  1.7528270E-04  1.8159709E-04
  -24.0000  1.8541010E-04  1.8227312E-04  1.8834299E-04
  -23.0000  1.9232878E-04  1.8978640E-04  1.9556635E-04
  -22.0000  1.9974082E-04  1.9788139E-04  2.0331839E-04
  -21.0000  2.0769970E-04  2.0662597E-04  2.1165787E-04
  -20.0000  2.1626682E-04  2.1609877E-04  2.2065245E-04
  -19.0000  2.2551302E-04  2.2639139E-04  2.3038047E-04
  -18.0000  2.3552044E-04  2.3761114E-04  2.4093308E-04
  -17.0000  2.4638487E-04  2.4988454E-04  2.5241702E-04
  -16.0000  2.5821870E-04  2.6336172E-04  2.6495800E-04
  -15.0000  2.7115464E-04  2.7822212E-04  2.7870516E-04
  -14.0000  2.8535048E-04  2.9468193E-04  2.9383671E-04
  -13.0000  3.0099535E-04  3.1300387E-04  3.1056732E-04
  -12.0000  3.1831782E-04  3.3351016E-04  3.2915798E-04
  -11.0000  3.3759673E-04  3.5660020E-04  3.4992905E-04
  -10.0000  3.5917575E-04  3.8277472E-04  3.7327814E-04
  -9.00000  3.8348339E-04  4.1266959E-04  3.9970484E-04
  -8.00000  4.1106087E-04  4.4710395E-04  4.2984550E-04
  -7.00000  4.4260179E-04  4.8715032E-04  4.6452353E-04
  -6.00000  4.7900996E-04  5.3423916E-04  5.0482351E-04
  -5.00000  5.2148598E-04  5.9031944E-04  5.5220395E-04
  -4.00000  5.7166088E-04  6.5811359E-04  6.0867427E-04
  -3.00000  6.3181024E-04  7.4153830E-04  6.7708399E-04
  -2.00000  7.0521316E-04  8.4643352E-04  7.6161781E-04
  -1.00000  7.9678800E-04  9.8190176E-04  8.6869417E-04
   0.00000  9.1430214E-04  1.1629623E-03  1.0087214E-03
   1.00000  1.0709043E-03  1.4163705E-03  1.1998823E-03
   2.00000  1.2911974E-03  1.7953278E-03  1.4774811E-03
   3.00000  1.6291898E-03  2.4256249E-03  1.9222718E-03
   4.00000  2.2432911E-03  3.7105455E-03  2.7800606E-03
   5.00000  3.7739977E-03  7.4062480E-03  5.0817724E-03
   5.20000  4.2561598E-03  8.6107798E-03  5.8475655E-03
   5.40000  4.7641672E-03  9.8625397E-03  6.6804470E-03
   5.60000  5.2937335E-03  1.1135916E-02  7.5744401E-03
   5.80000  5.8559822E-03  1.2444763E-02  8.5426436E-03
   6.00000  6.4677261E-03  1.3812666E-02  9.6038592E-03
   6.20000  7.1474583E-03  1.5258971E-02  1.0775713E-02
   6.40000  7.9149043E-03  1.6796760E-02  1.2071868E-02
   6.60000  8.7907702E-03  1.8435539E-02  1.3499973E-02
   6.80000  9.7951235E-03  2.0185619E-02  1.5061020E-02
   7.00000  1.0944012E-02  2.2062266E-02  1.6752281E-02
   7.20000  1.2244712E-02  2.4087861E-02  1.8571244E-02
   7.40000  1.3690885E-02  2.6291602E-02  2.0511007E-02
   7.60000  1.5260145E-02  2.8707180E-02  2.2540420E-02
   7.80000  1.6917343E-02  3.1368512E-02  2.4578208E-02
   8.00000  1.8624951E-02  3.4302800E-02  2.6486295E-02
   8.20000  2.0356419E-02  3.7520220E-02  2.8105269E-02
   8.40000  2.2103477E-02  4.1000414E-02  2.9323384E-02
   8.60000  2.3870763E-02  4.4677438E-02  3.0131207E-02
   8.80000  2.5660449E-02  4.8427048E-02  3.0617877E-02
   9.00000  2.7455682E-02  5.2062365E-02  3.0917001E-02
   9.20000  2.9210292E-02  5.5344691E-02  3.1147217E-02
   9.40000  3.0848660E-02  5.8013718E-02  3.1379869E-02
   9.60000  3.2277517E-02  5.9834308E-02  3.1636184E-02
   9.80000  3.3407808E-02  6.0647651E-02  3.1902375E-02
   10.0000  3.4179511E-02  6.0408570E-02  3.2151157E-02
   10.2500  3.4624094E-02  5.8756013E-02  3.2405535E-02
   10.5000  3.4568616E-02  5.5935160E-02  3.2590951E-02
   10.7500  3.4167087E-02  5.2391042E-02  3.2732227E-02
   11.0000  3.3591564E-02  4.8536997E-02  3.2864562E-02
   11.2500  3.2988622E-02  4.4687119E-02  3.3016220E-02
   11.5000  3.2461817E-02  4.1044564E-02  3.3201390E-02
   11.7500  3.2072251E-02  3.7719937E-02  3.3419170E-02
   12.0000  3.1847200E-02  3.4758381E-02  3.3657169E-02
   12.2500  3.1791240E-02  3.2163308E-02  3.3897413E-02
   12.5000  3.1896295E-02  2.9913462E-02  3.4120687E-02
   12.7500  3.2147958E-02  2.7975338E-02  3.4309076E-02
   13.0000  3.2527125E-02  2.6312936E-02  3.4451542E-02
   13.2500  3.3009514E-02  2.4893515E-02  3.4549931E-02
   13.5000  3.3566297E-02  2.3688673E-02  3.4617612E-02
   13.7500  3.4165643E-02  2.2673464E-02  3.4673190E-02
   14.0000  3.4774086E-02  2.1825727E-02  3.4735072E-02
   14.2500  3.5357734E-02  2.1125872E-02  3.4818155E-02
   14.5000  3.5883661E-02  2.0556794E-02  3.4932003E-02
   14.7500  3.6321587E-02  2.0103750E-02  3.5079985E-02
   15.0000  3.6645760E-02  1.9754180E-02  3.5259169E-02
   15.2500  3.6836792E-02  1.9497468E-02  3.5460918E-02
   15.5000  3.6883139E-02  1.9324692E-02  3.5672085E-02
   15.7500  3.6781973E-02  1.9228347E-02  3.5876712E-02
   16.0000  3.6539246E-02  1.9202076E-02  3.6058027E-02
   16.2500  3.6168950E-02  1.9240428E-02  3.6200467E-02
   16.5000  3.5691666E-02  1.9338636E-02  3.6291446E-02
   16.7500  3.5132632E-02  1.9492447E-02  3.6322590E-02
   17.0000  3.4519605E-02  1.9697991E-02  3.6290286E-02
   17.2500  3.3880772E-02  1.9951689E-02  3.6195537E-02
   17.5000  3.3242942E-02  2.0250185E-02  3.6043250E-02
   17.7500  3.2630135E-02  2.0590302E-02  3.5841177E-02
   18.0000  3.2062624E-02  2.0969001E-02  3.5598752E-02
   18.2500  3.1556423E-02  2.1383341E-02  3.5326011E-02
   18.5000  3.1123148E-02  2.1830449E-02  3.5032717E-02
   18.7500  3.0770187E-02  2.2307492E-02  3.4727733E-02
   19.0000  3.0501084E-02  2.2811681E-02  3.4418633E-02
   19.2500  3.0316052E-02  2.3340301E-02  3.4111484E-02
   19.5000  3.0212536E-02  2.3890768E-02  3.3810775E-02
   19.7500  3.0185708E-02  2.4460606E-02  3.3519462E-02
   20.0000  3.0228788E-02  2.5047174E-02  3.3239173E-02
   21.0000  3.0909968E-02  2.7478629E-02  3.2234649E-02
   22.0000  3.1897287E-02  2.9813783E-02  3.1377053E-02
   23.0000  3.2577662E-02  3.1766866E-02  3.0560780E-02
   24.0000  3.2589597E-02  3.3116552E-02  2.9700265E-02
   25.0000  3.1942726E-02  3.3764162E-02  2.8784363E-02
   26.0000  3.0915997E-02  3.3748550E-02  2.7880138E-02
   27.0000  2.9819470E-02  3.3210165E-02  2.7089164E-02
   28.0000  2.8837095E-02  3.2335691E-02  2.6484192E-02
   29.0000  2.8019380E-02  3.1302462E-02  2.6069869E-02
   30.0000  2.7343105E-02  3.0230533E-02  2.5790472E-02
   31.0000  2.6766648E-02  2.9181654E-02  2.5573651E-02
   32.0000  2.6256356E-02  2.8177591E-02  2.5364766E-02
   33.0000  2.5795784E-02  2.7217000E-02  2.5138908E-02
   34.0000  2.5388608E-02  2.6288865E-02  2.4899929E-02
   35.0000  2.5055402E-02  2.5382073E-02  2.4671979E-02
   36.0000  2.4821760E-02  2.4491981E-02  2.4484958E-02
   37.0000  2.4699326E-02  2.3625456E-02  2.4358174E-02
   38.0000  2.4671001E-02  2.2805566E-02  2.4291399E-02
   39.0000  2.4694769E-02  2.2075666E-02  2.4267725E-02
   40.0000  2.4726931E-02  2.1494061E-02  2.4263321E-02
