    Energy   (100,001)      (010,001)      (001,110)   
  -25.0000  1.6839590E-04  1.7989679E-04  1.7929163E-04
  -24.0000  1.7445830E-04  1.8685211E-04  1.8587972E-04
  -23.0000  1.8092693E-04  1.9431586E-04  1.9292614E-04
  -22.0000  1.8784257E-04  2.0234420E-04  2.0047915E-04
  -21.0000  1.9525154E-04  2.1100175E-04  2.0859394E-04
  -20.0000  2.0320670E-04  2.2036322E-04  2.1733393E-04
  -19.0000  2.1176860E-04  2.3051540E-04  2.2677232E-04
  -18.0000  2.2100694E-04  2.4155974E-04  2.3699409E-04
  -17.0000  2.3100235E-04  2.5361546E-04  2.4809844E-04
  -16.0000  2.4184863E-04  2.6682364E-04  2.6020185E-04
  -15.0000  2.5365551E-04  2.8135238E-04  2.7344209E-04
  -14.0000  2.6655223E-04  2.9740350E-04  2.8798322E-04
  -13.0000  2.8069201E-04  3.1522134E-04  3.0402221E-04
  -12.0000  2.9625793E-04  3.3510445E-04  3.2179770E-04
  -11.0000  3.1347060E-04  3.5742126E-04  3.4160154E-04
  -10.0000  3.3259834E-04  3.8263154E-04  3.6379470E-04
  -9.00000  3.5397095E-04  4.1131620E-04  3.8882901E-04
  -8.00000  3.7799860E-04  4.4421941E-04  4.1727808E-04
  -7.00000  4.0519830E-04  4.8230959E-04  4.4988163E-04
  -6.00000  4.3623193E-04  5.2686965E-04  4.8761130E-04
  -5.00000  4.7196221E-04  5.7963445E-04  5.3177094E-04
  -4.00000  5.1353797E-04  6.4300710E-04  5.8415523E-04
  -3.00000  5.6252924E-04  7.2041278E-04  6.4731145E-04
  -2.00000  6.2115155E-04  8.1690538E-04  7.2499449E-04
  -1.00000  6.9266246E-04  9.4027065E-04  8.2301126E-04
   0.00000  7.8212068E-04  1.1031905E-03  9.5092300E-04
   1.00000  8.9800701E-04  1.3279461E-03  1.1258781E-03
   2.00000  1.0562676E-03  1.6582398E-03  1.3826621E-03
   3.00000  1.2930659E-03  2.1963259E-03  1.8066620E-03
   4.00000  1.7229811E-03  3.2699666E-03  2.6866983E-03
   5.00000  2.8442365E-03  6.3075892E-03  5.3726899E-03
   5.20000  3.1894918E-03  7.2726076E-03  6.3019194E-03
   5.40000  3.5349762E-03  8.2473069E-03  7.2945211E-03
   5.60000  3.8724378E-03  9.2005499E-03  8.3043908E-03
   5.80000  4.2075205E-03  1.0136153E-02  9.2848087E-03
   6.00000  4.5490301E-03  1.1071538E-02  1.0177264E-02
   6.20000  4.9031320E-03  1.2031950E-02  1.0926770E-02
   6.40000  5.2718971E-03  1.3051525E-02  1.1511235E-02
   6.60000  5.6545591E-03  1.4170800E-02  1.1957300E-02
   6.80000  6.0500893E-03  1.5430474E-02  1.2329092E-02
   7.00000  6.4593627E-03  1.6866482E-02  1.2702136E-02
   7.20000  6.8859368E-03  1.8508854E-02  1.3141899E-02
   7.40000  7.3356800E-03  2.0382720E-02  1.3694329E-02
   7.60000  7.8159604E-03  2.2508974E-02  1.4384736E-02
   7.80000  8.3348724E-03  2.4903438E-02  1.5219486E-02
   8.00000  8.9006036E-03  2.7574411E-02  1.6187625E-02
   8.20000  9.5208349E-03  3.0518953E-02  1.7262493E-02
   8.40000  1.0202110E-02  3.3718695E-02  1.8405311E-02
   8.60000  1.0949228E-02  3.7136114E-02  1.9573067E-02
   8.80000  1.1764805E-02  4.0711636E-02  2.0730534E-02
   9.00000  1.2649160E-02  4.4360940E-02  2.1861678E-02
   9.20000  1.3600576E-02  4.7971642E-02  2.2972892E-02
   9.40000  1.4615812E-02  5.1400646E-02  2.4084381E-02
   9.60000  1.5690719E-02  5.4477027E-02  2.5214467E-02
   9.80000  1.6820883E-02  5.7016135E-02  2.6366523E-02
   10.0000  1.8002144E-02  5.8845846E-02  2.7524882E-02
   10.2500  1.9544814E-02  5.9946822E-02  2.8934926E-02
   10.5000  2.1153483E-02  5.9653131E-02  3.0238150E-02
   10.7500  2.2815045E-02  5.8071616E-02  3.1377480E-02
   11.0000  2.4504382E-02  5.5469255E-02  3.2321343E-02
   11.2500  2.6182573E-02  5.2191100E-02  3.3065192E-02
   11.5000  2.7802384E-02  4.8577725E-02  3.3626897E-02
   11.7500  2.9317457E-02  4.4910373E-02  3.4039138E-02
   12.0000  3.0691355E-02  4.1388888E-02  3.4339394E-02
   12.2500  3.1903096E-02  3.8134351E-02  3.4561447E-02
   12.5000  3.2946815E-02  3.5205807E-02  3.4733348E-02
   12.7500  3.3827671E-02  3.2620412E-02  3.4879146E-02
   13.0000  3.4558609E-02  3.0369656E-02  3.5019720E-02
   13.2500  3.5158493E-02  2.8430572E-02  3.5172529E-02
   13.5000  3.5650257E-02  2.6773444E-02  3.5351336E-02
   13.7500  3.6059282E-02  2.5366901E-02  3.5566015E-02
   14.0000  3.6412020E-02  2.4180796E-02  3.5822580E-02
   14.2500  3.6733842E-02  2.3187531E-02  3.6123558E-02
   14.5000  3.7046620E-02  2.2362563E-02  3.6468426E-02
   14.7500  3.7367486E-02  2.1684523E-02  3.6853696E-02
   15.0000  3.7708650E-02  2.1135126E-02  3.7272744E-02
   15.2500  3.8077439E-02  2.0698933E-02  3.7715678E-02
   15.5000  3.8476371E-02  2.0363034E-02  3.8169395E-02
   15.7500  3.8903362E-02  2.0116699E-02  3.8617901E-02
   16.0000  3.9352171E-02  1.9951021E-02  3.9042972E-02
   16.2500  3.9813122E-02  1.9858569E-02  3.9425196E-02
   16.5000  4.0274061E-02  1.9833060E-02  3.9745395E-02
   16.7500  4.0721498E-02  1.9869071E-02  3.9986291E-02
   17.0000  4.1141817E-02  1.9961783E-02  4.0134193E-02
   17.2500  4.1522457E-02  2.0106775E-02  4.0180383E-02
   17.5000  4.1852930E-02  2.0299878E-02  4.0121944E-02
   17.7500  4.2125593E-02  2.0537071E-02  3.9961843E-02
   18.0000  4.2336090E-02  2.0814448E-02  3.9708295E-02
   18.2500  4.2483430E-02  2.1128205E-02  3.9373557E-02
   18.5000  4.2569719E-02  2.1474667E-02  3.8972427E-02
   18.7500  4.2599590E-02  2.1850332E-02  3.8520711E-02
   19.0000  4.2579431E-02  2.2251928E-02  3.8033870E-02
   19.2500  4.2516523E-02  2.2676485E-02  3.7525950E-02
   19.5000  4.2418193E-02  2.3121411E-02  3.7008849E-02
   19.7500  4.2291108E-02  2.3584492E-02  3.6491964E-02
   20.0000  4.2140851E-02  2.4063674E-02  3.5982333E-02
   21.0000  4.1380191E-02  2.6086400E-02  3.4108808E-02
   22.0000  4.0410255E-02  2.8138825E-02  3.2595695E-02
   23.0000  3.9154560E-02  3.0060751E-02  3.1411458E-02
   24.0000  3.7529548E-02  3.1701463E-02  3.0464982E-02
   25.0000  3.5546062E-02  3.2928189E-02  2.9671797E-02
   26.0000  3.3336583E-02  3.3654394E-02  2.8972449E-02
   27.0000  3.1124820E-02  3.3864356E-02  2.8340896E-02
   28.0000  2.9147473E-02  3.3621983E-02  2.7789129E-02
   29.0000  2.7559463E-02  3.3048994E-02  2.7348442E-02
   30.0000  2.6382297E-02  3.2268741E-02  2.7025400E-02
   31.0000  2.5554286E-02  3.1377641E-02  2.6795916E-02
   32.0000  2.4990184E-02  3.0438787E-02  2.6620812E-02
   33.0000  2.4608575E-02  2.9485451E-02  2.6460693E-02
   34.0000  2.4338540E-02  2.8531530E-02  2.6284598E-02
   35.0000  2.4117695E-02  2.7583041E-02  2.6071529E-02
   36.0000  2.3891920E-02  2.6646943E-02  2.5809234E-02
   37.0000  2.3622912E-02  2.5736579E-02  2.5494719E-02
   38.0000  2.3301739E-02  2.4875790E-02  2.5138512E-02
   39.0000  2.2958236E-02  2.4105654E-02  2.4772600E-02
   40.0000  2.2652690E-02  2.3487295E-02  2.4453699E-02
