    Energy   (100,001)      (010,001)      (001,110)   
  -25.0000  1.6326563E-04  1.8287799E-04  1.6519333E-04
  -24.0000  1.6947897E-04  1.8991037E-04  1.7154779E-04
  -23.0000  1.7612761E-04  1.9745661E-04  1.7835302E-04
  -22.0000  1.8325694E-04  2.0557357E-04  1.8565664E-04
  -21.0000  1.9091879E-04  2.1432671E-04  1.9351309E-04
  -20.0000  1.9917253E-04  2.2379173E-04  2.0198482E-04
  -19.0000  2.0808652E-04  2.3405662E-04  2.1114387E-04
  -18.0000  2.1773985E-04  2.4522424E-04  2.2107368E-04
  -17.0000  2.2822450E-04  2.5741559E-04  2.3187149E-04
  -16.0000  2.3964804E-04  2.7077387E-04  2.4365124E-04
  -15.0000  2.5213713E-04  2.8546981E-04  2.5654727E-04
  -14.0000  2.6584181E-04  3.0170854E-04  2.7071907E-04
  -13.0000  2.8094123E-04  3.1973853E-04  2.8635740E-04
  -12.0000  2.9765095E-04  3.3986358E-04  3.0369228E-04
  -11.0000  3.1623274E-04  3.6245887E-04  3.2300353E-04
  -10.0000  3.3700759E-04  3.8799299E-04  3.4463500E-04
  -9.00000  3.6037353E-04  4.1705845E-04  3.6901388E-04
  -8.00000  3.8683024E-04  4.5041501E-04  3.9667759E-04
  -7.00000  4.1701403E-04  4.8905233E-04  4.2831177E-04
  -6.00000  4.5174845E-04  5.3428294E-04  4.6480546E-04
  -5.00000  4.9211969E-04  5.8788388E-04  5.0733337E-04
  -4.00000  5.3959274E-04  6.5232002E-04  5.5748248E-04
  -3.00000  5.9619734E-04  7.3110991E-04  6.1745489E-04
  -2.00000  6.6484038E-04  8.2945417E-04  6.9040867E-04
  -1.00000  7.4986374E-04  9.5538058E-04  7.8106741E-04
   0.00000  8.5812279E-04  1.1219951E-03  8.9690119E-04
   1.00000  1.0013081E-03  1.3523833E-03  1.0506815E-03
   2.00000  1.2017709E-03  1.6919453E-03  1.2669508E-03
   3.00000  1.5109511E-03  2.2470877E-03  1.6028110E-03
   4.00000  2.0934009E-03  3.3580496E-03  2.2450229E-03
   5.00000  3.6764966E-03  6.5233520E-03  4.0208662E-03
   5.20000  4.1782672E-03  7.5610582E-03  4.5657207E-03
   5.40000  4.6840050E-03  8.6345947E-03  5.0995884E-03
   5.60000  5.1727643E-03  9.6979635E-03  5.6057936E-03
   5.80000  5.6418952E-03  1.0730617E-02  6.0862265E-03
   6.00000  6.0970810E-03  1.1729532E-02  6.5439413E-03
   6.20000  6.5475974E-03  1.2714314E-02  6.9820859E-03
   6.40000  7.0048516E-03  1.3729137E-02  7.4101996E-03
   6.60000  7.4813214E-03  1.4832412E-02  7.8463419E-03
   6.80000  7.9896297E-03  1.6081767E-02  8.3132141E-03
   7.00000  8.5421191E-03  1.7524015E-02  8.8328073E-03
   7.20000  9.1507801E-03  1.9192057E-02  9.4232812E-03
   7.40000  9.8270776E-03  2.1105433E-02  1.0098524E-02
   7.60000  1.0581370E-02  2.3271351E-02  1.0869170E-02
   7.80000  1.1421991E-02  2.5685228E-02  1.1743830E-02
   8.00000  1.2354495E-02  2.8331516E-02  1.2729778E-02
   8.20000  1.3381811E-02  3.1186296E-02  1.3832788E-02
   8.40000  1.4505899E-02  3.4222525E-02  1.5056226E-02
   8.60000  1.5730414E-02  3.7416096E-02  1.6399945E-02
   8.80000  1.7062549E-02  4.0747678E-02  1.7859767E-02
   9.00000  1.8512130E-02  4.4195181E-02  1.9428269E-02
   9.20000  2.0087436E-02  4.7716024E-02  2.1096984E-02
   9.40000  2.1789231E-02  5.1224845E-02  2.2859545E-02
   9.60000  2.3605511E-02  5.4576732E-02  2.4714823E-02
   9.80000  2.5508552E-02  5.7565521E-02  2.6668405E-02
   10.0000  2.7454263E-02  5.9943324E-02  2.8730280E-02
   10.2500  2.9856076E-02  6.1689749E-02  3.1471461E-02
   10.5000  3.2100577E-02  6.1797819E-02  3.4387203E-02
   10.7500  3.4061597E-02  6.0282152E-02  3.7428723E-02
   11.0000  3.5641801E-02  5.7464493E-02  4.0491637E-02
   11.2500  3.6785772E-02  5.3820671E-02  4.3414478E-02
   11.5000  3.7486928E-02  4.9817356E-02  4.5996447E-02
   11.7500  3.7789002E-02  4.5817452E-02  4.8036892E-02
   12.0000  3.7774374E-02  4.2053367E-02  4.9385754E-02
   12.2500  3.7543368E-02  3.8642801E-02  4.9984113E-02
   12.5000  3.7195200E-02  3.5622802E-02  4.9875969E-02
   12.7500  3.6815800E-02  3.2983923E-02  4.9186694E-02
   13.0000  3.6472483E-02  3.0695475E-02  4.8082623E-02
   13.2500  3.6213150E-02  2.8720259E-02  4.6732570E-02
   13.5000  3.6067820E-02  2.7021576E-02  4.5282350E-02
   13.7500  3.6051220E-02  2.5565935E-02  4.3843336E-02
   14.0000  3.6165606E-02  2.4323725E-02  4.2491546E-02
   14.2500  3.6403347E-02  2.3269067E-02  4.1272536E-02
   14.5000  3.6749066E-02  2.2379439E-02  4.0208261E-02
   14.7500  3.7181350E-02  2.1635281E-02  3.9303653E-02
   15.0000  3.7674174E-02  2.1019650E-02  3.8552023E-02
   15.2500  3.8198260E-02  2.0517898E-02  3.7939165E-02
   15.5000  3.8722542E-02  2.0117382E-02  3.7446376E-02
   15.7500  3.9215859E-02  1.9807194E-02  3.7052693E-02
   16.0000  3.9648888E-02  1.9577917E-02  3.6736591E-02
   16.2500  3.9996234E-02  1.9421412E-02  3.6477309E-02
   16.5000  4.0238473E-02  1.9330636E-02  3.6255880E-02
   16.7500  4.0363861E-02  1.9299483E-02  3.6055881E-02
   17.0000  4.0369413E-02  1.9322653E-02  3.5863889E-02
   17.2500  4.0261083E-02  1.9395538E-02  3.5669664E-02
   17.5000  4.0052961E-02  1.9514123E-02  3.5466075E-02
   17.7500  3.9765552E-02  1.9674900E-02  3.5248836E-02
   18.0000  3.9423424E-02  1.9874792E-02  3.5016117E-02
   18.2500  3.9052598E-02  2.0111091E-02  3.4768095E-02
   18.5000  3.8678088E-02  2.0381401E-02  3.4506473E-02
   18.7500  3.8321903E-02  2.0683601E-02  3.4234020E-02
   19.0000  3.8001691E-02  2.1015826E-02  3.3954116E-02
   19.2500  3.7730052E-02  2.1376463E-02  3.3670340E-02
   19.5000  3.7514427E-02  2.1764172E-02  3.3386088E-02
   19.7500  3.7357377E-02  2.2177830E-02  3.3104295E-02
   20.0000  3.7257070E-02  2.2616306E-02  3.2827323E-02
   21.0000  3.7273529E-02  2.4577584E-02  3.1801339E-02
   22.0000  3.7448557E-02  2.6746084E-02  3.0929352E-02
   23.0000  3.7127924E-02  2.8938252E-02  3.0151868E-02
   24.0000  3.5955126E-02  3.0921733E-02  2.9391250E-02
   25.0000  3.3993586E-02  3.2454602E-02  2.8616817E-02
   26.0000  3.1603817E-02  3.3406636E-02  2.7848330E-02
   27.0000  2.9229009E-02  3.3766360E-02  2.7144089E-02
   28.0000  2.7197411E-02  3.3614377E-02  2.6576490E-02
   29.0000  2.5641680E-02  3.3089496E-02  2.6194875E-02
   30.0000  2.4539099E-02  3.2342061E-02  2.5996035E-02
   31.0000  2.3789647E-02  3.1495273E-02  2.5920497E-02
   32.0000  2.3273611E-02  3.0628201E-02  2.5873299E-02
   33.0000  2.2881757E-02  2.9779009E-02  2.5753153E-02
   34.0000  2.2528554E-02  2.8957563E-02  2.5475834E-02
   35.0000  2.2156628E-02  2.8157630E-02  2.4988717E-02
   36.0000  2.1737476E-02  2.7365570E-02  2.4281114E-02
   37.0000  2.1270903E-02  2.6568918E-02  2.3392720E-02
   38.0000  2.0783093E-02  2.5771032E-02  2.2415902E-02
   39.0000  2.0321437E-02  2.5012255E-02  2.1482918E-02
   40.0000  1.9941736E-02  2.4377617E-02  2.0727863E-02
