    Energy   (100,001)      (010,001)      (001,110)   
  -25.0000  1.7517376E-04  1.8679165E-04  1.8625556E-04
  -24.0000  1.8125261E-04  1.9384042E-04  1.9286412E-04
  -23.0000  1.8773065E-04  2.0139680E-04  1.9992323E-04
  -22.0000  1.9464755E-04  2.0951630E-04  2.0747983E-04
  -21.0000  2.0204836E-04  2.1826272E-04  2.1558765E-04
  -20.0000  2.0998444E-04  2.2770969E-04  2.2430836E-04
  -19.0000  2.1851462E-04  2.3794271E-04  2.3371318E-04
  -18.0000  2.2770657E-04  2.4906154E-04  2.4388475E-04
  -17.0000  2.3763856E-04  2.6118329E-04  2.5491957E-04
  -16.0000  2.4840162E-04  2.7444632E-04  2.6693097E-04
  -15.0000  2.6010219E-04  2.8901526E-04  2.8005303E-04
  -14.0000  2.7286558E-04  3.0508742E-04  2.9444556E-04
  -13.0000  2.8684037E-04  3.2290127E-04  3.1030057E-04
  -12.0000  3.0220403E-04  3.4274762E-04  3.2785095E-04
  -11.0000  3.1917038E-04  3.6498462E-04  3.4738194E-04
  -10.0000  3.3799949E-04  3.9005820E-04  3.6924697E-04
  -9.00000  3.5901096E-04  4.1853038E-04  3.9388948E-04
  -8.00000  3.8260226E-04  4.5111922E-04  4.2187390E-04
  -7.00000  4.0927440E-04  4.8875638E-04  4.5393061E-04
  -6.00000  4.3966870E-04  5.3267199E-04  4.9102277E-04
  -5.00000  4.7462094E-04  5.8452351E-04  5.3444904E-04
  -4.00000  5.1524379E-04  6.4659760E-04  5.8600697E-04
  -3.00000  5.6305692E-04  7.2213884E-04  6.4826464E-04
  -2.00000  6.2020268E-04  8.1591102E-04  7.2503634E-04
  -1.00000  6.8982562E-04  9.3521351E-04  8.2227150E-04
   0.00000  7.7679504E-04  1.0918680E-03  9.4985952E-04
   1.00000  8.8923637E-04  1.3065256E-03  1.1257180E-03
   2.00000  1.0423137E-03  1.6194961E-03  1.3865691E-03
   3.00000  1.2700129E-03  2.1249146E-03  1.8234544E-03
   4.00000  1.6781452E-03  3.1259915E-03  2.7474030E-03
   5.00000  2.7225682E-03  5.9463990E-03  5.6075517E-03
   5.20000  3.0475095E-03  6.8270572E-03  6.5779636E-03
   5.40000  3.3790674E-03  7.6998689E-03  7.5907981E-03
   5.60000  3.7095140E-03  8.5360278E-03  8.5986087E-03
   5.80000  4.0402795E-03  9.3449042E-03  9.5691323E-03
   6.00000  4.3736306E-03  1.0150888E-02  1.0471593E-02
   6.20000  4.7107139E-03  1.0982951E-02  1.1281975E-02
   6.40000  5.0532007E-03  1.1871650E-02  1.1996966E-02
   6.60000  5.4047809E-03  1.2847230E-02  1.2640619E-02
   6.80000  5.7713011E-03  1.3938157E-02  1.3258549E-02
   7.00000  6.1600555E-03  1.5170815E-02  1.3905055E-02
   7.20000  6.5790006E-03  1.6570186E-02  1.4630455E-02
   7.40000  7.0362072E-03  1.8160573E-02  1.5472045E-02
   7.60000  7.5394561E-03  1.9965448E-02  1.6448439E-02
   7.80000  8.0957542E-03  2.2005937E-02  1.7555872E-02
   8.00000  8.7106463E-03  2.4298025E-02  1.8765934E-02
   8.20000  9.3874337E-03  2.6849130E-02  2.0025949E-02
   8.40000  1.0126650E-02  2.9655064E-02  2.1264134E-02
   8.60000  1.0926225E-02  3.2698380E-02  2.2400696E-02
   8.80000  1.1782592E-02  3.5948479E-02  2.3363508E-02
   9.00000  1.2692560E-02  3.9362843E-02  2.4103808E-02
   9.20000  1.3655322E-02  4.2887602E-02  2.4606117E-02
   9.40000  1.4673673E-02  4.6455140E-02  2.4888961E-02
   9.60000  1.5753683E-02  4.9977645E-02  2.4997259E-02
   9.80000  1.6902725E-02  5.3338535E-02  2.4990317E-02
   10.0000  1.8126426E-02  5.6387028E-02  2.4929647E-02
   10.2500  1.9761371E-02  5.9482767E-02  2.4859077E-02
   10.5000  2.1498134E-02  6.1450050E-02  2.4860805E-02
   10.7500  2.3300210E-02  6.2026314E-02  2.4967108E-02
   11.0000  2.5110949E-02  6.1145878E-02  2.5178068E-02
   11.2500  2.6859922E-02  5.8970555E-02  2.5476513E-02
   11.5000  2.8473576E-02  5.5832589E-02  2.5839837E-02
   11.7500  2.9887067E-02  5.2126140E-02  2.6247878E-02
   12.0000  3.1054267E-02  4.8208347E-02  2.6686631E-02
   12.2500  3.1955035E-02  4.4347441E-02  2.7148240E-02
   12.5000  3.2599274E-02  4.0715527E-02  2.7629539E-02
   12.7500  3.3025103E-02  3.7405452E-02  2.8129956E-02
   13.0000  3.3291292E-02  3.4454434E-02  2.8648952E-02
   13.2500  3.3465760E-02  3.1865256E-02  2.9184632E-02
   13.5000  3.3612815E-02  2.9621348E-02  2.9734810E-02
   13.7500  3.3784134E-02  2.7696024E-02  3.0298826E-02
   14.0000  3.4015360E-02  2.6058050E-02  3.0878102E-02
   14.2500  3.4326452E-02  2.4675176E-02  3.1475378E-02
   14.5000  3.4723637E-02  2.3516341E-02  3.2093422E-02
   14.7500  3.5201850E-02  2.2552932E-02  3.2733678E-02
   15.0000  3.5747147E-02  2.1759389E-02  3.3395103E-02
   15.2500  3.6338919E-02  2.1113376E-02  3.4073313E-02
   15.5000  3.6951922E-02  2.0595687E-02  3.4760126E-02
   15.7500  3.7558181E-02  2.0189996E-02  3.5443570E-02
   16.0000  3.8128881E-02  1.9882547E-02  3.6108375E-02
   16.2500  3.8636315E-02  1.9661803E-02  3.6736948E-02
   16.5000  3.9055873E-02  1.9518116E-02  3.7310771E-02
   16.7500  3.9367961E-02  1.9443410E-02  3.7812069E-02
   17.0000  3.9559644E-02  1.9430893E-02  3.8225564E-02
   17.2500  3.9625761E-02  1.9474810E-02  3.8540031E-02
   17.5000  3.9569291E-02  1.9570232E-02  3.8749428E-02
   17.7500  3.9400819E-02  1.9712874E-02  3.8853390E-02
   18.0000  3.9137184E-02  1.9898950E-02  3.8857046E-02
   18.2500  3.8799512E-02  2.0125071E-02  3.8770207E-02
   18.5000  3.8410970E-02  2.0388157E-02  3.8606124E-02
   18.7500  3.7994611E-02  2.0685406E-02  3.8380036E-02
   19.0000  3.7571576E-02  2.1014274E-02  3.8107739E-02
   19.2500  3.7159807E-02  2.1372503E-02  3.7804327E-02
   19.5000  3.6773297E-02  2.1758159E-02  3.7483209E-02
   19.7500  3.6421859E-02  2.2169605E-02  3.7155486E-02
   20.0000  3.6111382E-02  2.2605301E-02  3.6829803E-02
   21.0000  3.5302681E-02  2.4545359E-02  3.5657035E-02
   22.0000  3.5065654E-02  2.6678265E-02  3.4782406E-02
   23.0000  3.5089342E-02  2.8837709E-02  3.4116472E-02
   24.0000  3.5062671E-02  3.0823561E-02  3.3497857E-02
   25.0000  3.4767920E-02  3.2428369E-02  3.2802200E-02
   26.0000  3.4115378E-02  3.3508255E-02  3.1976046E-02
   27.0000  3.3153646E-02  3.4032645E-02  3.1041755E-02
   28.0000  3.2027465E-02  3.4070922E-02  3.0081156E-02
   29.0000  3.0894633E-02  3.3741218E-02  2.9199123E-02
   30.0000  2.9867309E-02  3.3167874E-02  2.8480745E-02
   31.0000  2.9002618E-02  3.2465067E-02  2.7963298E-02
   32.0000  2.8309968E-02  3.1722942E-02  2.7632631E-02
   33.0000  2.7760576E-02  3.0979319E-02  2.7439654E-02
   34.0000  2.7311088E-02  3.0232938E-02  2.7328765E-02
   35.0000  2.6922794E-02  2.9468696E-02  2.7256138E-02
   36.0000  2.6570381E-02  2.8675073E-02  2.7194035E-02
   37.0000  2.6243586E-02  2.7856823E-02  2.7127214E-02
   38.0000  2.5943802E-02  2.7042488E-02  2.7047867E-02
   39.0000  2.5680447E-02  2.6288490E-02  2.6956080E-02
   40.0000  2.5469399E-02  2.5674354E-02  2.6866553E-02
