    Energy   (100,001)      (010,001)      (001,110)   
  -25.0000  1.6965946E-04  1.7765241E-04  1.7005031E-04
  -24.0000  1.7608837E-04  1.8453672E-04  1.7667888E-04
  -23.0000  1.8296992E-04  1.9192434E-04  1.8378708E-04
  -22.0000  1.9035176E-04  1.9987083E-04  1.9142675E-04
  -21.0000  1.9828831E-04  2.0844013E-04  1.9965733E-04
  -20.0000  2.0684205E-04  2.1770613E-04  2.0854724E-04
  -19.0000  2.1608496E-04  2.2775471E-04  2.1817567E-04
  -18.0000  2.2610046E-04  2.3868617E-04  2.2863474E-04
  -17.0000  2.3698575E-04  2.5061846E-04  2.4003217E-04
  -16.0000  2.4885467E-04  2.6369108E-04  2.5249478E-04
  -15.0000  2.6184148E-04  2.7807026E-04  2.6617280E-04
  -14.0000  2.7610558E-04  2.9395555E-04  2.8124550E-04
  -13.0000  2.9183761E-04  3.1158856E-04  2.9792845E-04
  -12.0000  3.0926749E-04  3.3126442E-04  3.1648320E-04
  -11.0000  3.2867502E-04  3.5334738E-04  3.3723002E-04
  -10.0000  3.5040413E-04  3.7829193E-04  3.6056531E-04
  -9.00000  3.7488231E-04  4.0667231E-04  3.8698545E-04
  -8.00000  4.0264769E-04  4.3922413E-04  4.1712034E-04
  -7.00000  4.3438739E-04  4.7690467E-04  4.5178138E-04
  -6.00000  4.7099321E-04  5.2098211E-04  4.9203194E-04
  -5.00000  5.1364481E-04  5.7317151E-04  5.3929370E-04
  -4.00000  5.6393791E-04  6.3584880E-04  5.9551253E-04
  -3.00000  6.2408969E-04  7.1240088E-04  6.6342767E-04
  -2.00000  6.9728382E-04  8.0782598E-04  7.4702988E-04
  -1.00000  7.8828584E-04  9.2982559E-04  8.5238937E-04
   0.00000  9.0462868E-04  1.0909457E-03  9.8927120E-04
   1.00000  1.0591496E-03  1.3132243E-03  1.1746278E-03
   2.00000  1.2762914E-03  1.6398424E-03  1.4413211E-03
   3.00000  1.6117234E-03  2.1714934E-03  1.8651745E-03
   4.00000  2.2398945E-03  3.2280912E-03  2.6835306E-03
   5.00000  3.9201042E-03  6.1982244E-03  4.9216134E-03
   5.20000  4.4588232E-03  7.1555643E-03  5.6584927E-03
   5.40000  5.0140163E-03  8.1416244E-03  6.4438771E-03
   5.60000  5.5674182E-03  9.1309395E-03  7.2659732E-03
   5.80000  6.1177113E-03  1.0129711E-02  8.1301947E-03
   6.00000  6.6701396E-03  1.1153538E-02  9.0423754E-03
   6.20000  7.2315013E-03  1.2217800E-02  1.0001367E-02
   6.40000  7.8091127E-03  1.3337109E-02  1.0999058E-02
   6.60000  8.4108509E-03  1.4527340E-02  1.2023699E-02
   6.80000  9.0452059E-03  1.5807370E-02  1.3064239E-02
   7.00000  9.7211034E-03  1.7199660E-02  1.4114033E-02
   7.20000  1.0447573E-02  1.8729622E-02  1.5172770E-02
   7.40000  1.1233483E-02  2.0424352E-02  1.6246514E-02
   7.60000  1.2087577E-02  2.2311653E-02  1.7346405E-02
   7.80000  1.3018924E-02  2.4420039E-02  1.8486680E-02
   8.00000  1.4037650E-02  2.6779084E-02  1.9682493E-02
   8.20000  1.5155548E-02  2.9418138E-02  2.0947823E-02
   8.40000  1.6386058E-02  3.2361216E-02  2.2293376E-02
   8.60000  1.7743295E-02  3.5616965E-02  2.3724365E-02
   8.80000  1.9240211E-02  3.9164280E-02  2.5238319E-02
   9.00000  2.0886171E-02  4.2935815E-02  2.6823786E-02
   9.20000  2.2684012E-02  4.6803176E-02  2.8461266E-02
   9.40000  2.4626828E-02  5.0569862E-02  3.0126186E-02
   9.60000  2.6694964E-02  5.3980593E-02  3.1792267E-02
   9.80000  2.8853538E-02  5.6754612E-02  3.3434622E-02
   10.0000  3.1050738E-02  5.8641539E-02  3.5031929E-02
   10.2500  3.3745687E-02  5.9523770E-02  3.6939472E-02
   10.5000  3.6232775E-02  5.8765825E-02  3.8724383E-02
   10.7500  3.8347710E-02  5.6654053E-02  4.0364367E-02
   11.0000  3.9957636E-02  5.3639427E-02  4.1832396E-02
   11.2500  4.0997212E-02  5.0174987E-02  4.3092156E-02
   11.5000  4.1485618E-02  4.6614904E-02  4.4100135E-02
   11.7500  4.1513401E-02  4.3187648E-02  4.4814374E-02
   12.0000  4.1209644E-02  4.0014156E-02  4.5207566E-02
   12.2500  4.0707774E-02  3.7143372E-02  4.5279478E-02
   12.5000  4.0122042E-02  3.4585378E-02  4.5062111E-02
   12.7500  3.9538495E-02  3.2331242E-02  4.4613811E-02
   13.0000  3.9015975E-02  3.0362209E-02  4.4005610E-02
   13.2500  3.8590710E-02  2.8654400E-02  4.3307137E-02
   13.5000  3.8281032E-02  2.7181917E-02  4.2577613E-02
   13.7500  3.8091307E-02  2.5918976E-02  4.1862100E-02
   14.0000  3.8015125E-02  2.4841238E-02  4.1190893E-02
   14.2500  3.8037842E-02  2.3926510E-02  4.0580621E-02
   14.5000  3.8138653E-02  2.3155050E-02  4.0036253E-02
   14.7500  3.8292416E-02  2.2509602E-02  3.9553573E-02
   15.0000  3.8471511E-02  2.1975288E-02  3.9121862E-02
   15.2500  3.8647886E-02  2.1539399E-02  3.8726640E-02
   15.5000  3.8795273E-02  2.1191155E-02  3.8352299E-02
   15.7500  3.8891391E-02  2.0921424E-02  3.7984407E-02
   16.0000  3.8919811E-02  2.0722441E-02  3.7611416E-02
   16.2500  3.8871213E-02  2.0587547E-02  3.7225621E-02
   16.5000  3.8743830E-02  2.0510947E-02  3.6823323E-02
   16.7500  3.8543068E-02  2.0487517E-02  3.6404353E-02
   17.0000  3.8280424E-02  2.0512657E-02  3.5971210E-02
   17.2500  3.7971923E-02  2.0582186E-02  3.5528080E-02
   17.5000  3.7636292E-02  2.0692281E-02  3.5079948E-02
   17.7500  3.7293118E-02  2.0839450E-02  3.4631923E-02
   18.0000  3.6961138E-02  2.1020513E-02  3.4188787E-02
   18.2500  3.6656824E-02  2.1232606E-02  3.3754750E-02
   18.5000  3.6393356E-02  2.1473180E-02  3.3333338E-02
   18.7500  3.6179995E-02  2.1740013E-02  3.2927379E-02
   19.0000  3.6021875E-02  2.2031215E-02  3.2539016E-02
   19.2500  3.5920145E-02  2.2345263E-02  3.2169731E-02
   19.5000  3.5872376E-02  2.2681015E-02  3.1820364E-02
   19.7500  3.5873091E-02  2.3037680E-02  3.1491137E-02
   20.0000  3.5914222E-02  2.3414623E-02  3.1181776E-02
   21.0000  3.6255085E-02  2.5102140E-02  3.0132274E-02
   22.0000  3.6322183E-02  2.7004063E-02  2.9338299E-02
   23.0000  3.5625754E-02  2.8992659E-02  2.8697479E-02
   24.0000  3.4092878E-02  3.0873546E-02  2.8100375E-02
   25.0000  3.2000361E-02  3.2413140E-02  2.7477633E-02
   26.0000  2.9776418E-02  3.3426949E-02  2.6823884E-02
   27.0000  2.7760625E-02  3.3877371E-02  2.6180782E-02
   28.0000  2.6127292E-02  3.3843585E-02  2.5612406E-02
   29.0000  2.4907359E-02  3.3452074E-02  2.5169295E-02
   30.0000  2.4043357E-02  3.2825510E-02  2.4860573E-02
   31.0000  2.3446078E-02  3.2055981E-02  2.4653963E-02
   32.0000  2.3029297E-02  3.1198626E-02  2.4493604E-02
   33.0000  2.2722996E-02  3.0277980E-02  2.4318209E-02
   34.0000  2.2475298E-02  2.9300740E-02  2.4072686E-02
   35.0000  2.2250682E-02  2.8269466E-02  2.3716021E-02
   36.0000  2.2027433E-02  2.7193817E-02  2.3230302E-02
   37.0000  2.1794976E-02  2.6098803E-02  2.2631758E-02
   38.0000  2.1552981E-02  2.5030850E-02  2.1977761E-02
   39.0000  2.1314383E-02  2.4062327E-02  2.1358391E-02
   40.0000  2.1107454E-02  2.3284765E-02  2.0862634E-02
