    Energy   (100,001)      (010,001)      (001,110)   
  -25.0000  1.7130527E-04  1.8316768E-04  1.7081859E-04
  -24.0000  1.7755513E-04  1.9012181E-04  1.7710450E-04
  -23.0000  1.8423242E-04  1.9757866E-04  1.8382284E-04
  -22.0000  1.9138113E-04  2.0559337E-04  1.9101828E-04
  -21.0000  1.9905141E-04  2.1422930E-04  1.9874173E-04
  -20.0000  2.0730067E-04  2.2355966E-04  2.0705151E-04
  -19.0000  2.1619496E-04  2.3366945E-04  2.1601470E-04
  -18.0000  2.2581061E-04  2.4465788E-04  2.2570886E-04
  -17.0000  2.3623632E-04  2.5664153E-04  2.3622410E-04
  -16.0000  2.4757575E-04  2.6975816E-04  2.4766577E-04
  -15.0000  2.5995084E-04  2.8417179E-04  2.6015774E-04
  -14.0000  2.7350593E-04  3.0007917E-04  2.7384670E-04
  -13.0000  2.8841324E-04  3.1771823E-04  2.8890758E-04
  -12.0000  3.0487985E-04  3.3737942E-04  3.0555074E-04
  -11.0000  3.2315706E-04  3.5942076E-04  3.2403131E-04
  -10.0000  3.4355283E-04  3.8428858E-04  3.4466183E-04
  -9.00000  3.6644888E-04  4.1254611E-04  3.6782937E-04
  -8.00000  3.9232421E-04  4.4491409E-04  3.9401917E-04
  -7.00000  4.2178863E-04  4.8232930E-04  4.2384812E-04
  -6.00000  4.5563131E-04  5.2603125E-04  4.5811295E-04
  -5.00000  4.9489326E-04  5.7769415E-04  4.9786176E-04
  -4.00000  5.4097905E-04  6.3963445E-04  5.4450328E-04
  -3.00000  5.9583620E-04  7.1515029E-04  5.9998007E-04
  -2.00000  6.6225747E-04  8.0910375E-04  6.6705556E-04
  -1.00000  7.4442256E-04  9.2898017E-04  7.4981673E-04
   0.00000  8.4895075E-04  1.0869686E-03  8.5461969E-04
   1.00000  9.8718137E-04  1.3044890E-03  9.9204679E-04
   2.00000  1.1809451E-03  1.6235898E-03  1.1815511E-03
   3.00000  1.4810375E-03  2.1427717E-03  1.4650610E-03
   4.00000  2.0528818E-03  3.1778649E-03  1.9634386E-03
   5.00000  3.6255419E-03  6.1036280E-03  3.1599674E-03
   5.20000  4.1077218E-03  7.0346526E-03  3.5330694E-03
   5.40000  4.5792006E-03  7.9798878E-03  3.9265210E-03
   5.60000  5.0254734E-03  8.9158314E-03  4.3372590E-03
   5.80000  5.4538541E-03  9.8550245E-03  4.7737379E-03
   6.00000  5.8780590E-03  1.0821271E-02  5.2484661E-03
   6.20000  6.3113151E-03  1.1837945E-02  5.7747918E-03
   6.40000  6.7653025E-03  1.2925673E-02  6.3665404E-03
   6.60000  7.2507262E-03  1.4102731E-02  7.0382787E-03
   6.80000  7.7780170E-03  1.5385709E-02  7.8052508E-03
   7.00000  8.3578082E-03  1.6789865E-02  8.6825453E-03
   7.20000  9.0010047E-03  1.8328960E-02  9.6830953E-03
   7.40000  9.7182692E-03  2.0014427E-02  1.0814119E-02
   7.60000  1.0518834E-02  2.1854067E-02  1.2071946E-02
   7.80000  1.1408719E-02  2.3851024E-02  1.3436195E-02
   8.00000  1.2388599E-02  2.6003603E-02  1.4865890E-02
   8.20000  1.3451881E-02  2.8306025E-02  1.6301589E-02
   8.40000  1.4584120E-02  3.0750048E-02  1.7676731E-02
   8.60000  1.5764813E-02  3.3326574E-02  1.8936532E-02
   8.80000  1.6971662E-02  3.6025829E-02  2.0055976E-02
   9.00000  1.8186068E-02  3.8835689E-02  2.1046506E-02
   9.20000  1.9397758E-02  4.1738592E-02  2.1947572E-02
   9.40000  2.0606543E-02  4.4706077E-02  2.2808775E-02
   9.60000  2.1820218E-02  4.7688134E-02  2.3672416E-02
   9.80000  2.3049300E-02  5.0596921E-02  2.4563181E-02
   10.0000  2.4300728E-02  5.3291503E-02  2.5486267E-02
   10.2500  2.5892934E-02  5.6058546E-02  2.6669537E-02
   10.5000  2.7490443E-02  5.7760395E-02  2.7852983E-02
   10.7500  2.9045240E-02  5.8077957E-02  2.9004751E-02
   11.0000  3.0497984E-02  5.6949306E-02  3.0103549E-02
   11.2500  3.1793631E-02  5.4598788E-02  3.1133107E-02
   11.5000  3.2898390E-02  5.1428294E-02  3.2074591E-02
   11.7500  3.3807910E-02  4.7861852E-02  3.2907404E-02
   12.0000  3.4541130E-02  4.4239443E-02  3.3614975E-02
   12.2500  3.5129736E-02  4.0784040E-02  3.4188567E-02
   12.5000  3.5611450E-02  3.7617105E-02  3.4629425E-02
   12.7500  3.6025226E-02  3.4789556E-02  3.4950147E-02
   13.0000  3.6406697E-02  3.2309476E-02  3.5173923E-02
   13.2500  3.6784729E-02  3.0161749E-02  3.5331431E-02
   13.5000  3.7179589E-02  2.8320299E-02  3.5456629E-02
   13.7500  3.7602416E-02  2.6754998E-02  3.5582658E-02
   14.0000  3.8055493E-02  2.5435302E-02  3.5738750E-02
   14.2500  3.8532968E-02  2.4332102E-02  3.5948565E-02
   14.5000  3.9021901E-02  2.3418615E-02  3.6229491E-02
   14.7500  3.9503585E-02  2.2670717E-02  3.6592098E-02
   15.0000  3.9955122E-02  2.2066974E-02  3.7039583E-02
   15.2500  4.0351359E-02  2.1588545E-02  3.7567430E-02
   15.5000  4.0667125E-02  2.1219049E-02  3.8163405E-02
   15.7500  4.0879637E-02  2.0944415E-02  3.8807969E-02
   16.0000  4.0970755E-02  2.0752731E-02  3.9475265E-02
   16.2500  4.0928764E-02  2.0634073E-02  4.0134782E-02
   16.5000  4.0749383E-02  2.0580331E-02  4.0753706E-02
   16.7500  4.0435880E-02  2.0584983E-02  4.1299771E-02
   17.0000  3.9998355E-02  2.0642850E-02  4.1744271E-02
   17.2500  3.9452432E-02  2.0749812E-02  4.2064755E-02
   17.5000  3.8817636E-02  2.0902522E-02  4.2246974E-02
   17.7500  3.8115766E-02  2.1098130E-02  4.2285763E-02
   18.0000  3.7369435E-02  2.1334038E-02  4.2184783E-02
   18.2500  3.6600872E-02  2.1607715E-02  4.1955264E-02
   18.5000  3.5830983E-02  2.1916565E-02  4.1614066E-02
   18.7500  3.5078650E-02  2.2257880E-02  4.1181447E-02
   19.0000  3.4360200E-02  2.2628848E-02  4.0678871E-02
   19.2500  3.3689026E-02  2.3026645E-02  4.0127111E-02
   19.5000  3.3075345E-02  2.3448548E-02  3.9544772E-02
   19.7500  3.2526125E-02  2.3892003E-02  3.8947385E-02
   20.0000  3.2045332E-02  2.4354474E-02  3.8347250E-02
   21.0000  3.0818756E-02  2.6327582E-02  3.6088068E-02
   22.0000  3.0592160E-02  2.8330007E-02  3.4241409E-02
   23.0000  3.1037438E-02  3.0168976E-02  3.2777291E-02
   24.0000  3.1764638E-02  3.1669165E-02  3.1557918E-02
   25.0000  3.2418206E-02  3.2694400E-02  3.0465318E-02
   26.0000  3.2731953E-02  3.3188641E-02  2.9438633E-02
   27.0000  3.2576175E-02  3.3192520E-02  2.8480714E-02
   28.0000  3.1973735E-02  3.2816593E-02  2.7639317E-02
   29.0000  3.1065187E-02  3.2199725E-02  2.6965342E-02
   30.0000  3.0031389E-02  3.1471603E-02  2.6473163E-02
   31.0000  2.9008226E-02  3.0715363E-02  2.6131356E-02
   32.0000  2.8068542E-02  2.9971631E-02  2.5884658E-02
   33.0000  2.7235927E-02  2.9254339E-02  2.5674550E-02
   34.0000  2.6501774E-02  2.8561159E-02  2.5448655E-02
   35.0000  2.5842106E-02  2.7881995E-02  2.5165030E-02
   36.0000  2.5231465E-02  2.7205978E-02  2.4796816E-02
   37.0000  2.4653188E-02  2.6527834E-02  2.4339568E-02
   38.0000  2.4106627E-02  2.5856075E-02  2.3818724E-02
   39.0000  2.3612156E-02  2.5225348E-02  2.3293044E-02
   40.0000  2.3209831E-02  2.4701923E-02  2.2845247E-02
