    Energy   (100,001)      (010,001)      (001,110)   
  -25.0000  1.6648841E-04  1.8266166E-04  1.6956651E-04
  -24.0000  1.7272060E-04  1.8954384E-04  1.7609303E-04
  -23.0000  1.7938456E-04  1.9691982E-04  1.8308534E-04
  -22.0000  1.8652496E-04  2.0484340E-04  1.9059311E-04
  -21.0000  1.9419268E-04  2.1337636E-04  1.9867319E-04
  -20.0000  2.0244601E-04  2.2259001E-04  2.0739097E-04
  -19.0000  2.1135193E-04  2.3256707E-04  2.1682194E-04
  -18.0000  2.2098788E-04  2.4340405E-04  2.2705376E-04
  -17.0000  2.3144377E-04  2.5521416E-04  2.3818879E-04
  -16.0000  2.4282466E-04  2.6813111E-04  2.5034724E-04
  -15.0000  2.5525399E-04  2.8231388E-04  2.6367122E-04
  -14.0000  2.6887780E-04  2.9795294E-04  2.7832995E-04
  -13.0000  2.8387011E-04  3.1527835E-04  2.9452642E-04
  -12.0000  3.0043991E-04  3.3457050E-04  3.1250629E-04
  -11.0000  3.1884042E-04  3.5617451E-04  3.3256956E-04
  -10.0000  3.3938135E-04  3.8051982E-04  3.5508648E-04
  -9.00000  3.6244567E-04  4.0814733E-04  3.8051928E-04
  -8.00000  3.8851265E-04  4.3974769E-04  4.0945260E-04
  -7.00000  4.1819039E-04  4.7621636E-04  4.4263689E-04
  -6.00000  4.5226259E-04  5.1873489E-04  4.8105194E-04
  -5.00000  4.9175795E-04  5.6889410E-04  5.2600231E-04
  -4.00000  5.3805601E-04  6.2888699E-04  5.7926575E-04
  -3.00000  5.9305532E-04  7.0182261E-04  6.4333285E-04
  -2.00000  6.5945314E-04  7.9226135E-04  7.2181348E-04
  -1.00000  7.4123959E-04  9.0718283E-04  8.2016833E-04
   0.00000  8.4464176E-04  1.0578737E-03  9.4713152E-04
   1.00000  9.8013183E-04  1.2640068E-03  1.1177796E-03
   2.00000  1.1674120E-03  1.5638424E-03  1.3611943E-03
   3.00000  1.4510822E-03  2.0461290E-03  1.7442925E-03
   4.00000  1.9722790E-03  2.9931006E-03  2.4768452E-03
   5.00000  3.3413736E-03  5.6262786E-03  4.4778810E-03
   5.20000  3.7572374E-03  6.4576126E-03  5.1439458E-03
   5.40000  4.1665669E-03  7.2986706E-03  5.8535147E-03
   5.60000  4.5582949E-03  8.1281905E-03  6.5844417E-03
   5.80000  4.9386306E-03  8.9566072E-03  7.3271026E-03
   6.00000  5.3180573E-03  9.8040204E-03  8.0755661E-03
   6.20000  5.7060592E-03  1.0690653E-02  8.8256457E-03
   6.40000  6.1108331E-03  1.1635519E-02  9.5767072E-03
   6.60000  6.5401479E-03  1.2656704E-02  1.0332885E-02
   6.80000  7.0020743E-03  1.3771090E-02  1.1102585E-02
   7.00000  7.5054716E-03  1.4993674E-02  1.1897039E-02
   7.20000  8.0602550E-03  1.6337275E-02  1.2728902E-02
   7.40000  8.6773683E-03  1.7813070E-02  1.3611429E-02
   7.60000  9.3684071E-03  1.9431792E-02  1.4558243E-02
   7.80000  1.0144913E-02  2.1205277E-02  1.5583276E-02
   8.00000  1.1017534E-02  2.3148125E-02  1.6700434E-02
   8.20000  1.1995421E-02  2.5279092E-02  1.7922717E-02
   8.40000  1.3086214E-02  2.7621549E-02  1.9260924E-02
   8.60000  1.4296606E-02  3.0201942E-02  2.0722238E-02
   8.80000  1.5633000E-02  3.3045330E-02  2.2308924E-02
   9.00000  1.7101333E-02  3.6167105E-02  2.4017166E-02
   9.20000  1.8705303E-02  3.9560468E-02  2.5836052E-02
   9.40000  2.0443268E-02  4.3180866E-02  2.7746838E-02
   9.60000  2.2304910E-02  4.6931025E-02  2.9722614E-02
   9.80000  2.4268510E-02  5.0652111E-02  3.1728259E-02
   10.0000  2.6299155E-02  5.4126273E-02  3.3721091E-02
   10.2500  2.8856668E-02  5.7726134E-02  3.6120717E-02
   10.5000  3.1323546E-02  6.0037733E-02  3.8328065E-02
   10.7500  3.3569088E-02  6.0724685E-02  4.0249825E-02
   11.0000  3.5471196E-02  5.9742701E-02  4.1802194E-02
   11.2500  3.6939097E-02  5.7351038E-02  4.2920458E-02
   11.5000  3.7933670E-02  5.4001469E-02  4.3572849E-02
   11.7500  3.8475598E-02  5.0179839E-02  4.3768890E-02
   12.0000  3.8637221E-02  4.6285058E-02  4.3556489E-02
   12.2500  3.8523375E-02  4.2580677E-02  4.3011728E-02
   12.5000  3.8248489E-02  3.9204099E-02  4.2226066E-02
   12.7500  3.7916923E-02  3.6201967E-02  4.1293180E-02
   13.0000  3.7611005E-02  3.3567704E-02  4.0298268E-02
   13.2500  3.7387078E-02  3.1269995E-02  3.9312042E-02
   13.5000  3.7277484E-02  2.9270244E-02  3.8388801E-02
   13.7500  3.7295435E-02  2.7531249E-02  3.7567379E-02
   14.0000  3.7440046E-02  2.6020522E-02  3.6873302E-02
   14.2500  3.7700449E-02  2.4710834E-02  3.6321027E-02
   14.5000  3.8059073E-02  2.3579482E-02  3.5916018E-02
   14.7500  3.8494011E-02  2.2607230E-02  3.5656526E-02
   15.0000  3.8980491E-02  2.1777418E-02  3.5534919E-02
   15.2500  3.9491757E-02  2.1075378E-02  3.5538586E-02
   15.5000  3.9999770E-02  2.0488093E-02  3.5650575E-02
   15.7500  4.0475997E-02  2.0004006E-02  3.5850120E-02
   16.0000  4.0892477E-02  1.9612920E-02  3.6113249E-02
   16.2500  4.1223206E-02  1.9305933E-02  3.6413613E-02
   16.5000  4.1445793E-02  1.9075377E-02  3.6723641E-02
   16.7500  4.1543192E-02  1.8914745E-02  3.7016031E-02
   17.0000  4.1505267E-02  1.8818584E-02  3.7265497E-02
   17.2500  4.1329878E-02  1.8782371E-02  3.7450554E-02
   17.5000  4.1023246E-02  1.8802358E-02  3.7555089E-02
   17.7500  4.0599456E-02  1.8875413E-02  3.7569417E-02
   18.0000  4.0079131E-02  1.8998858E-02  3.7490633E-02
   18.2500  3.9487461E-02  1.9170332E-02  3.7322213E-02
   18.5000  3.8851921E-02  1.9387685E-02  3.7072934E-02
   18.7500  3.8200000E-02  1.9648912E-02  3.6755378E-02
   19.0000  3.7557217E-02  1.9952140E-02  3.6384242E-02
   19.2500  3.6945616E-02  2.0295653E-02  3.5974720E-02
   19.5000  3.6382766E-02  2.0677945E-02  3.5541129E-02
   19.7500  3.5881303E-02  2.1097706E-02  3.5095950E-02
   20.0000  3.5449044E-02  2.1553622E-02  3.4649469E-02
   21.0000  3.4444890E-02  2.3695487E-02  3.2998364E-02
   22.0000  3.4400273E-02  2.6218139E-02  3.1732063E-02
   23.0000  3.4717266E-02  2.8888576E-02  3.0815514E-02
   24.0000  3.4699665E-02  3.1371537E-02  3.0091061E-02
   25.0000  3.3916658E-02  3.3385102E-02  2.9415714E-02
   26.0000  3.2424515E-02  3.4758339E-02  2.8712458E-02
   27.0000  3.0623750E-02  3.5439879E-02  2.7980306E-02
   28.0000  2.8912543E-02  3.5490546E-02  2.7272529E-02
   29.0000  2.7488874E-02  3.5052808E-02  2.6652444E-02
   30.0000  2.6371789E-02  3.4299001E-02  2.6152881E-02
   31.0000  2.5496850E-02  3.3378461E-02  2.5762976E-02
   32.0000  2.4785120E-02  3.2391515E-02  2.5441138E-02
   33.0000  2.4172050E-02  3.1391465E-02  2.5135453E-02
   34.0000  2.3613547E-02  3.0399452E-02  2.4797247E-02
   35.0000  2.3084016E-02  2.9420223E-02  2.4386768E-02
   36.0000  2.2573792E-02  2.8454620E-02  2.3877318E-02
   37.0000  2.2087480E-02  2.7508697E-02  2.3262406E-02
   38.0000  2.1641779E-02  2.6602068E-02  2.2567151E-02
   39.0000  2.1260482E-02  2.5778890E-02  2.1861108E-02
   40.0000  2.0964911E-02  2.5111647E-02  2.1254432E-02
