    Energy   (100,001)      (010,001)      (001,110)   
  -25.0000  1.6563011E-04  1.8535001E-04  1.7276810E-04
  -24.0000  1.7173668E-04  1.9224095E-04  1.7913362E-04
  -23.0000  1.7825890E-04  1.9962157E-04  1.8593848E-04
  -22.0000  1.8523894E-04  2.0754478E-04  1.9322826E-04
  -21.0000  1.9272475E-04  2.1607134E-04  2.0105494E-04
  -20.0000  2.0077108E-04  2.2527127E-04  2.0947809E-04
  -19.0000  2.0944070E-04  2.3522575E-04  2.1856630E-04
  -18.0000  2.1880594E-04  2.4602936E-04  2.2839887E-04
  -17.0000  2.2895054E-04  2.5779297E-04  2.3906808E-04
  -16.0000  2.3997199E-04  2.7064735E-04  2.5068183E-04
  -15.0000  2.5198446E-04  2.8474779E-04  2.6336715E-04
  -14.0000  2.6512247E-04  3.0028013E-04  2.7727454E-04
  -13.0000  2.7954565E-04  3.1746851E-04  2.9258371E-04
  -12.0000  2.9544484E-04  3.3658573E-04  3.0951090E-04
  -11.0000  3.1305015E-04  3.5796706E-04  3.2831870E-04
  -10.0000  3.3264156E-04  3.8202901E-04  3.4932911E-04
  -9.00000  3.5456328E-04  4.0929533E-04  3.7294136E-04
  -8.00000  3.7924342E-04  4.4043356E-04  3.9965655E-04
  -7.00000  4.0722145E-04  4.7630761E-04  4.3011247E-04
  -6.00000  4.3918755E-04  5.1805516E-04  4.6513387E-04
  -5.00000  4.7604022E-04  5.6720492E-04  5.0580712E-04
  -4.00000  5.1897365E-04  6.2586003E-04  5.5359418E-04
  -3.00000  5.6961495E-04  6.9699630E-04  6.1051355E-04
  -2.00000  6.3025015E-04  7.8497085E-04  6.7944008E-04
  -1.00000  7.0421869E-04  8.9644290E-04  7.6463056E-04
   0.00000  7.9665725E-04  1.0421744E-03  8.7271339E-04
   1.00000  9.1605701E-04  1.2409397E-03  1.0147429E-03
   2.00000  1.0780523E-03  1.5293834E-03  1.2111075E-03
   3.00000  1.3170063E-03  1.9932338E-03  1.5061253E-03
   4.00000  1.7370327E-03  2.9095732E-03  2.0304588E-03
   5.00000  2.7797153E-03  5.4915742E-03  3.3096839E-03
   5.20000  3.1057971E-03  6.2995698E-03  3.6928117E-03
   5.40000  3.4424785E-03  7.1042480E-03  4.0796884E-03
   5.60000  3.7817720E-03  7.8827794E-03  4.4682663E-03
   5.80000  4.1256641E-03  8.6462711E-03  4.8724859E-03
   6.00000  4.4790006E-03  9.4159533E-03  5.3107963E-03
   6.20000  4.8461648E-03  1.0212219E-02  5.8015228E-03
   6.40000  5.2304627E-03  1.1052655E-02  6.3625502E-03
   6.60000  5.6343155E-03  1.1952638E-02  7.0119650E-03
   6.80000  6.0596210E-03  1.2926160E-02  7.7683064E-03
   7.00000  6.5081629E-03  1.3986479E-02  8.6499140E-03
   7.20000  6.9820074E-03  1.5146588E-02  9.6729854E-03
   7.40000  7.4838408E-03  1.6419566E-02  1.0847982E-02
   7.60000  8.0172342E-03  1.7818877E-02  1.2174406E-02
   7.80000  8.5868538E-03  1.9358672E-02  1.3635106E-02
   8.00000  9.1986861E-03  2.1054296E-02  1.5192971E-02
   8.20000  9.8602700E-03  2.2922736E-02  1.6793851E-02
   8.40000  1.0580816E-02  2.4982345E-02  1.8377869E-02
   8.60000  1.1371166E-02  2.7251520E-02  1.9896532E-02
   8.80000  1.2243558E-02  2.9746335E-02  2.1327610E-02
   9.00000  1.3211088E-02  3.2477000E-02  2.2679171E-02
   9.20000  1.4286776E-02  3.5443056E-02  2.3980293E-02
   9.40000  1.5482165E-02  3.8627246E-02  2.5263601E-02
   9.60000  1.6805428E-02  4.1988046E-02  2.6548026E-02
   9.80000  1.8258966E-02  4.5451116E-02  2.7828583E-02
   10.0000  1.9836540E-02  4.8901132E-02  2.9075905E-02
   10.2500  2.1954413E-02  5.2946735E-02  3.0518769E-02
   10.5000  2.4172223E-02  5.6324321E-02  3.1750699E-02
   10.7500  2.6393381E-02  5.8620082E-02  3.2721862E-02
   11.0000  2.8499818E-02  5.9517133E-02  3.3434751E-02
   11.2500  3.0371033E-02  5.8910708E-02  3.3928631E-02
   11.5000  3.1910436E-02  5.6952818E-02  3.4256363E-02
   11.7500  3.3072579E-02  5.3992712E-02  3.4468612E-02
   12.0000  3.3876335E-02  5.0453394E-02  3.4607116E-02
   12.2500  3.4394817E-02  4.6716269E-02  3.4703711E-02
   12.5000  3.4729742E-02  4.3059771E-02  3.4781215E-02
   12.7500  3.4984149E-02  3.9653363E-02  3.4854868E-02
   13.0000  3.5242946E-02  3.6580936E-02  3.4935339E-02
   13.2500  3.5565387E-02  3.3869278E-02  3.5031808E-02
   13.5000  3.5986375E-02  3.1511220E-02  3.5152803E-02
   13.7500  3.6521155E-02  2.9481789E-02  3.5305520E-02
   14.0000  3.7170317E-02  2.7748378E-02  3.5495066E-02
   14.2500  3.7924073E-02  2.6276616E-02  3.5723958E-02
   14.5000  3.8765482E-02  2.5033496E-02  3.5992026E-02
   14.7500  3.9672605E-02  2.3988972E-02  3.6296880E-02
   15.0000  4.0619867E-02  2.3116635E-02  3.6634521E-02
   15.2500  4.1579046E-02  2.2393738E-02  3.6999492E-02
   15.5000  4.2520191E-02  2.1800848E-02  3.7384674E-02
   15.7500  4.3412619E-02  2.1321411E-02  3.7781116E-02
   16.0000  4.4226073E-02  2.0941321E-02  3.8178076E-02
   16.2500  4.4932101E-02  2.0648539E-02  3.8563261E-02
   16.5000  4.5505591E-02  2.0432774E-02  3.8923282E-02
   16.7500  4.5926364E-02  2.0285210E-02  3.9244333E-02
   17.0000  4.6180608E-02  2.0198292E-02  3.9513047E-02
   17.2500  4.6261973E-02  2.0165550E-02  3.9717489E-02
   17.5000  4.6172103E-02  2.0181462E-02  3.9848144E-02
   17.7500  4.5920491E-02  2.0241334E-02  3.9898761E-02
   18.0000  4.5523623E-02  2.0341199E-02  3.9866902E-02
   18.2500  4.5003510E-02  2.0477719E-02  3.9754106E-02
   18.5000  4.4385803E-02  2.0648100E-02  3.9565635E-02
   18.7500  4.3697742E-02  2.0850017E-02  3.9309842E-02
   19.0000  4.2966170E-02  2.1081556E-02  3.8997264E-02
   19.2500  4.2215804E-02  2.1341185E-02  3.8639565E-02
   19.5000  4.1467884E-02  2.1627749E-02  3.8248471E-02
   19.7500  4.0739347E-02  2.1940432E-02  3.7834894E-02
   20.0000  4.0042768E-02  2.2278596E-02  3.7408493E-02
   21.0000  3.7721122E-02  2.3866929E-02  3.5731429E-02
   22.0000  3.6207356E-02  2.5785991E-02  3.4308434E-02
   23.0000  3.5215653E-02  2.7964779E-02  3.3142260E-02
   24.0000  3.4315617E-02  3.0243123E-02  3.2102408E-02
   25.0000  3.3212919E-02  3.2340097E-02  3.1086425E-02
   26.0000  3.1896763E-02  3.3936055E-02  3.0072474E-02
   27.0000  3.0537289E-02  3.4834668E-02  2.9096230E-02
   28.0000  2.9253527E-02  3.5065396E-02  2.8194989E-02
   29.0000  2.8075786E-02  3.4793949E-02  2.7402201E-02
   30.0000  2.7009649E-02  3.4205894E-02  2.6745800E-02
   31.0000  2.6066559E-02  3.3449534E-02  2.6234712E-02
   32.0000  2.5253959E-02  3.2621650E-02  2.5852146E-02
   33.0000  2.4562427E-02  3.1774119E-02  2.5560771E-02
   34.0000  2.3967295E-02  3.0926872E-02  2.5313359E-02
   35.0000  2.3437744E-02  3.0081027E-02  2.5062465E-02
   36.0000  2.2945591E-02  2.9230581E-02  2.4768180E-02
   37.0000  2.2472679E-02  2.8373881E-02  2.4406090E-02
   38.0000  2.2017203E-02  2.7526476E-02  2.3977370E-02
   39.0000  2.1598234E-02  2.6735544E-02  2.3520584E-02
   40.0000  2.1252994E-02  2.6083854E-02  2.3113748E-02
