    Energy   (100,001)      (010,001)      (001,110)   
  -25.0000  1.8267813E-04  1.8857492E-04  1.9052096E-04
  -24.0000  1.8876689E-04  1.9565734E-04  1.9682968E-04
  -23.0000  1.9524679E-04  2.0324831E-04  2.0354369E-04
  -22.0000  2.0215643E-04  2.1140333E-04  2.1070311E-04
  -21.0000  2.0953964E-04  2.2018620E-04  2.1835357E-04
  -20.0000  2.1744646E-04  2.2967053E-04  2.2654717E-04
  -19.0000  2.2593427E-04  2.3994180E-04  2.3534369E-04
  -18.0000  2.3506914E-04  2.5109972E-04  2.4481207E-04
  -17.0000  2.4492764E-04  2.6326135E-04  2.5503223E-04
  -16.0000  2.5559898E-04  2.7656499E-04  2.6609743E-04
  -15.0000  2.6718778E-04  2.9117517E-04  2.7811714E-04
  -14.0000  2.7981758E-04  3.0728913E-04  2.9122087E-04
  -13.0000  2.9363542E-04  3.2514525E-04  3.0556297E-04
  -12.0000  3.0881774E-04  3.4503428E-04  3.2132908E-04
  -11.0000  3.2557829E-04  3.6731441E-04  3.3874463E-04
  -10.0000  3.4417878E-04  3.9243175E-04  3.5808642E-04
  -9.00000  3.6494340E-04  4.2094889E-04  3.7969860E-04
  -8.00000  3.8827920E-04  4.5358512E-04  4.0401522E-04
  -7.00000  4.1470516E-04  4.9127458E-04  4.3159283E-04
  -6.00000  4.4489483E-04  5.3525233E-04  4.6315903E-04
  -5.00000  4.7974082E-04  5.8718541E-04  4.9968720E-04
  -4.00000  5.2045570E-04  6.4937913E-04  5.4251624E-04
  -3.00000  5.6873690E-04  7.2511509E-04  5.9355195E-04
  -2.00000  6.2705044E-04  8.1923263E-04  6.5562640E-04
  -1.00000  6.9915191E-04  9.3919196E-04  7.3318863E-04
   0.00000  7.9112599E-04  1.0971785E-03  8.3376401E-04
   1.00000  9.1370439E-04  1.3147380E-03  9.7144745E-04
   2.00000  1.0883010E-03  1.6346672E-03  1.1768233E-03
   3.00000  1.3667990E-03  2.1594407E-03  1.5330153E-03
   4.00000  1.9245322E-03  3.2302922E-03  2.3651773E-03
   5.00000  3.5568675E-03  6.3723546E-03  5.2831595E-03
   5.20000  4.0745730E-03  7.3531226E-03  6.1597083E-03
   5.40000  4.5899988E-03  8.3110299E-03  6.9042331E-03
   5.60000  5.0857881E-03  9.2107022E-03  7.4439228E-03
   5.80000  5.5645676E-03  1.0061773E-02  7.7744568E-03
   6.00000  6.0344860E-03  1.0889595E-02  7.9266176E-03
   6.20000  6.5035251E-03  1.1722190E-02  7.9463487E-03
   6.40000  6.9788833E-03  1.2587402E-02  7.8851957E-03
   6.60000  7.4670674E-03  1.3511827E-02  7.7940482E-03
   6.80000  7.9736762E-03  1.4519710E-02  7.7180607E-03
   7.00000  8.5030523E-03  1.5632752E-02  7.6928725E-03
   7.20000  9.0580695E-03  1.6871162E-02  7.7429556E-03
   7.40000  9.6401650E-03  1.8255036E-02  7.8822870E-03
   7.60000  1.0249518E-02  1.9805113E-02  8.1164512E-03
   7.80000  1.0885197E-02  2.1542777E-02  8.4449786E-03
   8.00000  1.1545176E-02  2.3489443E-02  8.8631932E-03
   8.20000  1.2226192E-02  2.5665360E-02  9.3634219E-03
   8.40000  1.2923476E-02  2.8087795E-02  9.9357349E-03
   8.60000  1.3630430E-02  3.0768075E-02  1.0568432E-02
   8.80000  1.4338419E-02  3.3706982E-02  1.1248511E-02
   9.00000  1.5036960E-02  3.6888477E-02  1.1962359E-02
   9.20000  1.5714526E-02  4.0272121E-02  1.2696841E-02
   9.40000  1.6359915E-02  4.3785095E-02  1.3440624E-02
   9.60000  1.6964113E-02  4.7315842E-02  1.4185310E-02
   9.80000  1.7522542E-02  5.0712747E-02  1.4926034E-02
   10.0000  1.8036848E-02  5.3791438E-02  1.5661474E-02
   10.2500  1.8630122E-02  5.6890352E-02  1.6575903E-02
   10.5000  1.9189811E-02  5.8839648E-02  1.7491440E-02
   10.7500  1.9736500E-02  5.9444751E-02  1.8417333E-02
   11.0000  2.0282399E-02  5.8721413E-02  1.9365828E-02
   11.2500  2.0832408E-02  5.6876230E-02  2.0352941E-02
   11.5000  2.1385750E-02  5.4228209E-02  2.1394419E-02
   11.7500  2.1937260E-02  5.1115347E-02  2.2498850E-02
   12.0000  2.2479958E-02  4.7825965E-02  2.3663898E-02
   12.2500  2.3008200E-02  4.4569169E-02  2.4876045E-02
   12.5000  2.3519776E-02  4.1475623E-02  2.6112052E-02
   12.7500  2.4015012E-02  3.8614326E-02  2.7341819E-02
   13.0000  2.4494319E-02  3.6013762E-02  2.8532777E-02
   13.2500  2.4957978E-02  3.3679101E-02  2.9655060E-02
   13.5000  2.5407896E-02  3.1602641E-02  3.0686158E-02
   13.7500  2.5849075E-02  2.9769671E-02  3.1613977E-02
   14.0000  2.6289398E-02  2.8162097E-02  3.2437555E-02
   14.2500  2.6737394E-02  2.6760692E-02  3.3165175E-02
   14.5000  2.7199688E-02  2.5546412E-02  3.3811113E-02
   14.7500  2.7680082E-02  2.4501236E-02  3.4392567E-02
   15.0000  2.8179863E-02  2.3608656E-02  3.4927045E-02
   15.2500  2.8698159E-02  2.2853842E-02  3.5430027E-02
   15.5000  2.9232069E-02  2.2223566E-02  3.5913053E-02
   15.7500  2.9776727E-02  2.1706033E-02  3.6382474E-02
   16.0000  3.0325467E-02  2.1290684E-02  3.6838957E-02
   16.2500  3.0870209E-02  2.0968035E-02  3.7277777E-02
   16.5000  3.1402056E-02  2.0729555E-02  3.7689800E-02
   16.7500  3.1912112E-02  2.0567578E-02  3.8063069E-02
   17.0000  3.2392401E-02  2.0475242E-02  3.8384772E-02
   17.2500  3.2836785E-02  2.0446431E-02  3.8643294E-02
   17.5000  3.3241693E-02  2.0475720E-02  3.8830008E-02
   17.7500  3.3606532E-02  2.0558313E-02  3.8940492E-02
   18.0000  3.3933712E-02  2.0689960E-02  3.8974973E-02
   18.2500  3.4228279E-02  2.0866885E-02  3.8938011E-02
   18.5000  3.4497273E-02  2.1085700E-02  3.8837586E-02
   18.7500  3.4748926E-02  2.1343337E-02  3.8683863E-02
   19.0000  3.4991850E-02  2.1637006E-02  3.8487907E-02
   19.2500  3.5234332E-02  2.1964186E-02  3.8260563E-02
   19.5000  3.5483763E-02  2.2322638E-02  3.8011616E-02
   19.7500  3.5746217E-02  2.2710372E-02  3.7749307E-02
   20.0000  3.6026109E-02  2.3125439E-02  3.7480277E-02
   21.0000  3.7344117E-02  2.5004868E-02  3.6433079E-02
   22.0000  3.8874628E-02  2.7093371E-02  3.5554080E-02
   23.0000  4.0276329E-02  2.9211532E-02  3.4848280E-02
   24.0000  4.1094436E-02  3.1160579E-02  3.4226952E-02
   25.0000  4.0949244E-02  3.2729100E-02  3.3584793E-02
   26.0000  3.9719426E-02  3.3749020E-02  3.2852137E-02
   27.0000  3.7626121E-02  3.4165282E-02  3.2034618E-02
   28.0000  3.5131474E-02  3.4055062E-02  3.1219842E-02
   29.0000  3.2713944E-02  3.3578391E-02  3.0529764E-02
   30.0000  3.0690013E-02  3.2902768E-02  3.0050517E-02
   31.0000  2.9177041E-02  3.2151293E-02  2.9798307E-02
   32.0000  2.8156084E-02  3.1389980E-02  2.9735044E-02
   33.0000  2.7548178E-02  3.0640757E-02  2.9801371E-02
   34.0000  2.7259355E-02  2.9907088E-02  2.9939649E-02
   35.0000  2.7199870E-02  2.9190528E-02  3.0102201E-02
   36.0000  2.7294645E-02  2.8483675E-02  3.0250843E-02
   37.0000  2.7482177E-02  2.7782665E-02  3.0357387E-02
   38.0000  2.7709260E-02  2.7101166E-02  3.0406342E-02
   39.0000  2.7928077E-02  2.6476268E-02  3.0400777E-02
   40.0000  2.8100042E-02  2.5967450E-02  3.0367582E-02
