    Energy   (100,001)      (010,001)      (001,110)   
  -25.0000  1.7031190E-04  1.8560823E-04  1.6959421E-04
  -24.0000  1.7667917E-04  1.9255560E-04  1.7619645E-04
  -23.0000  1.8349003E-04  2.0000043E-04  1.8327297E-04
  -22.0000  1.9079080E-04  2.0799688E-04  1.9087456E-04
  -21.0000  1.9863431E-04  2.1660716E-04  1.9905935E-04
  -20.0000  2.0708113E-04  2.2590305E-04  2.0789420E-04
  -19.0000  2.1620103E-04  2.3596784E-04  2.1745633E-04
  -18.0000  2.2607473E-04  2.4689864E-04  2.2783547E-04
  -17.0000  2.3679618E-04  2.5880942E-04  2.3913636E-04
  -16.0000  2.4847533E-04  2.7183471E-04  2.5148207E-04
  -15.0000  2.6124165E-04  2.8613447E-04  2.6501813E-04
  -14.0000  2.7524863E-04  3.0190027E-04  2.7991784E-04
  -13.0000  2.9067962E-04  3.1936345E-04  2.9638914E-04
  -12.0000  3.0775538E-04  3.3880587E-04  3.1468370E-04
  -11.0000  3.2674411E-04  3.6057429E-04  3.3510890E-04
  -10.0000  3.4797490E-04  3.8509995E-04  3.5804409E-04
  -9.00000  3.7185598E-04  4.1292571E-04  3.8396284E-04
  -8.00000  3.9890011E-04  4.4474408E-04  4.1346400E-04
  -7.00000  4.2976043E-04  4.8145204E-04  4.4731603E-04
  -6.00000  4.6528240E-04  5.2423159E-04  4.8652162E-04
  -5.00000  5.0658098E-04  5.7467152E-04  5.3241470E-04
  -4.00000  5.5515922E-04  6.3495733E-04  5.8681051E-04
  -3.00000  6.1309734E-04  7.0817891E-04  6.5224715E-04
  -2.00000  6.8336883E-04  7.9885200E-04  7.3239225E-04
  -1.00000  7.7040103E-04  9.1385425E-04  8.3276870E-04
   0.00000  8.8114918E-04  1.0642343E-03  9.6214873E-04
   1.00000  1.0273821E-03  1.2690766E-03  1.1355112E-03
   2.00000  1.2313391E-03  1.5650383E-03  1.3812566E-03
   3.00000  1.5433686E-03  2.0357540E-03  1.7629635E-03
   4.00000  2.1215671E-03  2.9421565E-03  2.4717629E-03
   5.00000  3.6425872E-03  5.3921049E-03  4.3148695E-03
   5.20000  4.1059933E-03  6.1526014E-03  4.9262601E-03
   5.40000  4.5649080E-03  6.9169140E-03  5.5887305E-03
   5.60000  5.0093109E-03  7.6685821E-03  6.2881247E-03
   5.80000  5.4498812E-03  8.4219961E-03  7.0194447E-03
   6.00000  5.9034646E-03  9.2005856E-03  7.7784470E-03
   6.20000  6.3860316E-03  1.0027204E-02  8.5602240E-03
   6.40000  6.9106508E-03  1.0923014E-02  9.3629301E-03
   6.60000  7.4869658E-03  1.1908830E-02  1.0192488E-02
   6.80000  8.1213906E-03  1.3006503E-02  1.1065719E-02
   7.00000  8.8181110E-03  1.4239732E-02  1.2010683E-02
   7.20000  9.5805187E-03  1.5634174E-02  1.3063766E-02
   7.40000  1.0412283E-02  1.7216800E-02  1.4263693E-02
   7.60000  1.1317586E-02  1.9014392E-02  1.5643196E-02
   7.80000  1.2300682E-02  2.1051203E-02  1.7219423E-02
   8.00000  1.3365213E-02  2.3346380E-02  1.8984719E-02
   8.20000  1.4513773E-02  2.5912540E-02  2.0900377E-02
   8.40000  1.5748096E-02  2.8756792E-02  2.2896759E-02
   8.60000  1.7069909E-02  3.1883330E-02  2.4882273E-02
   8.80000  1.8481814E-02  3.5293306E-02  2.6760539E-02
   9.00000  1.9987258E-02  3.8976898E-02  2.8451681E-02
   9.20000  2.1589216E-02  4.2896949E-02  2.9911920E-02
   9.40000  2.3287720E-02  4.6969210E-02  3.1145016E-02
   9.60000  2.5076782E-02  5.1047002E-02  3.2200152E-02
   9.80000  2.6941510E-02  5.4918277E-02  3.3155185E-02
   10.0000  2.8855279E-02  5.8320305E-02  3.4090938E-02
   10.2500  3.1251972E-02  6.1488549E-02  3.5320619E-02
   10.5000  3.3546127E-02  6.3030568E-02  3.6646898E-02
   10.7500  3.5603075E-02  6.2737188E-02  3.8020692E-02
   11.0000  3.7296535E-02  6.0731385E-02  3.9339442E-02
   11.2500  3.8542677E-02  5.7413708E-02  4.0489804E-02
   11.5000  3.9322620E-02  5.3311335E-02  4.1375454E-02
   11.7500  3.9681914E-02  4.8922864E-02  4.1930163E-02
   12.0000  3.9711201E-02  4.4626224E-02  4.2131304E-02
   12.2500  3.9520886E-02  4.0656607E-02  4.2003630E-02
   12.5000  3.9219650E-02  3.7127389E-02  4.1608401E-02
   12.7500  3.8899546E-02  3.4066711E-02  4.1028349E-02
   13.0000  3.8627734E-02  3.1453119E-02  4.0351879E-02
   13.2500  3.8444694E-02  2.9242565E-02  3.9658037E-02
   13.5000  3.8367929E-02  2.7384585E-02  3.9008065E-02
   13.7500  3.8398034E-02  2.5830116E-02  3.8444839E-02
   14.0000  3.8524164E-02  2.4534764E-02  3.7995869E-02
   14.2500  3.8727953E-02  2.3459904E-02  3.7676392E-02
   14.5000  3.8986156E-02  2.2572707E-02  3.7491643E-02
   14.7500  3.9272441E-02  2.1845664E-02  3.7438389E-02
   15.0000  3.9558778E-02  2.1255898E-02  3.7505995E-02
   15.2500  3.9816750E-02  2.0784465E-02  3.7677281E-02
   15.5000  4.0019039E-02  2.0415699E-02  3.7929414E-02
   15.7500  4.0141162E-02  2.0136657E-02  3.8235091E-02
   16.0000  4.0163369E-02  1.9936640E-02  3.8564143E-02
   16.2500  4.0072471E-02  1.9806790E-02  3.8885586E-02
   16.5000  3.9863257E-02  1.9739744E-02  3.9169972E-02
   16.7500  3.9539172E-02  1.9729338E-02  3.9391738E-02
   17.0000  3.9112027E-02  1.9770352E-02  3.9531194E-02
   17.2500  3.8600714E-02  1.9858294E-02  3.9575819E-02
   17.5000  3.8029106E-02  1.9989230E-02  3.9520677E-02
   17.7500  3.7423521E-02  2.0159652E-02  3.9367948E-02
   18.0000  3.6810173E-02  2.0366392E-02  3.9125732E-02
   18.2500  3.6212998E-02  2.0606565E-02  3.8806408E-02
   18.5000  3.5652095E-02  2.0877545E-02  3.8424846E-02
   18.7500  3.5142872E-02  2.1176958E-02  3.7996737E-02
   19.0000  3.4695826E-02  2.1502703E-02  3.7537202E-02
   19.2500  3.4316814E-02  2.1852982E-02  3.7059748E-02
   19.5000  3.4007629E-02  2.2226347E-02  3.6575588E-02
   19.7500  3.3766702E-02  2.2621675E-02  3.6093332E-02
   20.0000  3.3589801E-02  2.3037973E-02  3.5619131E-02
   21.0000  3.3382062E-02  2.4880764E-02  3.3873012E-02
   22.0000  3.3597030E-02  2.6916257E-02  3.2409849E-02
   23.0000  3.3774643E-02  2.9011513E-02  3.1149295E-02
   24.0000  3.3559280E-02  3.0983134E-02  2.9997831E-02
   25.0000  3.2767161E-02  3.2594916E-02  2.8924010E-02
   26.0000  3.1460743E-02  3.3635604E-02  2.7953019E-02
   27.0000  2.9890372E-02  3.4055798E-02  2.7119416E-02
   28.0000  2.8348289E-02  3.3951310E-02  2.6452979E-02
   29.0000  2.7033738E-02  3.3478993E-02  2.5965860E-02
   30.0000  2.6011783E-02  3.2789427E-02  2.5635131E-02
   31.0000  2.5252251E-02  3.1994216E-02  2.5402349E-02
   32.0000  2.4685794E-02  3.1163064E-02  2.5192180E-02
   33.0000  2.4241530E-02  3.0334794E-02  2.4933874E-02
   34.0000  2.3863535E-02  2.9530504E-02  2.4573625E-02
   35.0000  2.3514324E-02  2.8762540E-02  2.4079869E-02
   36.0000  2.3172148E-02  2.8037503E-02  2.3448283E-02
   37.0000  2.2827016E-02  2.7356398E-02  2.2708373E-02
   38.0000  2.2479816E-02  2.6719161E-02  2.1926525E-02
   39.0000  2.2147347E-02  2.6140441E-02  2.1197144E-02
   40.0000  2.1865534E-02  2.5665308E-02  2.0613553E-02
