    Energy   (100,001)      (010,001)      (001,110)   
  -25.0000  1.6926947E-04  1.8460341E-04  1.8407415E-04
  -24.0000  1.7537489E-04  1.9155794E-04  1.9060193E-04
  -23.0000  1.8189033E-04  1.9901139E-04  1.9757073E-04
  -22.0000  1.8885707E-04  2.0701809E-04  2.0502583E-04
  -21.0000  1.9632207E-04  2.1564043E-04  2.1301885E-04
  -20.0000  2.0433892E-04  2.2495043E-04  2.2160892E-04
  -19.0000  2.1296908E-04  2.3503162E-04  2.3086410E-04
  -18.0000  2.2228333E-04  2.4598142E-04  2.4086311E-04
  -17.0000  2.3236369E-04  2.5791414E-04  2.5169753E-04
  -16.0000  2.4330561E-04  2.7096475E-04  2.6347448E-04
  -15.0000  2.5522096E-04  2.8529370E-04  2.7632015E-04
  -14.0000  2.6824165E-04  3.0109321E-04  2.9038418E-04
  -13.0000  2.8252433E-04  3.1859544E-04  3.0584544E-04
  -12.0000  2.9825656E-04  3.3808327E-04  3.2291954E-04
  -11.0000  3.1566483E-04  3.5990486E-04  3.4186888E-04
  -10.0000  3.3502532E-04  3.8449338E-04  3.6301618E-04
  -9.00000  3.5667849E-04  4.1239437E-04  3.8676308E-04
  -8.00000  3.8104925E-04  4.4430431E-04  4.1361622E-04
  -7.00000  4.0867541E-04  4.8112621E-04  4.4422465E-04
  -6.00000  4.4024878E-04  5.2405152E-04  4.7943479E-04
  -5.00000  4.7667640E-04  5.7468455E-04  5.2037382E-04
  -4.00000  5.1917461E-04  6.3523724E-04  5.6858072E-04
  -3.00000  5.6941994E-04  7.0884657E-04  6.2622119E-04
  -2.00000  6.2980327E-04  8.0011642E-04  6.9645934E-04
  -1.00000  7.0388643E-04  9.1609901E-04  7.8414393E-04
   0.00000  7.9729273E-04  1.0682130E-03  8.9718703E-04
   1.00000  9.1964937E-04  1.2763974E-03  1.0496616E-03
   2.00000  1.0895451E-03  1.5795234E-03  1.2699323E-03
   3.00000  1.3505290E-03  2.0680060E-03  1.6275128E-03
   4.00000  1.8455255E-03  3.0299600E-03  2.3598823E-03
   5.00000  3.2171003E-03  5.7123245E-03  4.5396408E-03
   5.20000  3.6506294E-03  6.5614777E-03  5.2252300E-03
   5.40000  4.0837020E-03  7.4256589E-03  5.9104153E-03
   5.60000  4.4989890E-03  8.2882306E-03  6.5905696E-03
   5.80000  4.8966087E-03  9.1641922E-03  7.2906806E-03
   6.00000  5.2833713E-03  1.0074795E-02  8.0341812E-03
   6.20000  5.6667759E-03  1.1034923E-02  8.8250422E-03
   6.40000  6.0528801E-03  1.2049887E-02  9.6395854E-03
   6.60000  6.4456687E-03  1.3117052E-02  1.0426202E-02
   6.80000  6.8471766E-03  1.4232239E-02  1.1118454E-02
   7.00000  7.2582811E-03  1.5400023E-02  1.1663147E-02
   7.20000  7.6801340E-03  1.6642185E-02  1.2049249E-02
   7.40000  8.1158967E-03  1.7997304E-02  1.2315315E-02
   7.60000  8.5720347E-03  1.9511265E-02  1.2529956E-02
   7.80000  9.0584636E-03  2.1225954E-02  1.2763207E-02
   8.00000  9.5874600E-03  2.3172718E-02  1.3067653E-02
   8.20000  1.0171815E-02  2.5370788E-02  1.3473139E-02
   8.40000  1.0822887E-02  2.7826933E-02  1.3989314E-02
   8.60000  1.1549215E-02  3.0533815E-02  1.4610595E-02
   8.80000  1.2355984E-02  3.3466711E-02  1.5321345E-02
   9.00000  1.3245208E-02  3.6579545E-02  1.6100833E-02
   9.20000  1.4216311E-02  3.9802033E-02  1.6927804E-02
   9.40000  1.5266791E-02  4.3040039E-02  1.7784263E-02
   9.60000  1.6392572E-02  4.6180721E-02  1.8658045E-02
   9.80000  1.7587707E-02  4.9102305E-02  1.9544109E-02
   10.0000  1.8843700E-02  5.1685367E-02  2.0444568E-02
   10.2500  2.0481462E-02  5.4273899E-02  2.1602507E-02
   10.5000  2.2165850E-02  5.5991283E-02  2.2815695E-02
   10.7500  2.3855617E-02  5.6730042E-02  2.4103161E-02
   11.0000  2.5500501E-02  5.6470108E-02  2.5477753E-02
   11.2500  2.7050082E-02  5.5285077E-02  2.6943858E-02
   11.5000  2.8462171E-02  5.3330438E-02  2.8495401E-02
   11.7500  2.9707020E-02  5.0814676E-02  3.0113281E-02
   12.0000  3.0770529E-02  4.7960896E-02  3.1764333E-02
   12.2500  3.1654803E-02  4.4973030E-02  3.3403485E-02
   12.5000  3.2374806E-02  4.2014736E-02  3.4977768E-02
   12.7500  3.2953513E-02  3.9201309E-02  3.6430343E-02
   13.0000  3.3417580E-02  3.6602137E-02  3.7706040E-02
   13.2500  3.3793960E-02  3.4250324E-02  3.8761875E-02
   13.5000  3.4107562E-02  3.2154402E-02  3.9578093E-02
   13.7500  3.4380244E-02  3.0307618E-02  4.0161324E-02
   14.0000  3.4630695E-02  2.8694251E-02  4.0539877E-02
   14.2500  3.4874432E-02  2.7294075E-02  4.0755423E-02
   14.5000  3.5123697E-02  2.6085442E-02  4.0854395E-02
   14.7500  3.5387392E-02  2.5047176E-02  4.0881020E-02
   15.0000  3.5671122E-02  2.4159550E-02  4.0872601E-02
   15.2500  3.5977362E-02  2.3404714E-02  4.0856916E-02
   15.5000  3.6305732E-02  2.2766794E-02  4.0851338E-02
   15.7500  3.6653348E-02  2.2231851E-02  4.0863206E-02
   16.0000  3.7015220E-02  2.1787767E-02  4.0891029E-02
   16.2500  3.7384701E-02  2.1424116E-02  4.0926244E-02
   16.5000  3.7754016E-02  2.1132025E-02  4.0955311E-02
   16.7500  3.8114901E-02  2.0904029E-02  4.0962019E-02
   17.0000  3.8459352E-02  2.0733913E-02  4.0929841E-02
   17.2500  3.8780413E-02  2.0616542E-02  4.0844148E-02
   17.5000  3.9072939E-02  2.0547690E-02  4.0694061E-02
   17.7500  3.9334165E-02  2.0523861E-02  4.0473690E-02
   18.0000  3.9563998E-02  2.0542137E-02  4.0182634E-02
   18.2500  3.9764934E-02  2.0600044E-02  3.9825697E-02
   18.5000  3.9941634E-02  2.0695447E-02  3.9411957E-02
   18.7500  4.0100242E-02  2.0826482E-02  3.8953412E-02
   19.0000  4.0247575E-02  2.0991522E-02  3.8463473E-02
   19.2500  4.0390349E-02  2.1189173E-02  3.7955535E-02
   19.5000  4.0534524E-02  2.1418288E-02  3.7441787E-02
   19.7500  4.0684813E-02  2.1677941E-02  3.6932434E-02
   20.0000  4.0844318E-02  2.1967289E-02  3.6435478E-02
   21.0000  4.1575105E-02  2.3396649E-02  3.4678864E-02
   22.0000  4.2298733E-02  2.5194825E-02  3.3392960E-02
   23.0000  4.2610784E-02  2.7261242E-02  3.2498100E-02
   24.0000  4.2012983E-02  2.9437929E-02  3.1823102E-02
   25.0000  4.0196996E-02  3.1501182E-02  3.1211761E-02
   26.0000  3.7309794E-02  3.3206167E-02  3.0567160E-02
   27.0000  3.3952977E-02  3.4367091E-02  2.9876445E-02
   28.0000  3.0835282E-02  3.4924843E-02  2.9200134E-02
   29.0000  2.8340637E-02  3.4950405E-02  2.8605764E-02
   30.0000  2.6539695E-02  3.4578895E-02  2.8137150E-02
   31.0000  2.5340952E-02  3.3946167E-02  2.7809489E-02
   32.0000  2.4590108E-02  3.3154788E-02  2.7613084E-02
   33.0000  2.4132180E-02  3.2266378E-02  2.7521638E-02
   34.0000  2.3841321E-02  3.1312189E-02  2.7498589E-02
   35.0000  2.3627683E-02  3.0309312E-02  2.7499819E-02
   36.0000  2.3433473E-02  2.9273684E-02  2.7476057E-02
   37.0000  2.3226138E-02  2.8228402E-02  2.7379551E-02
   38.0000  2.2993967E-02  2.7211118E-02  2.7179813E-02
   39.0000  2.2747578E-02  2.6283973E-02  2.6890389E-02
   40.0000  2.2522501E-02  2.5534868E-02  2.6589553E-02
