    Energy   (100,001)      (010,001)      (001,110)   
  -25.0000  1.6888128E-04  1.7535114E-04  1.7035077E-04
  -24.0000  1.7519726E-04  1.8220929E-04  1.7678576E-04
  -23.0000  1.8195351E-04  1.8957211E-04  1.8367357E-04
  -22.0000  1.8919607E-04  1.9749563E-04  1.9106191E-04
  -21.0000  1.9697756E-04  2.0604431E-04  1.9900534E-04
  -20.0000  2.0535830E-04  2.1529274E-04  2.0756646E-04
  -19.0000  2.1440785E-04  2.2532762E-04  2.1681749E-04
  -18.0000  2.2420677E-04  2.3625034E-04  2.2684215E-04
  -17.0000  2.3484890E-04  2.4818018E-04  2.3773802E-04
  -16.0000  2.4644420E-04  2.6125838E-04  2.4961952E-04
  -15.0000  2.5912236E-04  2.7565336E-04  2.6262168E-04
  -14.0000  2.7303737E-04  2.9156757E-04  2.7690497E-04
  -13.0000  2.8837352E-04  3.0924637E-04  2.9266155E-04
  -12.0000  3.0535323E-04  3.2898992E-04  3.1012350E-04
  -11.0000  3.2424739E-04  3.5116918E-04  3.2957368E-04
  -10.0000  3.4538943E-04  3.7624786E-04  3.5136049E-04
  -9.00000  3.6919445E-04  4.0481297E-04  3.7591802E-04
  -8.00000  3.9618608E-04  4.3761820E-04  4.0379424E-04
  -7.00000  4.2703471E-04  4.7564701E-04  4.3569133E-04
  -6.00000  4.6261340E-04  5.2020643E-04  4.7252467E-04
  -5.00000  5.0408209E-04  5.7307088E-04  5.1551180E-04
  -4.00000  5.5301859E-04  6.3671022E-04  5.6631135E-04
  -3.00000  6.1163103E-04  7.1466614E-04  6.2724892E-04
  -2.00000  6.8311998E-04  8.1220509E-04  7.0170418E-04
  -1.00000  7.7233597E-04  9.3752290E-04  7.9481769E-04
   0.00000  8.8707537E-04  1.1041516E-03  9.1489515E-04
   1.00000  1.0409338E-03  1.3363140E-03  1.0765302E-03
   2.00000  1.2606579E-03  1.6828011E-03  1.3087497E-03
   3.00000  1.6101375E-03  2.2622870E-03  1.6819875E-03
   4.00000  2.3037672E-03  3.4767969E-03  2.4376399E-03
   5.00000  4.3081488E-03  7.1249596E-03  4.6610765E-03
   5.20000  4.9272815E-03  8.2458575E-03  5.3292955E-03
   5.40000  5.5247085E-03  9.3226505E-03  5.9629565E-03
   5.60000  6.0759388E-03  1.0324494E-02  6.5492418E-03
   5.80000  6.5864876E-03  1.1276123E-02  7.1065358E-03
   6.00000  7.0723965E-03  1.2216247E-02  7.6546202E-03
   6.20000  7.5509179E-03  1.3180814E-02  8.2054561E-03
   6.40000  8.0382473E-03  1.4201059E-02  8.7660531E-03
   6.60000  8.5492675E-03  1.5304296E-02  9.3432530E-03
   6.80000  9.0978124E-03  1.6514445E-02  9.9462048E-03
   7.00000  9.6972515E-03  1.7852802E-02  1.0586132E-02
   7.20000  1.0361177E-02  1.9339667E-02  1.1274653E-02
   7.40000  1.1103923E-02  2.0996397E-02  1.2021802E-02
   7.60000  1.1940806E-02  2.2846850E-02  1.2834281E-02
   7.80000  1.2887999E-02  2.4917422E-02  1.3714353E-02
   8.00000  1.3961907E-02  2.7235236E-02  1.4659865E-02
   8.20000  1.5177721E-02  2.9824138E-02  1.5665830E-02
   8.40000  1.6546855E-02  3.2698112E-02  1.6727434E-02
   8.60000  1.8073123E-02  3.5851805E-02  1.7843556E-02
   8.80000  1.9748125E-02  3.9248444E-02  1.9019056E-02
   9.00000  2.1546903E-02  4.2807010E-02  2.0263928E-02
   9.20000  2.3425438E-02  4.6392884E-02  2.1588512E-02
   9.40000  2.5321606E-02  4.9817805E-02  2.2996554E-02
   9.60000  2.7160130E-02  5.2854441E-02  2.4479497E-02
   9.80000  2.8860949E-02  5.5268902E-02  2.6013814E-02
   10.0000  3.0350537E-02  5.6867183E-02  2.7562589E-02
   10.2500  3.1835147E-02  5.7559856E-02  2.9452825E-02
   10.5000  3.2865707E-02  5.6831653E-02  3.1222565E-02
   10.7500  3.3479146E-02  5.4925533E-02  3.2826116E-02
   11.0000  3.3769269E-02  5.2205005E-02  3.4249741E-02
   11.2500  3.3854245E-02  4.9040759E-02  3.5498599E-02
   11.5000  3.3850477E-02  4.5736329E-02  3.6583317E-02
   11.7500  3.3852975E-02  4.2504199E-02  3.7513938E-02
   12.0000  3.3923203E-02  3.9475381E-02  3.8297874E-02
   12.2500  3.4089306E-02  3.6718125E-02  3.8940738E-02
   12.5000  3.4354208E-02  3.4256128E-02  3.9449928E-02
   12.7500  3.4704719E-02  3.2085327E-02  3.9838702E-02
   13.0000  3.5118955E-02  3.0187325E-02  4.0128014E-02
   13.2500  3.5571539E-02  2.8537681E-02  4.0344775E-02
   13.5000  3.6036775E-02  2.7110298E-02  4.0517969E-02
   13.7500  3.6490330E-02  2.5879815E-02  4.0674633E-02
   14.0000  3.6910042E-02  2.4822900E-02  4.0836753E-02
   14.2500  3.7276307E-02  2.3918843E-02  4.1019315E-02
   14.5000  3.7572371E-02  2.3149707E-02  4.1229399E-02
   14.7500  3.7784691E-02  2.2500216E-02  4.1466121E-02
   15.0000  3.7903399E-02  2.1957514E-02  4.1721229E-02
   15.2500  3.7922801E-02  2.1510867E-02  4.1980227E-02
   15.5000  3.7841766E-02  2.1151358E-02  4.2223948E-02
   15.7500  3.7663878E-02  2.0871589E-02  4.2430517E-02
   16.0000  3.7397264E-02  2.0665416E-02  4.2577571E-02
   16.2500  3.7054103E-02  2.0527704E-02  4.2644566E-02
   16.5000  3.6649837E-02  2.0454102E-02  4.2614903E-02
   16.7500  3.6202178E-02  2.0440846E-02  4.2477607E-02
   17.0000  3.5729990E-02  2.0484572E-02  4.2228328E-02
   17.2500  3.5252171E-02  2.0582163E-02  4.1869542E-02
   17.5000  3.4786612E-02  2.0730623E-02  4.1409963E-02
   17.7500  3.4349360E-02  2.0926981E-02  4.0863317E-02
   18.0000  3.3954010E-02  2.1168238E-02  4.0246728E-02
   18.2500  3.3611384E-02  2.1451330E-02  3.9578977E-02
   18.5000  3.3329453E-02  2.1773127E-02  3.8878901E-02
   18.7500  3.3113471E-02  2.2130449E-02  3.8164080E-02
   19.0000  3.2966249E-02  2.2520118E-02  3.7449898E-02
   19.2500  3.2888516E-02  2.2939032E-02  3.6748949E-02
   19.5000  3.2879276E-02  2.3384257E-02  3.6070764E-02
   19.7500  3.2936090E-02  2.3853044E-02  3.5421837E-02
   20.0000  3.3055180E-02  2.4342624E-02  3.4806051E-02
   21.0000  3.4033423E-02  2.6433417E-02  3.2705240E-02
   22.0000  3.5434192E-02  2.8540518E-02  3.1161227E-02
   23.0000  3.6633853E-02  3.0437142E-02  3.0031067E-02
   24.0000  3.7012856E-02  3.1927486E-02  2.9159358E-02
   25.0000  3.6273806E-02  3.2878409E-02  2.8434476E-02
   26.0000  3.4603197E-02  3.3280662E-02  2.7786959E-02
   27.0000  3.2491022E-02  3.3211202E-02  2.7190797E-02
   28.0000  3.0402400E-02  3.2784493E-02  2.6651828E-02
   29.0000  2.8598863E-02  3.2119668E-02  2.6181878E-02
   30.0000  2.7152744E-02  3.1316491E-02  2.5780577E-02
   31.0000  2.6030364E-02  3.0444161E-02  2.5432040E-02
   32.0000  2.5158716E-02  2.9541654E-02  2.5109467E-02
   33.0000  2.4461442E-02  2.8625049E-02  2.4781274E-02
   34.0000  2.3875190E-02  2.7697116E-02  2.4417463E-02
   35.0000  2.3356216E-02  2.6755879E-02  2.3997002E-02
   36.0000  2.2882433E-02  2.5802270E-02  2.3516587E-02
   37.0000  2.2451169E-02  2.4847668E-02  2.2997289E-02
   38.0000  2.2071894E-02  2.3921742E-02  2.2482918E-02
   39.0000  2.1756735E-02  2.3080074E-02  2.2027362E-02
   40.0000  2.1514346E-02  2.2400767E-02  2.1674264E-02
