    Energy   (100,001)      (010,001)      (001,110)   
  -25.0000  1.6928795E-04  1.8033065E-04  1.7626349E-04
  -24.0000  1.7551814E-04  1.8724764E-04  1.8268291E-04
  -23.0000  1.8217560E-04  1.9466744E-04  1.8954215E-04
  -22.0000  1.8930430E-04  2.0264534E-04  1.9688658E-04
  -21.0000  1.9695435E-04  2.1124493E-04  2.0476788E-04
  -20.0000  2.0518311E-04  2.2053966E-04  2.1324522E-04
  -19.0000  2.1405654E-04  2.3061485E-04  2.2238667E-04
  -18.0000  2.2365086E-04  2.4157011E-04  2.3227086E-04
  -17.0000  2.3405459E-04  2.5352245E-04  2.4298915E-04
  -16.0000  2.4537119E-04  2.6661023E-04  2.5464826E-04
  -15.0000  2.5772226E-04  2.8099815E-04  2.6737361E-04
  -14.0000  2.7125171E-04  2.9688378E-04  2.8131362E-04
  -13.0000  2.8613115E-04  3.1450608E-04  2.9664512E-04
  -12.0000  3.0256682E-04  3.3415668E-04  3.1358050E-04
  -11.0000  3.2080880E-04  3.5619506E-04  3.3237708E-04
  -10.0000  3.4116338E-04  3.8106917E-04  3.5334957E-04
  -9.00000  3.6400981E-04  4.0934416E-04  3.7688700E-04
  -8.00000  3.8982356E-04  4.4174274E-04  4.0347598E-04
  -7.00000  4.1920913E-04  4.7920353E-04  4.3373348E-04
  -6.00000  4.5294764E-04  5.2296717E-04  4.6845372E-04
  -5.00000  4.9206738E-04  5.7470688E-04  5.0867730E-04
  -4.00000  5.3795229E-04  6.3673318E-04  5.5579615E-04
  -3.00000  5.9251461E-04  7.1232692E-04  6.1171835E-04
  -2.00000  6.5848331E-04  8.0630689E-04  6.7913898E-04
  -1.00000  7.3991426E-04  9.2605425E-04  7.6201001E-04
   0.00000  8.4316312E-04  1.0835036E-03  8.6641581E-04
   1.00000  9.7893774E-04  1.2994188E-03  1.0023703E-03
   2.00000  1.1672942E-03  1.6139803E-03  1.1880564E-03
   3.00000  1.4527626E-03  2.1194216E-03  1.4622156E-03
   4.00000  1.9694825E-03  3.1037354E-03  1.9355282E-03
   5.00000  3.2777169E-03  5.7907853E-03  3.0550208E-03
   5.20000  3.6933258E-03  6.6371509E-03  3.4110646E-03
   5.40000  4.1314416E-03  7.4996021E-03  3.7944897E-03
   5.60000  4.5869525E-03  8.3614298E-03  4.2018237E-03
   5.80000  5.0650727E-03  9.2383881E-03  4.6371508E-03
   6.00000  5.5712366E-03  1.0156111E-02  5.1051846E-03
   6.20000  6.1078692E-03  1.1139970E-02  5.6075695E-03
   6.40000  6.6764394E-03  1.2213581E-02  6.1419243E-03
   6.60000  7.2808962E-03  1.3399578E-02  6.7024049E-03
   6.80000  7.9298851E-03  1.4720165E-02  7.2814797E-03
   7.00000  8.6368490E-03  1.6197118E-02  7.8728689E-03
   7.20000  9.4183202E-03  1.7851516E-02  8.4752481E-03
   7.40000  1.0290986E-02  1.9703305E-02  9.0956454E-03
   7.60000  1.1267825E-02  2.1770494E-02  9.7510651E-03
   7.80000  1.2353347E-02  2.4067741E-02  1.0467360E-02
   8.00000  1.3537997E-02  2.6603920E-02  1.1275682E-02
   8.20000  1.4792942E-02  2.9378421E-02  1.2207948E-02
   8.40000  1.6068121E-02  3.2377393E-02  1.3292672E-02
   8.60000  1.7297837E-02  3.5571873E-02  1.4551847E-02
   8.80000  1.8417408E-02  3.8918343E-02  1.5999145E-02
   9.00000  1.9386829E-02  4.2359547E-02  1.7639402E-02
   9.20000  2.0208162E-02  4.5821425E-02  1.9468793E-02
   9.40000  2.0924573E-02  4.9204383E-02  2.1474615E-02
   9.60000  2.1602255E-02  5.2373747E-02  2.3634103E-02
   9.80000  2.2307691E-02  5.5159393E-02  2.5912762E-02
   10.0000  2.3091641E-02  5.7372386E-02  2.8263376E-02
   10.2500  2.4224275E-02  5.9071799E-02  3.1211502E-02
   10.5000  2.5537805E-02  5.9395607E-02  3.4044809E-02
   10.7500  2.7011773E-02  5.8351062E-02  3.6625501E-02
   11.0000  2.8593908E-02  5.6161867E-02  3.8829540E-02
   11.2500  3.0198579E-02  5.3181482E-02  4.0561358E-02
   11.5000  3.1722381E-02  4.9782087E-02  4.1764739E-02
   11.7500  3.3069245E-02  4.6274073E-02  4.2428907E-02
   12.0000  3.4171214E-02  4.2875254E-02  4.2589575E-02
   12.2500  3.5000030E-02  3.9716199E-02  4.2324032E-02
   12.5000  3.5567420E-02  3.6860268E-02  4.1738492E-02
   12.7500  3.5916232E-02  3.4325055E-02  4.0950343E-02
   13.0000  3.6107934E-02  3.2100498E-02  4.0071012E-02
   13.2500  3.6209396E-02  3.0162373E-02  3.9193262E-02
   13.5000  3.6281162E-02  2.8480915E-02  3.8385103E-02
   13.7500  3.6370838E-02  2.7025594E-02  3.7690609E-02
   14.0000  3.6511616E-02  2.5767629E-02  3.7134546E-02
   14.2500  3.6723395E-02  2.4681260E-02  3.6727496E-02
   14.5000  3.7014686E-02  2.3744270E-02  3.6470073E-02
   14.7500  3.7384537E-02  2.2938057E-02  3.6355938E-02
   15.0000  3.7824191E-02  2.2247405E-02  3.6373721E-02
   15.2500  3.8318449E-02  2.1660088E-02  3.6508102E-02
   15.5000  3.8846817E-02  2.1166370E-02  3.6740357E-02
   15.7500  3.9384593E-02  2.0758472E-02  3.7048700E-02
   16.0000  3.9904058E-02  2.0430061E-02  3.7408734E-02
   16.2500  4.0375936E-02  2.0175811E-02  3.7794230E-02
   16.5000  4.0771186E-02  1.9991048E-02  3.8178355E-02
   16.7500  4.1063091E-02  1.9871491E-02  3.8535275E-02
   17.0000  4.1229457E-02  1.9813070E-02  3.8841941E-02
   17.2500  4.1254639E-02  1.9811822E-02  3.9079748E-02
   17.5000  4.1131064E-02  1.9863841E-02  3.9235739E-02
   17.7500  4.0859954E-02  1.9965270E-02  3.9303136E-02
   18.0000  4.0451100E-02  2.0112334E-02  3.9281129E-02
   18.2500  3.9921707E-02  2.0301389E-02  3.9174030E-02
   18.5000  3.9294543E-02  2.0528987E-02  3.8990013E-02
   18.7500  3.8595684E-02  2.0791957E-02  3.8739700E-02
   19.0000  3.7852215E-02  2.1087479E-02  3.8434806E-02
   19.2500  3.7090136E-02  2.1413172E-02  3.8086980E-02
   19.5000  3.6332676E-02  2.1767160E-02  3.7706923E-02
   19.7500  3.5599218E-02  2.2148059E-02  3.7303848E-02
   20.0000  3.4905084E-02  2.2554786E-02  3.6885404E-02
   21.0000  3.2730469E-02  2.4410880E-02  3.5177065E-02
   22.0000  3.1738549E-02  2.6551940E-02  3.3584325E-02
   23.0000  3.1797880E-02  2.8834767E-02  3.2168696E-02
   24.0000  3.2463125E-02  3.1025606E-02  3.0908027E-02
   25.0000  3.3130661E-02  3.2832738E-02  2.9763370E-02
   26.0000  3.3281442E-02  3.4008964E-02  2.8714101E-02
   27.0000  3.2772645E-02  3.4460107E-02  2.7784471E-02
   28.0000  3.1837572E-02  3.4275021E-02  2.7033482E-02
   29.0000  3.0767772E-02  3.3644411E-02  2.6498922E-02
   30.0000  2.9731837E-02  3.2759239E-02  2.6178557E-02
   31.0000  2.8785180E-02  3.1762277E-02  2.6034869E-02
   32.0000  2.7924980E-02  3.0741475E-02  2.6007764E-02
   33.0000  2.7127962E-02  2.9740434E-02  2.6030987E-02
   34.0000  2.6368845E-02  2.8773348E-02  2.6042932E-02
   35.0000  2.5628950E-02  2.7839342E-02  2.5990906E-02
   36.0000  2.4900877E-02  2.6934385E-02  2.5834127E-02
   37.0000  2.4191142E-02  2.6060637E-02  2.5550571E-02
   38.0000  2.3521719E-02  2.5233766E-02  2.5149572E-02
   39.0000  2.2929487E-02  2.4490682E-02  2.4686411E-02
   40.0000  2.2459450E-02  2.3891630E-02  2.4261988E-02
