    Energy   (100,001)      (010,001)      (001,110)   
  -25.0000  1.6971004E-04  1.8491404E-04  1.8089985E-04
  -24.0000  1.7562207E-04  1.9201150E-04  1.8721105E-04
  -23.0000  1.8191996E-04  1.9962737E-04  1.9394131E-04
  -22.0000  1.8864162E-04  2.0781906E-04  2.0113292E-04
  -21.0000  1.9583004E-04  2.1665266E-04  2.0883397E-04
  -20.0000  2.0353416E-04  2.2620459E-04  2.1709947E-04
  -19.0000  2.1180991E-04  2.3656370E-04  2.2599254E-04
  -18.0000  2.2072154E-04  2.4783390E-04  2.3558605E-04
  -17.0000  2.3034322E-04  2.6013741E-04  2.4596450E-04
  -16.0000  2.4076098E-04  2.7361897E-04  2.5722651E-04
  -15.0000  2.5207527E-04  2.8845118E-04  2.6948787E-04
  -14.0000  2.6440405E-04  3.0484149E-04  2.8288546E-04
  -13.0000  2.7788685E-04  3.2304133E-04  2.9758232E-04
  -12.0000  2.9268993E-04  3.4335826E-04  3.1377426E-04
  -11.0000  3.0901314E-04  3.6617240E-04  3.3169864E-04
  -10.0000  3.2709886E-04  3.9195885E-04  3.5164606E-04
  -9.00000  3.4724426E-04  4.2131899E-04  3.7397648E-04
  -8.00000  3.6981797E-04  4.5502479E-04  3.9914159E-04
  -7.00000  3.9528348E-04  4.9408331E-04  4.2771663E-04
  -6.00000  4.2423282E-04  5.3983240E-04  4.6044691E-04
  -5.00000  4.5743611E-04  5.9408725E-04  4.9831772E-04
  -4.00000  4.9591741E-04  6.5937231E-04  5.4266314E-04
  -3.00000  5.4107502E-04  7.3930301E-04  5.9534274E-04
  -2.00000  5.9488275E-04  8.3924551E-04  6.5904351E-04
  -1.00000  6.6024818E-04  9.6752745E-04  7.3783033E-04
   0.00000  7.4170603E-04  1.1378390E-03  8.3823674E-04
   1.00000  8.4691968E-04  1.3745171E-03  9.7168173E-04
   2.00000  9.9049552E-04  1.7260177E-03  1.1607339E-03
   3.00000  1.2062894E-03  2.3078640E-03  1.4596271E-03
   4.00000  1.6050599E-03  3.4982936E-03  2.0510838E-03
   5.00000  2.6784264E-03  6.9659651E-03  3.7630327E-03
   5.20000  3.0051885E-03  8.0698022E-03  4.2983964E-03
   5.40000  3.3230081E-03  9.1806195E-03  4.8213334E-03
   5.60000  3.6214967E-03  1.0267845E-02  5.3085542E-03
   5.80000  3.9057455E-03  1.1345175E-02  5.7597169E-03
   6.00000  4.1857129E-03  1.2440560E-02  6.1853781E-03
   6.20000  4.4708323E-03  1.3582970E-02  6.6035628E-03
   6.40000  4.7684287E-03  1.4799535E-02  7.0386461E-03
   6.60000  5.0836036E-03  1.6114594E-02  7.5173009E-03
   6.80000  5.4197469E-03  1.7548715E-02  8.0626704E-03
   7.00000  5.7792661E-03  1.9118304E-02  8.6897853E-03
   7.20000  6.1642167E-03  2.0836153E-02  9.4033993E-03
   7.40000  6.5766657E-03  2.2712514E-02  1.0197585E-02
   7.60000  7.0187647E-03  2.4756070E-02  1.1056222E-02
   7.80000  7.4926220E-03  2.6974017E-02  1.1954222E-02
   8.00000  8.0001096E-03  2.9370495E-02  1.2859848E-02
   8.20000  8.5426691E-03  3.1942957E-02  1.3738508E-02
   8.40000  9.1211579E-03  3.4676893E-02  1.4557819E-02
   8.60000  9.7358202E-03  3.7540301E-02  1.5293084E-02
   8.80000  1.0386473E-02  4.0480249E-02  1.5931972E-02
   9.00000  1.1072918E-02  4.3423771E-02  1.6477302E-02
   9.20000  1.1795419E-02  4.6283677E-02  1.6947052E-02
   9.40000  1.2554876E-02  4.8967185E-02  1.7370949E-02
   9.60000  1.3352411E-02  5.1383729E-02  1.7784117E-02
   9.80000  1.4188464E-02  5.3448987E-02  1.8219977E-02
   10.0000  1.5061760E-02  5.5085221E-02  1.8704734E-02
   10.2500  1.6199701E-02  5.6420042E-02  1.9403198E-02
   10.5000  1.7376443E-02  5.6862165E-02  2.0213671E-02
   10.7500  1.8573493E-02  5.6352754E-02  2.1130398E-02
   11.0000  1.9769957E-02  5.4914495E-02  2.2138042E-02
   11.2500  2.0947802E-02  5.2668104E-02  2.3218146E-02
   11.5000  2.2097106E-02  4.9820001E-02  2.4354020E-02
   11.7500  2.3217488E-02  4.6619597E-02  2.5532500E-02
   12.0000  2.4313791E-02  4.3308414E-02  2.6740884E-02
   12.2500  2.5390470E-02  4.0082435E-02  2.7962213E-02
   12.5000  2.6449886E-02  3.7074969E-02  2.9174014E-02
   12.7500  2.7492668E-02  3.4358772E-02  3.0350303E-02
   13.0000  2.8517848E-02  3.1959916E-02  3.1466444E-02
   13.2500  2.9522905E-02  2.9874326E-02  3.2504647E-02
   13.5000  3.0504074E-02  2.8081200E-02  3.3456354E-02
   13.7500  3.1456916E-02  2.6552084E-02  3.4321717E-02
   14.0000  3.2376930E-02  2.5256504E-02  3.5107962E-02
   14.2500  3.3259948E-02  2.4165177E-02  3.5827249E-02
   14.5000  3.4102226E-02  2.3251586E-02  3.6494244E-02
   14.7500  3.4900319E-02  2.2492558E-02  3.7123684E-02
   15.0000  3.5650882E-02  2.1868279E-02  3.7728263E-02
   15.2500  3.6350553E-02  2.1362029E-02  3.8317024E-02
   15.5000  3.6995951E-02  2.0959789E-02  3.8894351E-02
   15.7500  3.7583805E-02  2.0649823E-02  3.9459524E-02
   16.0000  3.8111192E-02  2.0422294E-02  4.0006820E-02
   16.2500  3.8575806E-02  2.0268926E-02  4.0526112E-02
   16.5000  3.8976231E-02  2.0182723E-02  4.1003933E-02
   16.7500  3.9312190E-02  2.0157736E-02  4.1424933E-02
   17.0000  3.9584742E-02  2.0188872E-02  4.1773612E-02
   17.2500  3.9796427E-02  2.0271734E-02  4.2036132E-02
   17.5000  3.9951350E-02  2.0402486E-02  4.2201964E-02
   17.7500  4.0055163E-02  2.0577744E-02  4.2265133E-02
   18.0000  4.0114956E-02  2.0794487E-02  4.2224845E-02
   18.2500  4.0139014E-02  2.1049980E-02  4.2085448E-02
   18.5000  4.0136479E-02  2.1341719E-02  4.1855775E-02
   18.7500  4.0116915E-02  2.1667400E-02  4.1548019E-02
   19.0000  4.0089821E-02  2.2024902E-02  4.1176371E-02
   19.2500  4.0064138E-02  2.2412310E-02  4.0755610E-02
   19.5000  4.0047774E-02  2.2827939E-02  4.0299837E-02
   19.7500  4.0047190E-02  2.3270289E-02  3.9821550E-02
   20.0000  4.0067108E-02  2.3737807E-02  3.9331303E-02
   21.0000  4.0384427E-02  2.5806580E-02  3.7412429E-02
   22.0000  4.0976814E-02  2.8027975E-02  3.5773442E-02
   23.0000  4.1446243E-02  3.0148353E-02  3.4442462E-02
   24.0000  4.1282939E-02  3.1890350E-02  3.3326933E-02
   25.0000  4.0147119E-02  3.3045933E-02  3.2329953E-02
   26.0000  3.8074565E-02  3.3555407E-02  3.1389851E-02
   27.0000  3.5456641E-02  3.3500221E-02  3.0492328E-02
   28.0000  3.2798420E-02  3.3035034E-02  2.9665050E-02
   29.0000  3.0478867E-02  3.2329091E-02  2.8957871E-02
   30.0000  2.8664769E-02  3.1528728E-02  2.8411894E-02
   31.0000  2.7338133E-02  3.0718117E-02  2.8028214E-02
   32.0000  2.6404082E-02  2.9930323E-02  2.7778484E-02
   33.0000  2.5761907E-02  2.9171071E-02  2.7624204E-02
   34.0000  2.5324803E-02  2.8433951E-02  2.7525808E-02
   35.0000  2.5021958E-02  2.7711263E-02  2.7445477E-02
   36.0000  2.4795843E-02  2.7000006E-02  2.7347673E-02
   37.0000  2.4599652E-02  2.6304083E-02  2.7202362E-02
   38.0000  2.4399204E-02  2.5636247E-02  2.6994111E-02
   39.0000  2.4183481E-02  2.5025607E-02  2.6737785E-02
   40.0000  2.3977932E-02  2.4525500E-02  2.6489523E-02
