    Energy   (100,001)      (010,001)      (001,110)   
  -25.0000  1.6618134E-04  1.7525263E-04  1.6690445E-04
  -24.0000  1.7253551E-04  1.8211876E-04  1.7343475E-04
  -23.0000  1.7933881E-04  1.8949033E-04  1.8043719E-04
  -22.0000  1.8663854E-04  1.9742341E-04  1.8796264E-04
  -21.0000  1.9448875E-04  2.0598252E-04  1.9606939E-04
  -20.0000  2.0295142E-04  2.1524228E-04  2.0482452E-04
  -19.0000  2.1209798E-04  2.2528942E-04  2.1430556E-04
  -18.0000  2.2201117E-04  2.3622529E-04  2.2460264E-04
  -17.0000  2.3278733E-04  2.4816912E-04  2.3582111E-04
  -16.0000  2.4453928E-04  2.6126200E-04  2.4808478E-04
  -15.0000  2.5739994E-04  2.7567208E-04  2.6154020E-04
  -14.0000  2.7152702E-04  2.9160134E-04  2.7636195E-04
  -13.0000  2.8710896E-04  3.0929434E-04  2.9275970E-04
  -12.0000  3.0437279E-04  3.2905001E-04  3.1098729E-04
  -11.0000  3.2359439E-04  3.5123728E-04  3.3135488E-04
  -10.0000  3.4511234E-04  3.7631665E-04  3.5424535E-04
  -9.00000  3.6934670E-04  4.0486996E-04  3.8013661E-04
  -8.00000  3.9682494E-04  4.3764256E-04  4.0963283E-04
  -7.00000  4.2821866E-04  4.7560419E-04  4.4350855E-04
  -6.00000  4.6439637E-04  5.2003901E-04  4.8277290E-04
  -5.00000  5.0650184E-04  5.7268236E-04  5.2876507E-04
  -4.00000  5.5607346E-04  6.3593535E-04  5.8330064E-04
  -3.00000  6.1523320E-04  7.1321451E-04  6.4890396E-04
  -2.00000  6.8699910E-04  8.0954811E-04  7.2919280E-04
  -1.00000  7.7583133E-04  9.3265289E-04  8.2954895E-04
   0.00000  8.8865780E-04  1.0950262E-03  9.5836816E-04
   1.00000  1.0369981E-03  1.3184330E-03  1.1296078E-03
   2.00000  1.2420280E-03  1.6449913E-03  1.3686951E-03
   3.00000  1.5496048E-03  2.1712245E-03  1.7293158E-03
   4.00000  2.0941253E-03  3.1974728E-03  2.3609147E-03
   5.00000  3.4250379E-03  5.9931065E-03  3.8381107E-03
   5.20000  3.8388938E-03  6.8699428E-03  4.2902485E-03
   5.40000  4.2684552E-03  7.7613040E-03  4.7633257E-03
   5.60000  4.7058192E-03  8.6514649E-03  5.2533524E-03
   5.80000  5.1560297E-03  9.5595575E-03  5.7715113E-03
   6.00000  5.6285438E-03  1.0515030E-02  6.3358500E-03
   6.20000  6.1335301E-03  1.1546342E-02  6.9675709E-03
   6.40000  6.6814830E-03  1.2679221E-02  7.6902771E-03
   6.60000  7.2836516E-03  1.3937950E-02  8.5300037E-03
   6.80000  7.9523655E-03  1.5346991E-02  9.5154231E-03
   7.00000  8.7009861E-03  1.6932029E-02  1.0678085E-02
   7.20000  9.5433354E-03  1.8720224E-02  1.2052368E-02
   7.40000  1.0492624E-02  2.0739806E-02  1.3674506E-02
   7.60000  1.1560328E-02  2.3019183E-02  1.5579855E-02
   7.80000  1.2756026E-02  2.5585678E-02  1.7797518E-02
   8.00000  1.4089019E-02  2.8463767E-02  2.0341676E-02
   8.20000  1.5570570E-02  3.1671647E-02  2.3199914E-02
   8.40000  1.7213292E-02  3.5213864E-02  2.6320571E-02
   8.60000  1.9025447E-02  3.9068913E-02  2.9603612E-02
   8.80000  2.1002315E-02  4.3173765E-02  3.2901027E-02
   9.00000  2.3119076E-02  4.7409733E-02  3.6031031E-02
   9.20000  2.5327343E-02  5.1595276E-02  3.8804526E-02
   9.40000  2.7555369E-02  5.5492114E-02  4.1057032E-02
   9.60000  2.9713968E-02  5.8829376E-02  4.2678545E-02
   9.80000  3.1710866E-02  6.1345054E-02  4.3634997E-02
   10.0000  3.3469739E-02  6.2835908E-02  4.3975363E-02
   10.2500  3.5266870E-02  6.3114388E-02  4.3721482E-02
   10.5000  3.6605056E-02  6.1705037E-02  4.3005680E-02
   10.7500  3.7526032E-02  5.8920987E-02  4.2117626E-02
   11.0000  3.8100764E-02  5.5209904E-02  4.1250434E-02
   11.2500  3.8406327E-02  5.1030483E-02  4.0492745E-02
   11.5000  3.8513554E-02  4.6765629E-02  3.9859173E-02
   11.7500  3.8483193E-02  4.2684441E-02  3.9324955E-02
   12.0000  3.8368268E-02  3.8944545E-02  3.8851651E-02
   12.2500  3.8217252E-02  3.5616269E-02  3.8403269E-02
   12.5000  3.8074939E-02  3.2711667E-02  3.7955803E-02
   12.7500  3.7981886E-02  3.0208859E-02  3.7501229E-02
   13.0000  3.7972393E-02  2.8069570E-02  3.7044684E-02
   13.2500  3.8071096E-02  2.6250560E-02  3.6598302E-02
   13.5000  3.8290592E-02  2.4709935E-02  3.6176979E-02
   13.7500  3.8631047E-02  2.3409967E-02  3.5795910E-02
   14.0000  3.9080979E-02  2.2318020E-02  3.5468340E-02
   14.2500  3.9618599E-02  2.1406498E-02  3.5203666E-02
   14.5000  4.0213509E-02  2.0652332E-02  3.5006383E-02
   14.7500  4.0828808E-02  2.0036284E-02  3.4875963E-02
   15.0000  4.1423707E-02  1.9542239E-02  3.4807459E-02
   15.2500  4.1956646E-02  1.9156577E-02  3.4792568E-02
   15.5000  4.2388781E-02  1.8867662E-02  3.4820884E-02
   15.7500  4.2687467E-02  1.8665442E-02  3.4881084E-02
   16.0000  4.2829246E-02  1.8541178E-02  3.4961862E-02
   16.2500  4.2801819E-02  1.8487262E-02  3.5052512E-02
   16.5000  4.2604672E-02  1.8497102E-02  3.5143187E-02
   16.7500  4.2248328E-02  1.8565035E-02  3.5224955E-02
   17.0000  4.1752492E-02  1.8686238E-02  3.5289825E-02
   17.2500  4.1143536E-02  1.8856638E-02  3.5330871E-02
   17.5000  4.0451757E-02  1.9072784E-02  3.5342473E-02
   17.7500  3.9708763E-02  1.9331732E-02  3.5320634E-02
   18.0000  3.8945194E-02  1.9630908E-02  3.5263236E-02
   18.2500  3.8188910E-02  1.9968000E-02  3.5170140E-02
   18.5000  3.7463680E-02  2.0340868E-02  3.5043063E-02
   18.7500  3.6788383E-02  2.0747492E-02  3.4885256E-02
   19.0000  3.6176667E-02  2.1185963E-02  3.4701028E-02
   19.2500  3.5636995E-02  2.1654518E-02  3.4495195E-02
   19.5000  3.5172969E-02  2.2151598E-02  3.4272551E-02
   19.7500  3.4783834E-02  2.2675838E-02  3.4037440E-02
   20.0000  3.4465087E-02  2.3225830E-02  3.3793549E-02
   21.0000  3.3716227E-02  2.5632969E-02  3.2785302E-02
   22.0000  3.3290130E-02  2.8220593E-02  3.1784415E-02
   23.0000  3.2590379E-02  3.0762952E-02  3.0775241E-02
   24.0000  3.1389388E-02  3.2952271E-02  2.9733350E-02
   25.0000  2.9849785E-02  3.4460710E-02  2.8677803E-02
   26.0000  2.8268250E-02  3.5135743E-02  2.7652669E-02
   27.0000  2.6877918E-02  3.5035636E-02  2.6721495E-02
   28.0000  2.5778278E-02  3.4356823E-02  2.5948580E-02
   29.0000  2.4954719E-02  3.3334996E-02  2.5361780E-02
   30.0000  2.4335037E-02  3.2167996E-02  2.4933560E-02
   31.0000  2.3837225E-02  3.0984143E-02  2.4596861E-02
   32.0000  2.3395101E-02  2.9845421E-02  2.4277396E-02
   33.0000  2.2966657E-02  2.8766033E-02  2.3916782E-02
   34.0000  2.2532901E-02  2.7733352E-02  2.3480273E-02
   35.0000  2.2092415E-02  2.6726606E-02  2.2956403E-02
   36.0000  2.1655170E-02  2.5731432E-02  2.2355338E-02
   37.0000  2.1236848E-02  2.4750047E-02  2.1707884E-02
   38.0000  2.0854552E-02  2.3807941E-02  2.1064323E-02
   39.0000  2.0525695E-02  2.2958108E-02  2.0488636E-02
   40.0000  2.0267737E-02  2.2274970E-02  2.0038802E-02
