    Energy   (100,001)      (010,001)      (001,110)   
  -25.0000  1.6278569E-04  1.8080489E-04  1.7079263E-04
  -24.0000  1.6884513E-04  1.8781247E-04  1.7719486E-04
  -23.0000  1.7531992E-04  1.9533459E-04  1.8404570E-04
  -22.0000  1.8225246E-04  2.0342838E-04  1.9139236E-04
  -21.0000  1.8969101E-04  2.1215965E-04  1.9928880E-04
  -20.0000  1.9769069E-04  2.2160453E-04  2.0779701E-04
  -19.0000  2.0631480E-04  2.3185154E-04  2.1698846E-04
  -18.0000  2.1563631E-04  2.4300424E-04  2.2694604E-04
  -17.0000  2.2573980E-04  2.5518445E-04  2.3776641E-04
  -16.0000  2.3672386E-04  2.6853649E-04  2.4956294E-04
  -15.0000  2.4870407E-04  2.8323250E-04  2.6246949E-04
  -14.0000  2.6181681E-04  2.9947940E-04  2.7664523E-04
  -13.0000  2.7622415E-04  3.1752803E-04  2.9228089E-04
  -12.0000  2.9212018E-04  3.3768529E-04  3.0960702E-04
  -11.0000  3.0973933E-04  3.6033050E-04  3.2890488E-04
  -10.0000  3.2936740E-04  3.8593776E-04  3.5052128E-04
  -9.00000  3.5135660E-04  4.1510710E-04  3.7488890E-04
  -8.00000  3.7614604E-04  4.4860860E-04  4.0255484E-04
  -7.00000  4.0429069E-04  4.8744634E-04  4.3422144E-04
  -6.00000  4.3650286E-04  5.3295322E-04  4.7080636E-04
  -5.00000  4.7371335E-04  5.8693560E-04  5.1353350E-04
  -4.00000  5.1716466E-04  6.5190118E-04  5.6407561E-04
  -3.00000  5.6855833E-04  7.3143209E-04  6.2478764E-04
  -2.00000  6.3029927E-04  8.3082447E-04  6.9910924E-04
  -1.00000  7.0592577E-04  9.5825010E-04  7.9230616E-04
   0.00000  8.0092774E-04  1.1270269E-03  9.1295890E-04
   1.00000  9.2447887E-04  1.3605172E-03  1.0763181E-03
   2.00000  1.0937081E-03  1.7042816E-03  1.3132078E-03
   3.00000  1.3469996E-03  2.2634440E-03  1.7001467E-03
   4.00000  1.8040440E-03  3.3656760E-03  2.5075530E-03
   5.00000  2.9762534E-03  6.3992868E-03  4.9897118E-03
   5.20000  3.3322136E-03  7.3665718E-03  5.7369865E-03
   5.40000  3.6860272E-03  8.3643309E-03  6.4161859E-03
   5.60000  4.0301187E-03  9.3756203E-03  6.9881988E-03
   5.80000  4.3720336E-03  1.0419259E-02  7.4641628E-03
   6.00000  4.7234571E-03  1.1526429E-02  7.8791993E-03
   6.20000  5.0949105E-03  1.2729999E-02  8.2759215E-03
   6.40000  5.4944775E-03  1.4062399E-02  8.6939703E-03
   6.60000  5.9280812E-03  1.5555938E-02  9.1625052E-03
   6.80000  6.4003663E-03  1.7243626E-02  9.6975166E-03
   7.00000  6.9156053E-03  1.9159389E-02  1.0304803E-02
   7.20000  7.4781433E-03  2.1336003E-02  1.0986376E-02
   7.40000  8.0921649E-03  2.3798792E-02  1.1746332E-02
   7.60000  8.7609109E-03  2.6554058E-02  1.2592666E-02
   7.80000  9.4857534E-03  2.9573672E-02  1.3533740E-02
   8.00000  1.0265728E-02  3.2781193E-02  1.4571564E-02
   8.20000  1.1098162E-02  3.6050577E-02  1.5697363E-02
   8.40000  1.1980647E-02  3.9231051E-02  1.6894688E-02
   8.60000  1.2913470E-02  4.2197612E-02  1.8149925E-02
   8.80000  1.3900648E-02  4.4898065E-02  1.9461861E-02
   9.00000  1.4948437E-02  4.7358054E-02  2.0840420E-02
   9.20000  1.6062327E-02  4.9637623E-02  2.2294597E-02
   9.40000  1.7244437E-02  5.1772405E-02  2.3819562E-02
   9.60000  1.8492042E-02  5.3735805E-02  2.5391536E-02
   9.80000  1.9796853E-02  5.5434058E-02  2.6971710E-02
   10.0000  2.1144782E-02  5.6726670E-02  2.8515505E-02
   10.2500  2.2860361E-02  5.7540420E-02  3.0332610E-02
   10.5000  2.4566975E-02  5.7250323E-02  3.1972386E-02
   10.7500  2.6216721E-02  5.5789852E-02  3.3406691E-02
   11.0000  2.7767019E-02  5.3299658E-02  3.4629585E-02
   11.2500  2.9186663E-02  5.0078176E-02  3.5646068E-02
   11.5000  3.0459082E-02  4.6480755E-02  3.6463088E-02
   11.7500  3.1582729E-02  4.2827046E-02  3.7086646E-02
   12.0000  3.2568768E-02  3.9348631E-02  3.7524329E-02
   12.2500  3.3437789E-02  3.6180273E-02  3.7790670E-02
   12.5000  3.4216662E-02  3.3378657E-02  3.7911526E-02
   12.7500  3.4934789E-02  3.0948532E-02  3.7924082E-02
   13.0000  3.5619414E-02  2.8865801E-02  3.7872367E-02
   13.2500  3.6291760E-02  2.7094196E-02  3.7800781E-02
   13.5000  3.6965774E-02  2.5594989E-02  3.7748300E-02
   13.7500  3.7648582E-02  2.4331625E-02  3.7744775E-02
   14.0000  3.8341201E-02  2.3271626E-02  3.7809345E-02
   14.2500  3.9039089E-02  2.2387106E-02  3.7950312E-02
   14.5000  3.9732580E-02  2.1654609E-02  3.8165793E-02
   14.7500  4.0407319E-02  2.1054631E-02  3.8444733E-02
   15.0000  4.1044868E-02  2.0571039E-02  3.8768170E-02
   15.2500  4.1623697E-02  2.0190496E-02  3.9110846E-02
   15.5000  4.2120730E-02  1.9901922E-02  3.9443321E-02
   15.7500  4.2513477E-02  1.9696035E-02  3.9734646E-02
   16.0000  4.2782633E-02  1.9564949E-02  3.9955483E-02
   16.2500  4.2914769E-02  1.9501854E-02  4.0081288E-02
   16.5000  4.2904614E-02  1.9500751E-02  4.0095027E-02
   16.7500  4.2756345E-02  1.9556261E-02  3.9988868E-02
   17.0000  4.2483556E-02  1.9663481E-02  3.9764513E-02
   17.2500  4.2107825E-02  1.9817899E-02  3.9432153E-02
   17.5000  4.1656217E-02  2.0015338E-02  3.9008384E-02
   17.7500  4.1158267E-02  2.0251937E-02  3.8513620E-02
   18.0000  4.0643041E-02  2.0524133E-02  3.7969543E-02
   18.2500  4.0136756E-02  2.0828668E-02  3.7396993E-02
   18.5000  3.9661196E-02  2.1162592E-02  3.6814510E-02
   18.7500  3.9232946E-02  2.1523274E-02  3.6237507E-02
   19.0000  3.8863311E-02  2.1908423E-02  3.5677975E-02
   19.2500  3.8558703E-02  2.2316126E-02  3.5144550E-02
   19.5000  3.8321280E-02  2.2744879E-02  3.4642783E-02
   19.7500  3.8149642E-02  2.3193554E-02  3.4175551E-02
   20.0000  3.8039438E-02  2.3661165E-02  3.3743627E-02
   21.0000  3.8053570E-02  2.5686270E-02  3.2349506E-02
   22.0000  3.8316863E-02  2.7849802E-02  3.1391299E-02
   23.0000  3.8186264E-02  2.9977035E-02  3.0698898E-02
   24.0000  3.7228775E-02  3.1839906E-02  3.0124359E-02
   25.0000  3.5425178E-02  3.3209234E-02  2.9566161E-02
   26.0000  3.3156443E-02  3.3938030E-02  2.8980409E-02
   27.0000  3.0914864E-02  3.4021215E-02  2.8384900E-02
   28.0000  2.8971451E-02  3.3589551E-02  2.7824657E-02
   29.0000  2.7384344E-02  3.2831312E-02  2.7342552E-02
   30.0000  2.6120889E-02  3.1914832E-02  2.6957305E-02
   31.0000  2.5123547E-02  3.0952391E-02  2.6655621E-02
   32.0000  2.4331429E-02  3.0001027E-02  2.6400266E-02
   33.0000  2.3685494E-02  2.9080970E-02  2.6143486E-02
   34.0000  2.3132154E-02  2.8194489E-02  2.5838417E-02
   35.0000  2.2627703E-02  2.7337751E-02  2.5447481E-02
   36.0000  2.2142839E-02  2.6505930E-02  2.4950034E-02
   37.0000  2.1666146E-02  2.5695988E-02  2.4350291E-02
   38.0000  2.1205345E-02  2.4914640E-02  2.3684794E-02
   39.0000  2.0785937E-02  2.4194755E-02  2.3026666E-02
   40.0000  2.0444451E-02  2.3603267E-02  2.2474034E-02
