    Energy   (100,001)      (010,001)      (001,110)   
  -25.0000  1.6513933E-04  1.7448212E-04  1.6748547E-04
  -24.0000  1.7129101E-04  1.8139120E-04  1.7390780E-04
  -23.0000  1.7786648E-04  1.8881296E-04  1.8078618E-04
  -22.0000  1.8490929E-04  1.9680463E-04  1.8816904E-04
  -21.0000  1.9246908E-04  2.0543211E-04  1.9611176E-04
  -20.0000  2.0060263E-04  2.1477167E-04  2.0467797E-04
  -19.0000  2.0937518E-04  2.2491202E-04  2.1394117E-04
  -18.0000  2.1886203E-04  2.3595695E-04  2.2398662E-04
  -17.0000  2.2915061E-04  2.4802863E-04  2.3491386E-04
  -16.0000  2.4034294E-04  2.6127178E-04  2.4683975E-04
  -15.0000  2.5255877E-04  2.7585907E-04  2.5990241E-04
  -14.0000  2.6593969E-04  2.9199814E-04  2.7426626E-04
  -13.0000  2.8065420E-04  3.0994073E-04  2.9012855E-04
  -12.0000  2.9690445E-04  3.2999495E-04  3.0772799E-04
  -11.0000  3.1493509E-04  3.5254168E-04  3.2735619E-04
  -10.0000  3.3504506E-04  3.7805718E-04  3.4937326E-04
  -9.00000  3.5760353E-04  4.0714440E-04  3.7422918E-04
  -8.00000  3.8307197E-04  4.4057755E-04  4.0249387E-04
  -7.00000  4.1203519E-04  4.7936667E-04  4.3490039E-04
  -6.00000  4.4524611E-04  5.2485361E-04  4.7240853E-04
  -5.00000  4.8369198E-04  5.7885881E-04  5.1630136E-04
  -4.00000  5.2869584E-04  6.4391328E-04  5.6833693E-04
  -3.00000  5.8207780E-04  7.2364020E-04  6.3099721E-04
  -2.00000  6.4642451E-04  8.2341339E-04  7.0791799E-04
  -1.00000  7.2556787E-04  9.5156435E-04  8.0468133E-04
   0.00000  8.2550723E-04  1.1217731E-03  9.3040400E-04
   1.00000  9.5639445E-04  1.3583259E-03  1.1012970E-03
   2.00000  1.1375425E-03  1.7095295E-03  1.3499836E-03
   3.00000  1.4135086E-03  2.2905814E-03  1.7561708E-03
   4.00000  1.9295103E-03  3.4798078E-03  2.5905104E-03
   5.00000  3.3240878E-03  6.9686424E-03  5.1197444E-03
   5.20000  3.7408466E-03  8.0943384E-03  5.9729340E-03
   5.40000  4.1386164E-03  9.2293066E-03  6.8543893E-03
   5.60000  4.5049703E-03  1.0322665E-02  7.7109576E-03
   5.80000  4.8487046E-03  1.1359067E-02  8.5035475E-03
   6.00000  5.1849828E-03  1.2339051E-02  9.2012275E-03
   6.20000  5.5288623E-03  1.3278687E-02  9.7894488E-03
   6.40000  5.8939965E-03  1.4216468E-02  1.0281314E-02
   6.60000  6.2921101E-03  1.5211821E-02  1.0717053E-02
   6.80000  6.7321376E-03  1.6333133E-02  1.1149683E-02
   7.00000  7.2196806E-03  1.7643740E-02  1.1627323E-02
   7.20000  7.7575570E-03  1.9193746E-02  1.2182403E-02
   7.40000  8.3474369E-03  2.1018759E-02  1.2829509E-02
   7.60000  8.9916798E-03  2.3142440E-02  1.3568407E-02
   7.80000  9.6943098E-03  2.5580049E-02  1.4389418E-02
   8.00000  1.0460855E-02  2.8341506E-02  1.5279857E-02
   8.20000  1.1297623E-02  3.1432750E-02  1.6230103E-02
   8.40000  1.2211125E-02  3.4853617E-02  1.7237520E-02
   8.60000  1.3207898E-02  3.8590390E-02  1.8307375E-02
   8.80000  1.4294435E-02  4.2602272E-02  1.9451107E-02
   9.00000  1.5476763E-02  4.6803434E-02  2.0682590E-02
   9.20000  1.6759437E-02  5.1045494E-02  2.2013196E-02
   9.40000  1.8144159E-02  5.5108390E-02  2.3447146E-02
   9.60000  1.9628397E-02  5.8709436E-02  2.4978698E-02
   9.80000  2.1204013E-02  6.1538666E-02  2.6591464E-02
   10.0000  2.2855508E-02  6.3319084E-02  2.8258734E-02
   10.2500  2.4988165E-02  6.3815044E-02  3.0363179E-02
   10.5000  2.7132581E-02  6.2393440E-02  3.2407658E-02
   10.7500  2.9208089E-02  5.9395080E-02  3.4296766E-02
   11.0000  3.1136620E-02  5.5369186E-02  3.5941747E-02
   11.2500  3.2858497E-02  5.0882008E-02  3.7274858E-02
   11.5000  3.4339357E-02  4.6386189E-02  3.8260315E-02
   11.7500  3.5568025E-02  4.2177468E-02  3.8898511E-02
   12.0000  3.6552987E-02  3.8409225E-02  3.9221478E-02
   12.2500  3.7318380E-02  3.5131358E-02  3.9282538E-02
   12.5000  3.7898718E-02  3.2331785E-02  3.9145918E-02
   12.7500  3.8333964E-02  2.9968655E-02  3.8878747E-02
   13.0000  3.8665935E-02  2.7989629E-02  3.8544822E-02
   13.2500  3.8935420E-02  2.6341581E-02  3.8200305E-02
   13.5000  3.9178714E-02  2.4975152E-02  3.7891363E-02
   13.7500  3.9424553E-02  2.3846673E-02  3.7653267E-02
   14.0000  3.9693224E-02  2.2918801E-02  3.7510503E-02
   14.2500  3.9997055E-02  2.2160393E-02  3.7477429E-02
   14.5000  4.0340826E-02  2.1545863E-02  3.7559224E-02
   14.7500  4.0721860E-02  2.1054307E-02  3.7752816E-02
   15.0000  4.1130063E-02  2.0668685E-02  3.8047564E-02
   15.2500  4.1548229E-02  2.0375124E-02  3.8425847E-02
   15.5000  4.1952833E-02  2.0162336E-02  3.8863803E-02
   15.7500  4.2315524E-02  2.0021127E-02  3.9332498E-02
   16.0000  4.2605392E-02  1.9943982E-02  3.9799677E-02
   16.2500  4.2791971E-02  1.9924704E-02  4.0232103E-02
   16.5000  4.2848681E-02  1.9958122E-02  4.0598303E-02
   16.7500  4.2756224E-02  2.0039849E-02  4.0871333E-02
   17.0000  4.2505283E-02  2.0166103E-02  4.1031118E-02
   17.2500  4.2097974E-02  2.0333557E-02  4.1065947E-02
   17.5000  4.1547687E-02  2.0539241E-02  4.0972875E-02
   17.7500  4.0877406E-02  2.0780468E-02  4.0757056E-02
   18.0000  4.0116889E-02  2.1054781E-02  4.0430253E-02
   18.2500  3.9299332E-02  2.1359924E-02  4.0008868E-02
   18.5000  3.8458140E-02  2.1693818E-02  3.9511880E-02
   18.7500  3.7624265E-02  2.2054553E-02  3.8958968E-02
   19.0000  3.6824347E-02  2.2440392E-02  3.8368975E-02
   19.2500  3.6079655E-02  2.2849801E-02  3.7758766E-02
   19.5000  3.5405715E-02  2.3281470E-02  3.7142467E-02
   19.7500  3.4812464E-02  2.3734278E-02  3.6531124E-02
   20.0000  3.4304894E-02  2.4207056E-02  3.5932886E-02
   21.0000  3.3120429E-02  2.6253302E-02  3.3773085E-02
   22.0000  3.3051806E-02  2.8407227E-02  3.2073625E-02
   23.0000  3.3546949E-02  3.0461848E-02  3.0755764E-02
   24.0000  3.3971096E-02  3.2178732E-02  2.9690764E-02
   25.0000  3.3838247E-02  3.3341815E-02  2.8795097E-02
   26.0000  3.3010744E-02  3.3855723E-02  2.8032395E-02
   27.0000  3.1703938E-02  3.3752130E-02  2.7398869E-02
   28.0000  3.0252287E-02  3.3155986E-02  2.6901275E-02
   29.0000  2.8887108E-02  3.2231904E-02  2.6532471E-02
   30.0000  2.7692215E-02  3.1131075E-02  2.6259978E-02
   31.0000  2.6661680E-02  2.9964922E-02  2.6032801E-02
   32.0000  2.5757063E-02  2.8802318E-02  2.5796228E-02
   33.0000  2.4937829E-02  2.7677991E-02  2.5502485E-02
   34.0000  2.4174299E-02  2.6604091E-02  2.5114732E-02
   35.0000  2.3452984E-02  2.5581576E-02  2.4608848E-02
   36.0000  2.2777612E-02  2.4609999E-02  2.3977650E-02
   37.0000  2.2165752E-02  2.3695164E-02  2.3238638E-02
   38.0000  2.1640335E-02  2.2855133E-02  2.2441977E-02
   39.0000  2.1219270E-02  2.2124683E-02  2.1673289E-02
   40.0000  2.0907720E-02  2.1550605E-02  2.1038177E-02
