    Energy   (100,001)      (010,001)      (001,110)   
  -25.0000  1.7752134E-04  1.8889455E-04  1.8230387E-04
  -24.0000  1.8390272E-04  1.9583100E-04  1.8907053E-04
  -23.0000  1.9071678E-04  2.0325723E-04  1.9631327E-04
  -22.0000  1.9800773E-04  2.1122605E-04  2.0408280E-04
  -21.0000  2.0582597E-04  2.1979801E-04  2.1243717E-04
  -20.0000  2.1422913E-04  2.2904298E-04  2.2144316E-04
  -19.0000  2.2328344E-04  2.3904189E-04  2.3117802E-04
  -18.0000  2.3306538E-04  2.4988904E-04  2.4173152E-04
  -17.0000  2.4366370E-04  2.6169496E-04  2.5320862E-04
  -16.0000  2.5518204E-04  2.7459002E-04  2.6573282E-04
  -15.0000  2.6774213E-04  2.8872901E-04  2.7945037E-04
  -14.0000  2.8148788E-04  3.0429718E-04  2.9453581E-04
  -13.0000  2.9659074E-04  3.2151792E-04  3.1119911E-04
  -12.0000  3.1325651E-04  3.4066313E-04  3.2969509E-04
  -11.0000  3.3173451E-04  3.6206694E-04  3.5033612E-04
  -10.0000  3.5232969E-04  3.8614441E-04  3.7350934E-04
  -9.00000  3.7541918E-04  4.1341744E-04  3.9970046E-04
  -8.00000  4.0147510E-04  4.4455108E-04  4.2952748E-04
  -7.00000  4.3109685E-04  4.8040585E-04  4.6378928E-04
  -6.00000  4.6505775E-04  5.2211461E-04  5.0353767E-04
  -5.00000  5.0437427E-04  5.7119887E-04  5.5018741E-04
  -4.00000  5.5041230E-04  6.2975031E-04  6.0569027E-04
  -3.00000  6.0505655E-04  7.0072525E-04  6.7282225E-04
  -2.00000  6.7099379E-04  7.8844498E-04  7.5568278E-04
  -1.00000  7.5221564E-04  8.9949664E-04  8.6061951E-04
   0.00000  8.5498293E-04  1.0444820E-03  9.9808838E-04
   1.00000  9.8987937E-04  1.2417748E-03  1.1868239E-03
   2.00000  1.1768839E-03  1.5268533E-03  1.4647042E-03
   3.00000  1.4610437E-03  1.9812453E-03  1.9240320E-03
   4.00000  1.9816212E-03  2.8610213E-03  2.8726874E-03
   5.00000  3.3356557E-03  5.2682098E-03  5.7422432E-03
   5.20000  3.7700661E-03  6.0333003E-03  6.7529806E-03
   5.40000  4.2292307E-03  6.8161795E-03  7.8568158E-03
   5.60000  4.7076508E-03  7.5962738E-03  9.0099861E-03
   5.80000  5.2055010E-03  8.3776497E-03  1.0159390E-02
   6.00000  5.7145966E-03  9.1712994E-03  1.1225226E-02
   6.20000  6.2179388E-03  9.9901014E-03  1.2118029E-02
   6.40000  6.7021416E-03  1.0851383E-02  1.2787239E-02
   6.60000  7.1709931E-03  1.1778242E-02  1.3260533E-02
   6.80000  7.6470812E-03  1.2796497E-02  1.3633211E-02
   7.00000  8.1610312E-03  1.3930274E-02  1.4018362E-02
   7.20000  8.7391816E-03  1.5199906E-02  1.4502936E-02
   7.40000  9.3974933E-03  1.6622503E-02  1.5133226E-02
   7.60000  1.0141443E-02  1.8213535E-02  1.5921756E-02
   7.80000  1.0968612E-02  1.9987977E-02  1.6860315E-02
   8.00000  1.1871659E-02  2.1960231E-02  1.7930772E-02
   8.20000  1.2840955E-02  2.4142731E-02  1.9111526E-02
   8.40000  1.3866772E-02  2.6543412E-02  2.0380030E-02
   8.60000  1.4940914E-02  2.9162140E-02  2.1712566E-02
   8.80000  1.6057705E-02  3.1986474E-02  2.3082928E-02
   9.00000  1.7214457E-02  3.4987487E-02  2.4461941E-02
   9.20000  1.8411364E-02  3.8116390E-02  2.5819366E-02
   9.40000  1.9650494E-02  4.1302330E-02  2.7128525E-02
   9.60000  2.0933843E-02  4.4451836E-02  2.8372177E-02
   9.80000  2.2260706E-02  4.7450670E-02  2.9546846E-02
   10.0000  2.3624835E-02  5.0169008E-02  3.0662940E-02
   10.2500  2.5360410E-02  5.2966333E-02  3.2005601E-02
   10.5000  2.7088191E-02  5.4876085E-02  3.3325287E-02
   10.7500  2.8754047E-02  5.5745491E-02  3.4638592E-02
   11.0000  3.0306271E-02  5.5550562E-02  3.5927744E-02
   11.2500  3.1706384E-02  5.4398613E-02  3.7144090E-02
   11.5000  3.2930565E-02  5.2490793E-02  3.8222092E-02
   11.7500  3.3967727E-02  5.0067319E-02  3.9093975E-02
   12.0000  3.4820147E-02  4.7357873E-02  3.9703074E-02
   12.2500  3.5500345E-02  4.4549356E-02  4.0017868E-02
   12.5000  3.6027408E-02  4.1776006E-02  4.0041743E-02
   12.7500  3.6425482E-02  3.9125045E-02  3.9812522E-02
   13.0000  3.6722805E-02  3.6647790E-02  3.9392422E-02
   13.2500  3.6950232E-02  3.4370851E-02  3.8853348E-02
   13.5000  3.7138080E-02  3.2304728E-02  3.8263680E-02
   13.7500  3.7311803E-02  3.0449127E-02  3.7681152E-02
   14.0000  3.7489580E-02  2.8796452E-02  3.7150998E-02
   14.2500  3.7682937E-02  2.7334484E-02  3.6705941E-02
   14.5000  3.7898481E-02  2.6048458E-02  3.6366803E-02
   14.7500  3.8139128E-02  2.4922627E-02  3.6143718E-02
   15.0000  3.8404704E-02  2.3941403E-02  3.6037634E-02
   15.2500  3.8692239E-02  2.3090129E-02  3.6041735E-02
   15.5000  3.8996185E-02  2.2355535E-02  3.6142656E-02
   15.7500  3.9308652E-02  2.1725932E-02  3.6321545E-02
   16.0000  3.9619689E-02  2.1191221E-02  3.6555139E-02
   16.2500  3.9917714E-02  2.0742777E-02  3.6817041E-02
   16.5000  4.0190126E-02  2.0373265E-02  3.7079312E-02
   16.7500  4.0424146E-02  2.0076438E-02  3.7314417E-02
   17.0000  4.0607855E-02  1.9846933E-02  3.7497366E-02
   17.2500  4.0731315E-02  1.9680085E-02  3.7607799E-02
   17.5000  4.0787623E-02  1.9571770E-02  3.7631641E-02
   17.7500  4.0773721E-02  1.9518283E-02  3.7562031E-02
   18.0000  4.0690804E-02  1.9516239E-02  3.7399347E-02
   18.2500  4.0544239E-02  1.9562516E-02  3.7150368E-02
   18.5000  4.0343015E-02  1.9654220E-02  3.6826792E-02
   18.7500  4.0098803E-02  1.9788685E-02  3.6443427E-02
   19.0000  3.9824787E-02  1.9963494E-02  3.6016372E-02
   19.2500  3.9534410E-02  2.0176516E-02  3.5561413E-02
   19.5000  3.9240207E-02  2.0425954E-02  3.5092774E-02
   19.7500  3.8952860E-02  2.0710339E-02  3.4622338E-02
   20.0000  3.8680675E-02  2.1028384E-02  3.4159477E-02
   21.0000  3.7832217E-02  2.2605702E-02  3.2509922E-02
   22.0000  3.7340950E-02  2.4598111E-02  3.1311821E-02
   23.0000  3.6846441E-02  2.6906249E-02  3.0506851E-02
   24.0000  3.5883160E-02  2.9369328E-02  2.9937352E-02
   25.0000  3.4203032E-02  3.1738637E-02  2.9454431E-02
   26.0000  3.1950060E-02  3.3719837E-02  2.8952357E-02
   27.0000  2.9568688E-02  3.5075052E-02  2.8390345E-02
   28.0000  2.7506491E-02  3.5725857E-02  2.7801382E-02
   29.0000  2.5962054E-02  3.5773866E-02  2.7253178E-02
   30.0000  2.4928872E-02  3.5399097E-02  2.6812796E-02
   31.0000  2.4315037E-02  3.4769131E-02  2.6517918E-02
   32.0000  2.4010425E-02  3.4003177E-02  2.6363079E-02
   33.0000  2.3914662E-02  3.3169943E-02  2.6307197E-02
   34.0000  2.3944638E-02  3.2301503E-02  2.6290534E-02
   35.0000  2.4034462E-02  3.1410526E-02  2.6250180E-02
   36.0000  2.4134342E-02  3.0505201E-02  2.6132013E-02
   37.0000  2.4210190E-02  2.9600192E-02  2.5901912E-02
   38.0000  2.4244193E-02  2.8724474E-02  2.5558851E-02
   39.0000  2.4236634E-02  2.7928854E-02  2.5148922E-02
   40.0000  2.4206137E-02  2.7286941E-02  2.4766061E-02
