    Energy   (100,001)      (010,001)      (001,110)   
  -25.0000  1.7374395E-04  1.8714167E-04  1.8271848E-04
  -24.0000  1.7969705E-04  1.9413879E-04  1.8898570E-04
  -23.0000  1.8603520E-04  2.0163744E-04  1.9566375E-04
  -22.0000  1.9279611E-04  2.0969231E-04  2.0279364E-04
  -21.0000  2.0002252E-04  2.1836630E-04  2.1042197E-04
  -20.0000  2.0776307E-04  2.2773200E-04  2.1860195E-04
  -19.0000  2.1607340E-04  2.3787367E-04  2.2739460E-04
  -18.0000  2.2501740E-04  2.4888963E-04  2.3687021E-04
  -17.0000  2.3466885E-04  2.6089532E-04  2.4711023E-04
  -16.0000  2.4511338E-04  2.7402715E-04  2.5820953E-04
  -15.0000  2.5645098E-04  2.8844742E-04  2.7027930E-04
  -14.0000  2.6879918E-04  3.0435074E-04  2.8345078E-04
  -13.0000  2.8229707E-04  3.2197239E-04  2.9787997E-04
  -12.0000  2.9711059E-04  3.4159938E-04  3.1375385E-04
  -11.0000  3.1343935E-04  3.6358545E-04  3.3129850E-04
  -10.0000  3.3152587E-04  3.8837138E-04  3.5079010E-04
  -9.00000  3.5166792E-04  4.1651324E-04  3.7256979E-04
  -8.00000  3.7423565E-04  4.4872246E-04  3.9706433E-04
  -7.00000  3.9969565E-04  4.8592361E-04  4.2481546E-04
  -6.00000  4.2864563E-04  5.2934011E-04  4.5652245E-04
  -5.00000  4.6186600E-04  5.8062489E-04  4.9310588E-04
  -4.00000  5.0039901E-04  6.4206640E-04  5.3580624E-04
  -3.00000  5.4567549E-04  7.1692666E-04  5.8634313E-04
  -2.00000  5.9972832E-04  8.1002366E-04  6.4718506E-04
  -1.00000  6.6557597E-04  9.2879792E-04  7.2203702E-04
   0.00000  7.4797180E-04  1.0854262E-03  8.1679554E-04
   1.00000  8.5504361E-04  1.3014802E-03  9.4163446E-04
   2.00000  1.0025034E-03  1.6198699E-03  1.1163101E-03
   3.00000  1.2273798E-03  2.1433435E-03  1.3871124E-03
   4.00000  1.6530361E-03  3.2130685E-03  1.9045121E-03
   5.00000  2.8340071E-03  6.3470922E-03  3.3242849E-03
   5.20000  3.1940825E-03  7.3262177E-03  3.7639086E-03
   5.40000  3.5396316E-03  8.2871160E-03  4.2068550E-03
   5.60000  3.8569746E-03  9.1998018E-03  4.6508294E-03
   5.80000  4.1514913E-03  1.0079729E-02  5.1107805E-03
   6.00000  4.4353527E-03  1.0955946E-02  5.6018528E-03
   6.20000  4.7207078E-03  1.1856109E-02  6.1318358E-03
   6.40000  5.0176260E-03  1.2803713E-02  6.6998884E-03
   6.60000  5.3339901E-03  1.3819086E-02  7.2979519E-03
   6.80000  5.6760218E-03  1.4920863E-02  7.9138522E-03
   7.00000  6.0488822E-03  1.6127066E-02  8.5352120E-03
   7.20000  6.4571007E-03  1.7455729E-02  9.1527880E-03
   7.40000  6.9047618E-03  1.8925122E-02  9.7621964E-03
   7.60000  7.3954821E-03  2.0553539E-02  1.0363873E-02
   7.80000  7.9322076E-03  2.2358565E-02  1.0961651E-02
   8.00000  8.5168319E-03  2.4355806E-02  1.1560516E-02
   8.20000  9.1496574E-03  2.6556733E-02  1.2164318E-02
   8.40000  9.8287596E-03  2.8965352E-02  1.2774162E-02
   8.60000  1.0549374E-02  3.1573858E-02  1.3387826E-02
   8.80000  1.1303548E-02  3.4357880E-02  1.4000271E-02
   9.00000  1.2080419E-02  3.7272286E-02  1.4605098E-02
   9.20000  1.2867432E-02  4.0248800E-02  1.5196703E-02
   9.40000  1.3652473E-02  4.3196630E-02  1.5772569E-02
   9.60000  1.4426272E-02  4.6006969E-02  1.6334987E-02
   9.80000  1.5183999E-02  4.8561742E-02  1.6891474E-02
   10.0000  1.5925396E-02  5.0745672E-02  1.7453588E-02
   10.2500  1.6833995E-02  5.2805066E-02  1.8184523E-02
   10.5000  1.7730131E-02  5.4001372E-02  1.8970988E-02
   10.7500  1.8619458E-02  5.4297223E-02  1.9836365E-02
   11.0000  1.9502910E-02  5.3749393E-02  2.0798979E-02
   11.2500  2.0379020E-02  5.2483617E-02  2.1868186E-02
   11.5000  2.1249804E-02  5.0656316E-02  2.3040864E-02
   11.7500  2.2124414E-02  4.8423351E-02  2.4300022E-02
   12.0000  2.3012366E-02  4.5928552E-02  2.5615263E-02
   12.2500  2.3912471E-02  4.3304425E-02  2.6946865E-02
   12.5000  2.4811424E-02  4.0668564E-02  2.8252822E-02
   12.7500  2.5690084E-02  3.8116218E-02  2.9495607E-02
   13.0000  2.6529994E-02  3.5716088E-02  3.0646877E-02
   13.2500  2.7317969E-02  3.3510942E-02  3.1689913E-02
   13.5000  2.8048639E-02  3.1521539E-02  3.2620020E-02
   13.7500  2.8724899E-02  2.9752044E-02  3.3443288E-02
   14.0000  2.9356520E-02  2.8195478E-02  3.4174237E-02
   14.2500  2.9957625E-02  2.6838370E-02  3.4832928E-02
   14.5000  3.0543864E-02  2.5664230E-02  3.5442029E-02
   14.7500  3.1129982E-02  2.4655893E-02  3.6024147E-02
   15.0000  3.1728084E-02  2.3796890E-02  3.6599582E-02
   15.2500  3.2346638E-02  2.3072140E-02  3.7184532E-02
   15.5000  3.2990070E-02  2.2468195E-02  3.7789754E-02
   15.7500  3.3658786E-02  2.1973235E-02  3.8419656E-02
   16.0000  3.4349467E-02  2.1576935E-02  3.9071870E-02
   16.2500  3.5055547E-02  2.1270296E-02  3.9737331E-02
   16.5000  3.5767832E-02  2.1045455E-02  4.0400915E-02
   16.7500  3.6475257E-02  2.0895508E-02  4.1042671E-02
   17.0000  3.7165766E-02  2.0814351E-02  4.1639615E-02
   17.2500  3.7827291E-02  2.0796532E-02  4.2167957E-02
   17.5000  3.8448765E-02  2.0837131E-02  4.2605531E-02
   17.7500  3.9021077E-02  2.0931653E-02  4.2934104E-02
   18.0000  3.9537843E-02  2.1075945E-02  4.3141214E-02
   18.2500  3.9995887E-02  2.1266133E-02  4.3221265E-02
   18.5000  4.0395359E-02  2.1498576E-02  4.3175704E-02
   18.7500  4.0739474E-02  2.1769856E-02  4.3012333E-02
   19.0000  4.1033913E-02  2.2076787E-02  4.2743927E-02
   19.2500  4.1285990E-02  2.2416453E-02  4.2386428E-02
   19.5000  4.1503703E-02  2.2786263E-02  4.1957051E-02
   19.7500  4.1694793E-02  2.3183934E-02  4.1472667E-02
   20.0000  4.1865931E-02  2.3607277E-02  4.0948883E-02
   21.0000  4.2423672E-02  2.5498415E-02  3.8727584E-02
   22.0000  4.2749980E-02  2.7546260E-02  3.6711784E-02
   23.0000  4.2583452E-02  2.9534673E-02  3.5051117E-02
   24.0000  4.1674790E-02  3.1240999E-02  3.3670909E-02
   25.0000  3.9993071E-02  3.2482292E-02  3.2460437E-02
   26.0000  3.7728697E-02  3.3165346E-02  3.1347249E-02
   27.0000  3.5195160E-02  3.3304019E-02  3.0311055E-02
   28.0000  3.2716603E-02  3.2996913E-02  2.9372532E-02
   29.0000  3.0554662E-02  3.2391888E-02  2.8577081E-02
   30.0000  2.8864335E-02  3.1645764E-02  2.7968604E-02
   31.0000  2.7655215E-02  3.0868947E-02  2.7552921E-02
   32.0000  2.6858555E-02  3.0121490E-02  2.7304685E-02
   33.0000  2.6387030E-02  2.9427529E-02  2.7186158E-02
   34.0000  2.6152068E-02  2.8787241E-02  2.7157257E-02
   35.0000  2.6067314E-02  2.8190296E-02  2.7180523E-02
   36.0000  2.6048061E-02  2.7627502E-02  2.7222875E-02
   37.0000  2.6014697E-02  2.7096609E-02  2.7256661E-02
   38.0000  2.5908208E-02  2.6602715E-02  2.7262573E-02
   39.0000  2.5717889E-02  2.6160719E-02  2.7235805E-02
   40.0000  2.5499942E-02  2.5802039E-02  2.7192092E-02
