    Energy   (100,001)      (010,001)      (001,110)   
  -25.0000  1.6635443E-04  1.7797382E-04  1.7000990E-04
  -24.0000  1.7241389E-04  1.8496366E-04  1.7621682E-04
  -23.0000  1.7888270E-04  1.9247072E-04  1.8284726E-04
  -22.0000  1.8580225E-04  2.0055273E-04  1.8994468E-04
  -21.0000  1.9321958E-04  2.0927615E-04  1.9755855E-04
  -20.0000  2.0118845E-04  2.1871791E-04  2.0574553E-04
  -19.0000  2.0977046E-04  2.2896752E-04  2.1457074E-04
  -18.0000  2.1903665E-04  2.4012969E-04  2.2410940E-04
  -17.0000  2.2906927E-04  2.5232767E-04  2.3444892E-04
  -16.0000  2.3996413E-04  2.6570752E-04  2.4569139E-04
  -15.0000  2.5183349E-04  2.8044351E-04  2.5795685E-04
  -14.0000  2.6480972E-04  2.9674521E-04  2.7138740E-04
  -13.0000  2.7905008E-04  3.1486676E-04  2.8615251E-04
  -12.0000  2.9474280E-04  3.3511920E-04  3.0245598E-04
  -11.0000  3.1211514E-04  3.5788711E-04  3.2054516E-04
  -10.0000  3.3144419E-04  3.8365134E-04  3.4072335E-04
  -9.00000  3.5307131E-04  4.1302067E-04  3.6336673E-04
  -8.00000  3.7742231E-04  4.4677675E-04  3.8894805E-04
  -7.00000  4.0503553E-04  4.8593908E-04  4.1807034E-04
  -6.00000  4.3660260E-04  5.3186162E-04  4.5151635E-04
  -5.00000  4.7302853E-04  5.8638014E-04  4.9032305E-04
  -4.00000  5.1552383E-04  6.5204457E-04  5.3589828E-04
  -3.00000  5.6575103E-04  7.3249991E-04  5.9021142E-04
  -2.00000  6.2606937E-04  8.3314051E-04  6.5612244E-04
  -1.00000  6.9996975E-04  9.6230177E-04  7.3799011E-04
   0.00000  7.9291214E-04  1.1336003E-03  8.4290076E-04
   1.00000  9.1412509E-04  1.3710198E-03  9.8346533E-04
   2.00000  1.0811281E-03  1.7216851E-03  1.1853417E-03
   3.00000  1.3341448E-03  2.2959226E-03  1.5130951E-03
   4.00000  1.8029313E-03  3.4473143E-03  2.1994554E-03
   5.00000  3.0541154E-03  6.6949126E-03  4.3293510E-03
   5.20000  3.4305772E-03  7.7031028E-03  4.9644898E-03
   5.40000  3.7947183E-03  8.7096635E-03  5.5446991E-03
   5.60000  4.1367091E-03  9.6994910E-03  6.0485005E-03
   5.80000  4.4655079E-03  1.0700768E-02  6.4865780E-03
   6.00000  4.7953440E-03  1.1750279E-02  6.8706229E-03
   6.20000  5.1391153E-03  1.2878930E-02  7.2044077E-03
   6.40000  5.5069746E-03  1.4111039E-02  7.4895020E-03
   6.60000  5.9066950E-03  1.5467633E-02  7.7340853E-03
   6.80000  6.3444214E-03  1.6969750E-02  7.9577007E-03
   7.00000  6.8254516E-03  1.8640619E-02  8.1894562E-03
   7.20000  7.3548970E-03  2.0506683E-02  8.4620320E-03
   7.40000  7.9380194E-03  2.2597711E-02  8.8057335E-03
   7.60000  8.5800981E-03  2.4945991E-02  9.2449640E-03
   7.80000  9.2858135E-03  2.7584139E-02  9.7967975E-03
   8.00000  1.0058231E-02  3.0540993E-02  1.0470181E-02
   8.20000  1.0897573E-02  3.3835022E-02  1.1264680E-02
   8.40000  1.1800177E-02  3.7464934E-02  1.2168780E-02
   8.60000  1.2758282E-02  4.1398056E-02  1.3159076E-02
   8.80000  1.3761305E-02  4.5558493E-02  1.4202620E-02
   9.00000  1.4798647E-02  4.9817889E-02  1.5264224E-02
   9.20000  1.5862848E-02  5.3990972E-02  1.6317534E-02
   9.40000  1.6951107E-02  5.7837463E-02  1.7354804E-02
   9.60000  1.8063969E-02  6.1074646E-02  1.8389413E-02
   9.80000  1.9201966E-02  6.3409324E-02  1.9449324E-02
   10.0000  2.0362105E-02  6.4594045E-02  2.0565272E-02
   10.2500  2.1829670E-02  6.4267936E-02  2.2071573E-02
   10.5000  2.3289013E-02  6.2036906E-02  2.3708875E-02
   10.7500  2.4703322E-02  5.8348275E-02  2.5446312E-02
   11.0000  2.6034830E-02  5.3823627E-02  2.7219308E-02
   11.2500  2.7251421E-02  4.9048521E-02  2.8944830E-02
   11.5000  2.8332052E-02  4.4449677E-02  3.0540320E-02
   11.7500  2.9269633E-02  4.0273624E-02  3.1940863E-02
   12.0000  3.0071400E-02  3.6622301E-02  3.3109645E-02
   12.2500  3.0757305E-02  3.3503541E-02  3.4039623E-02
   12.5000  3.1356063E-02  3.0875970E-02  3.4749904E-02
   12.7500  3.1899876E-02  2.8680291E-02  3.5279254E-02
   13.0000  3.2419867E-02  2.6855360E-02  3.5677025E-02
   13.2500  3.2942956E-02  2.5344519E-02  3.5994435E-02
   13.5000  3.3489864E-02  2.4097932E-02  3.6278546E-02
   13.7500  3.4074010E-02  2.3073212E-02  3.6568661E-02
   14.0000  3.4701056E-02  2.2235115E-02  3.6894442E-02
   14.2500  3.5368893E-02  2.1554756E-02  3.7275267E-02
   14.5000  3.6068006E-02  2.1008650E-02  3.7720336E-02
   14.7500  3.6782219E-02  2.0577762E-02  3.8229211E-02
   15.0000  3.7489940E-02  2.0246654E-02  3.8792691E-02
   15.2500  3.8165969E-02  2.0002766E-02  3.9394043E-02
   15.5000  3.8783874E-02  1.9835840E-02  4.0010649E-02
   15.7500  3.9318795E-02  1.9737458E-02  4.0616048E-02
   16.0000  3.9750362E-02  1.9700677E-02  4.1182276E-02
   16.2500  4.0065278E-02  1.9719749E-02  4.1682318E-02
   16.5000  4.0259095E-02  1.9789893E-02  4.2092440E-02
   16.7500  4.0336793E-02  1.9907108E-02  4.2394154E-02
   17.0000  4.0312049E-02  2.0068013E-02  4.2575583E-02
   17.2500  4.0205364E-02  2.0269705E-02  4.2632090E-02
   17.5000  4.0041463E-02  2.0509629E-02  4.2566138E-02
   17.7500  3.9846475E-02  2.0785457E-02  4.2386440E-02
   18.0000  3.9645387E-02  2.1094992E-02  4.2106595E-02
   18.2500  3.9460059E-02  2.1436084E-02  4.1743445E-02
   18.5000  3.9307953E-02  2.1806571E-02  4.1315381E-02
   18.7500  3.9201561E-02  2.2204256E-02  4.0840812E-02
   19.0000  3.9148394E-02  2.2626923E-02  4.0336892E-02
   19.2500  3.9151397E-02  2.3072391E-02  3.9818578E-02
   19.5000  3.9209612E-02  2.3538600E-02  3.9298002E-02
   19.7500  3.9318873E-02  2.4023622E-02  3.8784209E-02
   20.0000  3.9472326E-02  2.4525468E-02  3.8283359E-02
   21.0000  4.0317810E-02  2.6640069E-02  3.6469417E-02
   22.0000  4.0970867E-02  2.8756283E-02  3.4963534E-02
   23.0000  4.0807238E-02  3.0656814E-02  3.3642707E-02
   24.0000  3.9537049E-02  3.2133501E-02  3.2398498E-02
   25.0000  3.7310453E-02  3.3035113E-02  3.1199841E-02
   26.0000  3.4606335E-02  3.3320860E-02  3.0083088E-02
   27.0000  3.1956250E-02  3.3069692E-02  2.9117854E-02
   28.0000  2.9723050E-02  3.2439922E-02  2.8362169E-02
   29.0000  2.8040274E-02  3.1605572E-02  2.7826485E-02
   30.0000  2.6851566E-02  3.0693771E-02  2.7462759E-02
   31.0000  2.6031464E-02  2.9776425E-02  2.7195755E-02
   32.0000  2.5462096E-02  2.8884318E-02  2.6953217E-02
   33.0000  2.5050093E-02  2.8021754E-02  2.6678251E-02
   34.0000  2.4722411E-02  2.7180930E-02  2.6332245E-02
   35.0000  2.4417811E-02  2.6352727E-02  2.5895090E-02
   36.0000  2.4082013E-02  2.5531550E-02  2.5365982E-02
   37.0000  2.3672549E-02  2.4717484E-02  2.4764409E-02
   38.0000  2.3176534E-02  2.3923369E-02  2.4129884E-02
   39.0000  2.2634808E-02  2.3189271E-02  2.3522304E-02
   40.0000  2.2145219E-02  2.2586905E-02  2.3018174E-02
