    Energy   (100,001)      (010,001)      (001,110)   
  -25.0000  1.6357946E-04  1.8550099E-04  1.6865797E-04
  -24.0000  1.6985063E-04  1.9247723E-04  1.7518923E-04
  -23.0000  1.7656444E-04  1.9995570E-04  1.8218913E-04
  -22.0000  1.8376738E-04  2.0799141E-04  1.8970786E-04
  -21.0000  1.9151257E-04  2.1664760E-04  1.9780291E-04
  -20.0000  1.9986091E-04  2.2599732E-04  2.0654039E-04
  -19.0000  2.0888258E-04  2.3612538E-04  2.1599672E-04
  -18.0000  2.1865884E-04  2.4713082E-04  2.2626063E-04
  -17.0000  2.2928428E-04  2.5912997E-04  2.3743579E-04
  -16.0000  2.4086966E-04  2.7226035E-04  2.4964401E-04
  -15.0000  2.5354547E-04  2.8668569E-04  2.6302938E-04
  -14.0000  2.6746649E-04  3.0260240E-04  2.7776350E-04
  -13.0000  2.8281767E-04  3.2024805E-04  2.9405235E-04
  -12.0000  2.9982184E-04  3.3991265E-04  3.1214529E-04
  -11.0000  3.1874980E-04  3.6195373E-04  3.3234697E-04
  -10.0000  3.3993401E-04  3.8681698E-04  3.5503348E-04
  -9.00000  3.6378705E-04  4.1506488E-04  3.8067445E-04
  -8.00000  3.9082736E-04  4.4741715E-04  4.0986393E-04
  -7.00000  4.2171558E-04  4.8480905E-04  4.4336443E-04
  -6.00000  4.5730708E-04  5.2847775E-04  4.8217115E-04
  -5.00000  4.9873008E-04  5.8009334E-04  5.2760833E-04
  -4.00000  5.4750527E-04  6.4196463E-04  5.8147837E-04
  -3.00000  6.0573604E-04  7.1737443E-04  6.4630158E-04
  -2.00000  6.7642468E-04  8.1115216E-04  7.2571988E-04
  -1.00000  7.6402832E-04  9.3070906E-04  8.2521648E-04
   0.00000  8.7550920E-04  1.0880534E-03  9.5349757E-04
   1.00000  1.0225192E-03  1.3041210E-03  1.1254211E-03
   2.00000  1.2266094E-03  1.6194866E-03  1.3691407E-03
   3.00000  1.5345414E-03  2.1272083E-03  1.7476803E-03
   4.00000  2.0816649E-03  3.1157487E-03  2.4511023E-03
   5.00000  3.4133625E-03  5.8061619E-03  4.2722891E-03
   5.20000  3.8378823E-03  6.6670804E-03  4.8577057E-03
   5.40000  4.2944929E-03  7.5616473E-03  5.4773553E-03
   5.60000  4.7810547E-03  8.4763475E-03  6.1237361E-03
   5.80000  5.3054928E-03  9.4274023E-03  6.8074885E-03
   6.00000  5.8779075E-03  1.0439668E-02  7.5454311E-03
   6.20000  6.5077897E-03  1.1536689E-02  8.3540280E-03
   6.40000  7.2043279E-03  1.2738713E-02  9.2464236E-03
   6.60000  7.9770271E-03  1.4063114E-02  1.0230185E-02
   6.80000  8.8354984E-03  1.5525047E-02  1.1305400E-02
   7.00000  9.7879842E-03  1.7137243E-02  1.2463775E-02
   7.20000  1.0838190E-02  1.8907779E-02  1.3689072E-02
   7.40000  1.1980119E-02  2.0835359E-02  1.4958929E-02
   7.60000  1.3191778E-02  2.2903965E-02  1.6248361E-02
   7.80000  1.4431393E-02  2.5081661E-02  1.7535410E-02
   8.00000  1.5642886E-02  2.7329537E-02  1.8808232E-02
   8.20000  1.6775513E-02  2.9622227E-02  2.0070853E-02
   8.40000  1.7811010E-02  3.1970013E-02  2.1344356E-02
   8.60000  1.8778753E-02  3.4424009E-02  2.2662468E-02
   8.80000  1.9744737E-02  3.7054889E-02  2.4063447E-02
   9.00000  2.0782524E-02  3.9916231E-02  2.5581047E-02
   9.20000  2.1946812E-02  4.3011942E-02  2.7236750E-02
   9.40000  2.3261720E-02  4.6277863E-02  2.9034772E-02
   9.60000  2.4722250E-02  4.9577125E-02  3.0960639E-02
   9.80000  2.6301842E-02  5.2707507E-02  3.2982619E-02
   10.0000  2.7959494E-02  5.5422858E-02  3.5053519E-02
   10.2500  3.0060391E-02  5.7854477E-02  3.7613801E-02
   10.5000  3.2076082E-02  5.8874742E-02  3.9996017E-02
   10.7500  3.3871968E-02  5.8354956E-02  4.2026674E-02
   11.0000  3.5333324E-02  5.6446887E-02  4.3552488E-02
   11.2500  3.6397048E-02  5.3508597E-02  4.4480778E-02
   11.5000  3.7066282E-02  4.9972011E-02  4.4801392E-02
   11.7500  3.7403727E-02  4.6225452E-02  4.4582348E-02
   12.0000  3.7508378E-02  4.2553806E-02  4.3942351E-02
   12.2500  3.7486735E-02  3.9132617E-02  4.3017414E-02
   12.5000  3.7431642E-02  3.6049410E-02  4.1935949E-02
   12.7500  3.7412577E-02  3.3331345E-02  4.0805332E-02
   13.0000  3.7474109E-02  3.0969440E-02  3.9707403E-02
   13.2500  3.7638498E-02  2.8936131E-02  3.8699191E-02
   13.5000  3.7909533E-02  2.7196626E-02  3.7815863E-02
   13.7500  3.8276474E-02  2.5715508E-02  3.7074740E-02
   14.0000  3.8717998E-02  2.4459897E-02  3.6480044E-02
   14.2500  3.9205950E-02  2.3400596E-02  3.6027220E-02
   14.5000  3.9708684E-02  2.2512319E-02  3.5705966E-02
   14.7500  4.0193975E-02  2.1773522E-02  3.5502115E-02
   15.0000  4.0631510E-02  2.1166038E-02  3.5398802E-02
   15.2500  4.0994887E-02  2.0674631E-02  3.5377278E-02
   15.5000  4.1263049E-02  2.0286529E-02  3.5417604E-02
   15.7500  4.1421115E-02  1.9990977E-02  3.5499395E-02
   16.0000  4.1460661E-02  1.9778821E-02  3.5602679E-02
   16.2500  4.1379569E-02  1.9642143E-02  3.5708870E-02
   16.5000  4.1181607E-02  1.9573959E-02  3.5801777E-02
   16.7500  4.0875837E-02  1.9567964E-02  3.5868530E-02
   17.0000  4.0475920E-02  1.9618355E-02  3.5900246E-02
   17.2500  3.9999294E-02  1.9719714E-02  3.5892316E-02
   17.5000  3.9466199E-02  1.9866962E-02  3.5844230E-02
   17.7500  3.8898527E-02  2.0055357E-02  3.5758974E-02
   18.0000  3.8318533E-02  2.0280538E-02  3.5642101E-02
   18.2500  3.7747527E-02  2.0538578E-02  3.5500652E-02
   18.5000  3.7204681E-02  2.0826037E-02  3.5342095E-02
   18.7500  3.6706092E-02  2.1140004E-02  3.5173433E-02
   19.0000  3.6264181E-02  2.1478120E-02  3.5000563E-02
   19.2500  3.5887433E-02  2.1838592E-02  3.4827896E-02
   19.5000  3.5580435E-02  2.2220187E-02  3.4658223E-02
   19.7500  3.5344094E-02  2.2622153E-02  3.4492785E-02
   20.0000  3.5175960E-02  2.3043972E-02  3.4331482E-02
   21.0000  3.5047047E-02  2.4908465E-02  3.3697129E-02
   22.0000  3.5304557E-02  2.6984562E-02  3.2977471E-02
   23.0000  3.5235659E-02  2.9143613E-02  3.2067598E-02
   24.0000  3.4347848E-02  3.1184858E-02  3.0958337E-02
   25.0000  3.2645398E-02  3.2851752E-02  2.9738150E-02
   26.0000  3.0556867E-02  3.3922825E-02  2.8540342E-02
   27.0000  2.8539041E-02  3.4343360E-02  2.7457141E-02
   28.0000  2.6850693E-02  3.4198766E-02  2.6526747E-02
   29.0000  2.5551714E-02  3.3640255E-02  2.5756087E-02
   30.0000  2.4587441E-02  3.2827956E-02  2.5132538E-02
   31.0000  2.3865080E-02  3.1893839E-02  2.4625755E-02
   32.0000  2.3293537E-02  3.0928691E-02  2.4192493E-02
   33.0000  2.2798513E-02  2.9987261E-02  2.3787254E-02
   34.0000  2.2328247E-02  2.9100517E-02  2.3372564E-02
   35.0000  2.1855320E-02  2.8286058E-02  2.2924231E-02
   36.0000  2.1374383E-02  2.7552626E-02  2.2433457E-02
   37.0000  2.0896172E-02  2.6899792E-02  2.1909675E-02
   38.0000  2.0441296E-02  2.6320129E-02  2.1383921E-02
   39.0000  2.0037238E-02  2.5813144E-02  2.0905943E-02
   40.0000  1.9714604E-02  2.5403525E-02  2.0526673E-02
