    Energy   (100,001)      (010,001)      (001,110)   
  -25.0000  1.7259943E-04  1.9457159E-04  1.8505568E-04
  -24.0000  1.7867505E-04  2.0165704E-04  1.9164337E-04
  -23.0000  1.8515225E-04  2.0924039E-04  1.9867865E-04
  -22.0000  1.9207106E-04  2.1737515E-04  2.0620771E-04
  -21.0000  1.9947693E-04  2.2612269E-04  2.1428330E-04
  -20.0000  2.0742170E-04  2.3555376E-04  2.2296585E-04
  -19.0000  2.1596476E-04  2.4575031E-04  2.3232496E-04
  -18.0000  2.2517446E-04  2.5680781E-04  2.4244120E-04
  -17.0000  2.3512989E-04  2.6883811E-04  2.5340832E-04
  -16.0000  2.4592305E-04  2.8197306E-04  2.6533609E-04
  -15.0000  2.5766159E-04  2.9636922E-04  2.7835385E-04
  -14.0000  2.7047237E-04  3.1221381E-04  2.9261508E-04
  -13.0000  2.8450585E-04  3.2973260E-04  3.0830327E-04
  -12.0000  2.9994203E-04  3.4920019E-04  3.2563970E-04
  -11.0000  3.1699799E-04  3.7095394E-04  3.4489367E-04
  -10.0000  3.3593819E-04  3.9541280E-04  3.6639634E-04
  -9.00000  3.5708832E-04  4.2310329E-04  3.9055970E-04
  -8.00000  3.8085442E-04  4.5469619E-04  4.1790301E-04
  -7.00000  4.0774993E-04  4.9105919E-04  4.4909058E-04
  -6.00000  4.3843483E-04  5.3333444E-04  4.8498699E-04
  -5.00000  4.7377381E-04  5.8305591E-04  5.2674016E-04
  -4.00000  5.1492614E-04  6.4233310E-04  5.7591085E-04
  -3.00000  5.6348997E-04  7.1414969E-04  6.3468276E-04
  -2.00000  6.2174696E-04  8.0287324E-04  7.0622148E-04
  -1.00000  6.9310487E-04  9.1517850E-04  7.9532812E-04
   0.00000  7.8297159E-04  1.0618557E-03  9.0973399E-04
   1.00000  9.0069557E-04  1.2617457E-03  1.0629741E-03
   2.00000  1.0646529E-03  1.5516962E-03  1.2818877E-03
   3.00000  1.3193161E-03  2.0182401E-03  1.6316332E-03
   4.00000  1.8188990E-03  2.9428331E-03  2.3379937E-03
   5.00000  3.2708519E-03  5.5654158E-03  4.4046803E-03
   5.20000  3.7028525E-03  6.3867987E-03  4.9872349E-03
   5.40000  4.0989619E-03  7.2022768E-03  5.5003338E-03
   5.60000  4.4410073E-03  7.9855937E-03  5.9379111E-03
   5.80000  4.7373553E-03  8.7442185E-03  6.3348114E-03
   6.00000  5.0047926E-03  9.4962041E-03  6.7323311E-03
   6.20000  5.2593198E-03  1.0260183E-02  7.1646094E-03
   6.40000  5.5138847E-03  1.1054104E-02  7.6568757E-03
   6.60000  5.7786809E-03  1.1896218E-02  8.2259217E-03
   6.80000  6.0621143E-03  1.2805993E-02  8.8800234E-03
   7.00000  6.3717573E-03  1.3804396E-02  9.6189306E-03
   7.20000  6.7149656E-03  1.4913428E-02  1.0435553E-02
   7.40000  7.0989925E-03  1.6155003E-02  1.1320185E-02
   7.60000  7.5306564E-03  1.7549660E-02  1.2266032E-02
   7.80000  8.0158561E-03  1.9115672E-02  1.3273157E-02
   8.00000  8.5592971E-03  2.0868601E-02  1.4348609E-02
   8.20000  9.1645445E-03  2.2820847E-02  1.5502679E-02
   8.40000  9.8342459E-03  2.4980732E-02  1.6743154E-02
   8.60000  1.0570386E-02  2.7350950E-02  1.8070035E-02
   8.80000  1.1374567E-02  2.9926482E-02  1.9472442E-02
   9.00000  1.2248371E-02  3.2692214E-02  2.0928287E-02
   9.20000  1.3193828E-02  3.5620453E-02  2.2406451E-02
   9.40000  1.4213886E-02  3.8668496E-02  2.3870687E-02
   9.60000  1.5312667E-02  4.1776582E-02  2.5284236E-02
   9.80000  1.6495147E-02  4.4866877E-02  2.6614235E-02
   10.0000  1.7765868E-02  4.7844222E-02  2.7835242E-02
   10.2500  1.9480182E-02  5.1239589E-02  2.9185427E-02
   10.5000  2.1322477E-02  5.4059980E-02  3.0336742E-02
   10.7500  2.3254877E-02  5.6094966E-02  3.1315418E-02
   11.0000  2.5205826E-02  5.7189617E-02  3.2173357E-02
   11.2500  2.7072021E-02  5.7278338E-02  3.2968157E-02
   11.5000  2.8735414E-02  5.6401335E-02  3.3737259E-02
   11.7500  3.0091408E-02  5.4692884E-02  3.4485221E-02
   12.0000  3.1075846E-02  5.2346215E-02  3.5189418E-02
   12.2500  3.1681118E-02  4.9573201E-02  3.5815786E-02
   12.5000  3.1956484E-02  4.6574377E-02  3.6333735E-02
   12.7500  3.1991135E-02  4.3521294E-02  3.6725628E-02
   13.0000  3.1888189E-02  4.0547780E-02  3.6989273E-02
   13.2500  3.1742140E-02  3.7747629E-02  3.7135578E-02
   13.5000  3.1626205E-02  3.5177859E-02  3.7185657E-02
   13.7500  3.1588919E-02  3.2865763E-02  3.7167558E-02
   14.0000  3.1656438E-02  3.0817064E-02  3.7111968E-02
   14.2500  3.1837183E-02  2.9023268E-02  3.7047824E-02
   14.5000  3.2126756E-02  2.7467450E-02  3.6998935E-02
   14.7500  3.2512166E-02  2.6128427E-02  3.6982001E-02
   15.0000  3.2975147E-02  2.4983589E-02  3.7005928E-02
   15.2500  3.3494659E-02  2.4010692E-02  3.7072157E-02
   15.5000  3.4048794E-02  2.3188912E-02  3.7175690E-02
   15.7500  3.4616308E-02  2.2499402E-02  3.7306565E-02
   16.0000  3.5177900E-02  2.1925504E-02  3.7451535E-02
   16.2500  3.5717283E-02  2.1452754E-02  3.7595776E-02
   16.5000  3.6221999E-02  2.1068742E-02  3.7724482E-02
   16.7500  3.6683909E-02  2.0762907E-02  3.7824221E-02
   17.0000  3.7099304E-02  2.0526300E-02  3.7883992E-02
   17.2500  3.7468605E-02  2.0351347E-02  3.7895907E-02
   17.5000  3.7795709E-02  2.0231641E-02  3.7855525E-02
   17.7500  3.8087057E-02  2.0161749E-02  3.7761824E-02
   18.0000  3.8350575E-02  2.0137069E-02  3.7616878E-02
   18.2500  3.8594609E-02  2.0153711E-02  3.7425308E-02
   18.5000  3.8826998E-02  2.0208411E-02  3.7193586E-02
   18.7500  3.9054350E-02  2.0298470E-02  3.6929290E-02
   19.0000  3.9281604E-02  2.0421712E-02  3.6640381E-02
   19.2500  3.9511853E-02  2.0576472E-02  3.6334561E-02
   19.5000  3.9746423E-02  2.0761577E-02  3.6018750E-02
   19.7500  3.9985077E-02  2.0976303E-02  3.5698760E-02
   20.0000  4.0226205E-02  2.1220225E-02  3.5379258E-02
   21.0000  4.1143192E-02  2.2479154E-02  3.4175053E-02
   22.0000  4.1779895E-02  2.4172390E-02  3.3174167E-02
   23.0000  4.1906355E-02  2.6249738E-02  3.2368924E-02
   24.0000  4.1330674E-02  2.8570100E-02  3.1686977E-02
   25.0000  3.9931169E-02  3.0888318E-02  3.1047968E-02
   26.0000  3.7771108E-02  3.2913159E-02  3.0400770E-02
   27.0000  3.5149401E-02  3.4413814E-02  2.9744476E-02
   28.0000  3.2483296E-02  3.5305317E-02  2.9118020E-02
   29.0000  3.0122696E-02  3.5650735E-02  2.8567545E-02
   30.0000  2.8248856E-02  3.5590846E-02  2.8122467E-02
   31.0000  2.6888212E-02  3.5266103E-02  2.7794170E-02
   32.0000  2.5969007E-02  3.4784700E-02  2.7581470E-02
   33.0000  2.5374932E-02  3.4218451E-02  2.7467971E-02
   34.0000  2.4998593E-02  3.3585543E-02  2.7417479E-02
   35.0000  2.4756974E-02  3.2877133E-02  2.7384534E-02
   36.0000  2.4588004E-02  3.2086713E-02  2.7326286E-02
   37.0000  2.4447530E-02  3.1223147E-02  2.7211160E-02
   38.0000  2.4308409E-02  3.0321407E-02  2.7028316E-02
   39.0000  2.4163198E-02  2.9454710E-02  2.6798349E-02
   40.0000  2.4027053E-02  2.8733978E-02  2.6576601E-02
