    Energy   (100,001)      (010,001)      (001,110)   
  -25.0000  1.7508469E-04  1.8025356E-04  1.7996305E-04
  -24.0000  1.8153561E-04  1.8718347E-04  1.8664855E-04
  -23.0000  1.8843412E-04  1.9461708E-04  1.9380487E-04
  -22.0000  1.9582700E-04  2.0260974E-04  2.0148211E-04
  -21.0000  2.0376769E-04  2.1122506E-04  2.0973766E-04
  -20.0000  2.1231749E-04  2.2053656E-04  2.1863752E-04
  -19.0000  2.2154703E-04  2.3062954E-04  2.2825795E-04
  -18.0000  2.3153815E-04  2.4160366E-04  2.3868761E-04
  -17.0000  2.4238616E-04  2.5357590E-04  2.5003006E-04
  -16.0000  2.5420271E-04  2.6668458E-04  2.6240707E-04
  -15.0000  2.6711944E-04  2.8109433E-04  2.7596280E-04
  -14.0000  2.8129263E-04  2.9700255E-04  2.9086907E-04
  -13.0000  2.9690922E-04  3.1464799E-04  3.0733240E-04
  -12.0000  3.1419470E-04  3.3432192E-04  3.2560313E-04
  -11.0000  3.3342350E-04  3.5638328E-04  3.4598764E-04
  -10.0000  3.5493310E-04  3.8127928E-04  3.6886500E-04
  -9.00000  3.7914317E-04  4.0957395E-04  3.9470976E-04
  -8.00000  4.0658229E-04  4.4198841E-04  4.2412413E-04
  -7.00000  4.3792591E-04  4.7945902E-04  4.5788405E-04
  -6.00000  4.7405161E-04  5.2322316E-04  4.9700705E-04
  -5.00000  5.1612170E-04  5.7494947E-04  5.4285488E-04
  -4.00000  5.6571101E-04  6.3694195E-04  5.9729421E-04
  -3.00000  6.2501215E-04  7.1247251E-04  6.6295823E-04
  -2.00000  6.9718184E-04  8.0634813E-04  7.4369375E-04
  -1.00000  7.8696132E-04  9.2593643E-04  8.4537222E-04
   0.00000  9.0187881E-04  1.0831636E-03  9.7747845E-04
   1.00000  1.0548420E-03  1.2988187E-03  1.1565555E-03
   2.00000  1.2706429E-03  1.6132572E-03  1.4148206E-03
   3.00000  1.6065083E-03  2.1195439E-03  1.8268686E-03
   4.00000  2.2457627E-03  3.1098491E-03  2.6264151E-03
   5.00000  3.9881651E-03  5.8375879E-03  4.8160912E-03
   5.20000  4.5281302E-03  6.7079495E-03  5.5293046E-03
   5.40000  5.0636558E-03  7.6026472E-03  6.2812133E-03
   5.60000  5.5794275E-03  8.5019707E-03  7.0611056E-03
   5.80000  6.0849716E-03  9.4159945E-03  7.8811750E-03
   6.00000  6.5984643E-03  1.0363119E-02  8.7609195E-03
   6.20000  7.1381644E-03  1.1360842E-02  9.7196097E-03
   6.40000  7.7197979E-03  1.2425071E-02  1.0774268E-02
   6.60000  8.3557622E-03  1.3571686E-02  1.1938545E-02
   6.80000  9.0545445E-03  1.4817858E-02  1.3220692E-02
   7.00000  9.8201726E-03  1.6182432E-02  1.4620065E-02
   7.20000  1.0652053E-02  1.7685505E-02  1.6121245E-02
   7.40000  1.1545718E-02  1.9347968E-02  1.7685106E-02
   7.60000  1.2494802E-02  2.1191259E-02  1.9239886E-02
   7.80000  1.3494265E-02  2.3236671E-02  2.0683239E-02
   8.00000  1.4544355E-02  2.5504047E-02  2.1908632E-02
   8.20000  1.5653403E-02  2.8009891E-02  2.2851481E-02
   8.40000  1.6836911E-02  3.0764626E-02  2.3523840E-02
   8.60000  1.8112523E-02  3.3768538E-02  2.4008887E-02
   8.80000  1.9493526E-02  3.7006037E-02  2.4422040E-02
   9.00000  2.0983819E-02  4.0438157E-02  2.4869620E-02
   9.20000  2.2575422E-02  4.3994300E-02  2.5426012E-02
   9.40000  2.4248290E-02  4.7565713E-02  2.6129551E-02
   9.60000  2.5972251E-02  5.1004626E-02  2.6988265E-02
   9.80000  2.7711148E-02  5.4132819E-02  2.7988053E-02
   10.0000  2.9428538E-02  5.6760650E-02  2.9099743E-02
   10.2500  3.1496193E-02  5.9079563E-02  3.0587421E-02
   10.5000  3.3424302E-02  6.0108144E-02  3.2106927E-02
   10.7500  3.5154932E-02  5.9775396E-02  3.3581746E-02
   11.0000  3.6622151E-02  5.8187994E-02  3.4947777E-02
   11.2500  3.7762863E-02  5.5590621E-02  3.6154553E-02
   11.5000  3.8543008E-02  5.2304697E-02  3.7167447E-02
   11.7500  3.8979845E-02  4.8663855E-02  3.7968378E-02
   12.0000  3.9139639E-02  4.4958235E-02  3.8553083E-02
   12.2500  3.9114022E-02  4.1401811E-02  3.8928127E-02
   12.5000  3.8994191E-02  3.8126847E-02  3.9111585E-02
   12.7500  3.8853935E-02  3.5196935E-02  3.9134060E-02
   13.0000  3.8742294E-02  3.2627203E-02  3.9035608E-02
   13.2500  3.8683608E-02  3.0403512E-02  3.8859713E-02
   13.5000  3.8682175E-02  2.8496836E-02  3.8647811E-02
   13.7500  3.8728544E-02  2.6872522E-02  3.8435509E-02
   14.0000  3.8805412E-02  2.5495618E-02  3.8250280E-02
   14.2500  3.8892309E-02  2.4333598E-02  3.8110457E-02
   14.5000  3.8968942E-02  2.3357523E-02  3.8025317E-02
   14.7500  3.9017342E-02  2.2542334E-02  3.7995899E-02
   15.0000  3.9023025E-02  2.1866699E-02  3.8016244E-02
   15.2500  3.8975418E-02  2.1312674E-02  3.8074854E-02
   15.5000  3.8867812E-02  2.0865280E-02  3.8156281E-02
   15.7500  3.8697049E-02  2.0512083E-02  3.8242811E-02
   16.0000  3.8463093E-02  2.0242782E-02  3.8316214E-02
   16.2500  3.8168621E-02  2.0048842E-02  3.8359442E-02
   16.5000  3.7818674E-02  1.9923160E-02  3.8358153E-02
   16.7500  3.7420380E-02  1.9859782E-02  3.8301881E-02
   17.0000  3.6982704E-02  1.9853661E-02  3.8184696E-02
   17.2500  3.6516157E-02  1.9900460E-02  3.8005297E-02
   17.5000  3.6032413E-02  1.9996387E-02  3.7766568E-02
   17.7500  3.5543811E-02  2.0138072E-02  3.7474740E-02
   18.0000  3.5062751E-02  2.0322457E-02  3.7138336E-02
   18.2500  3.4601054E-02  2.0546724E-02  3.6767099E-02
   18.5000  3.4169346E-02  2.0808240E-02  3.6371042E-02
   18.7500  3.3776551E-02  2.1104525E-02  3.5959699E-02
   19.0000  3.3429543E-02  2.1433258E-02  3.5541592E-02
   19.2500  3.3132968E-02  2.1792304E-02  3.5123892E-02
   19.5000  3.2889238E-02  2.2179764E-02  3.4712230E-02
   19.7500  3.2698628E-02  2.2593963E-02  3.4310662E-02
   20.0000  3.2559455E-02  2.3033252E-02  3.3921867E-02
   21.0000  3.2432093E-02  2.4992154E-02  3.2522673E-02
   22.0000  3.2694448E-02  2.7138979E-02  3.1371941E-02
   23.0000  3.2875037E-02  2.9293647E-02  3.0370846E-02
   24.0000  3.2587041E-02  3.1257796E-02  2.9399465E-02
   25.0000  3.1743554E-02  3.2843943E-02  2.8393754E-02
   26.0000  3.0565980E-02  3.3919480E-02  2.7371723E-02
   27.0000  2.9337793E-02  3.4430278E-02  2.6413611E-02
   28.0000  2.8203892E-02  3.4405187E-02  2.5615674E-02
   29.0000  2.7205716E-02  3.3952533E-02  2.5045543E-02
   30.0000  2.6374254E-02  3.3227175E-02  2.4717456E-02
   31.0000  2.5726402E-02  3.2360372E-02  2.4591856E-02
   32.0000  2.5248586E-02  3.1434231E-02  2.4600783E-02
   33.0000  2.4903562E-02  3.0487696E-02  2.4671495E-02
   34.0000  2.4645842E-02  2.9529922E-02  2.4740732E-02
   35.0000  2.4433706E-02  2.8555951E-02  2.4763925E-02
   36.0000  2.4234502E-02  2.7561281E-02  2.4719805E-02
   37.0000  2.4026443E-02  2.6553957E-02  2.4608544E-02
   38.0000  2.3801344E-02  2.5564542E-02  2.4445681E-02
   39.0000  2.3570226E-02  2.4654981E-02  2.4259335E-02
   40.0000  2.3365549E-02  2.3915714E-02  2.4089908E-02
