    Energy   (100,001)      (010,001)      (001,110)   
  -25.0000  1.6913247E-04  1.8743862E-04  1.7564677E-04
  -24.0000  1.7529479E-04  1.9432522E-04  1.8196923E-04
  -23.0000  1.8187956E-04  2.0169720E-04  1.8872308E-04
  -22.0000  1.8893049E-04  2.0960674E-04  1.9595281E-04
  -21.0000  1.9649745E-04  2.1811364E-04  2.0370919E-04
  -20.0000  2.0463757E-04  2.2728685E-04  2.1205039E-04
  -19.0000  2.1341665E-04  2.3720622E-04  2.2104331E-04
  -18.0000  2.2291084E-04  2.4796473E-04  2.3076536E-04
  -17.0000  2.3320872E-04  2.5967129E-04  2.4130655E-04
  -16.0000  2.4441400E-04  2.7245429E-04  2.5277213E-04
  -15.0000  2.5664882E-04  2.8646609E-04  2.6528598E-04
  -14.0000  2.7005808E-04  3.0188886E-04  2.7899487E-04
  -13.0000  2.8481496E-04  3.1894218E-04  2.9407403E-04
  -12.0000  3.0112820E-04  3.3789310E-04  3.1073431E-04
  -11.0000  3.1925174E-04  3.5906954E-04  3.2923177E-04
  -10.0000  3.3949768E-04  3.8287857E-04  3.4988044E-04
  -9.00000  3.6225405E-04  4.0983165E-04  3.7306972E-04
  -8.00000  3.8800958E-04  4.4058011E-04  3.9928855E-04
  -7.00000  4.1738896E-04  4.7596620E-04  4.2915949E-04
  -6.00000  4.5120429E-04  5.1709822E-04  4.6348813E-04
  -5.00000  4.9053238E-04  5.6546432E-04  5.0333647E-04
  -4.00000  5.3683455E-04  6.2311061E-04  5.5013540E-04
  -3.00000  5.9215022E-04  6.9293108E-04  6.0586386E-04
  -2.00000  6.5942508E-04  7.7916310E-04  6.7334719E-04
  -1.00000  7.4310267E-04  8.8828725E-04  7.5678381E-04
   0.00000  8.5027897E-04  1.0307966E-03  8.6274699E-04
   1.00000  9.9321026E-04  1.2250727E-03  1.0022955E-03
   2.00000  1.1956545E-03  1.5072951E-03  1.1961277E-03
   3.00000  1.5130479E-03  1.9635141E-03  1.4904054E-03
   4.00000  2.1249337E-03  2.8803747E-03  2.0272816E-03
   5.00000  3.8213940E-03  5.5363513E-03  3.4008045E-03
   5.20000  4.3519129E-03  6.3456375E-03  3.8102618E-03
   5.40000  4.8808019E-03  7.1137756E-03  4.2120555E-03
   5.60000  5.3914740E-03  7.8090438E-03  4.5993685E-03
   5.80000  5.8890830E-03  8.4464421E-03  4.9842514E-03
   6.00000  6.3864910E-03  9.0600825E-03  5.3844324E-03
   6.20000  6.8975660E-03  9.6863887E-03  5.8176253E-03
   6.40000  7.4352396E-03  1.0357219E-02  6.3004434E-03
   6.60000  8.0110606E-03  1.1098251E-02  6.8486206E-03
   6.80000  8.6353202E-03  1.1930041E-02  7.4774940E-03
   7.00000  9.3173853E-03  1.2869954E-02  8.2023907E-03
   7.20000  1.0065948E-02  1.3933878E-02  9.0386241E-03
   7.40000  1.0889059E-02  1.5137311E-02  1.0000895E-02
   7.60000  1.1793921E-02  1.6495824E-02  1.1101996E-02
   7.80000  1.2786515E-02  1.8025015E-02  1.2350853E-02
   8.00000  1.3871036E-02  1.9740029E-02  1.3749930E-02
   8.20000  1.5049069E-02  2.1654727E-02  1.5292228E-02
   8.40000  1.6318563E-02  2.3780598E-02  1.6958636E-02
   8.60000  1.7672751E-02  2.6125556E-02  1.8716916E-02
   8.80000  1.9099108E-02  2.8692468E-02  2.0523439E-02
   9.00000  2.0578372E-02  3.1477003E-02  2.2327947E-02
   9.20000  2.2083759E-02  3.4464265E-02  2.4080047E-02
   9.40000  2.3580718E-02  3.7623885E-02  2.5735058E-02
   9.60000  2.5027884E-02  4.0903983E-02  2.7257093E-02
   9.80000  2.6379993E-02  4.4225413E-02  2.8619215E-02
   10.0000  2.7593090E-02  4.7478402E-02  2.9802383E-02
   10.2500  2.8860014E-02  5.1234374E-02  3.1013009E-02
   10.5000  2.9813737E-02  5.4353413E-02  3.1923867E-02
   10.7500  3.0455868E-02  5.6534079E-02  3.2557735E-02
   11.0000  3.0829766E-02  5.7556493E-02  3.2961233E-02
   11.2500  3.1008288E-02  5.7342195E-02  3.3194132E-02
   11.5000  3.1073735E-02  5.5975661E-02  3.3314953E-02
   11.7500  3.1098631E-02  5.3676281E-02  3.3369803E-02
   12.0000  3.1134002E-02  5.0735118E-02  3.3388191E-02
   12.2500  3.1207499E-02  4.7446572E-02  3.3385734E-02
   12.5000  3.1328797E-02  4.4060099E-02  3.3370123E-02
   12.7500  3.1496947E-02  4.0760797E-02  3.3347200E-02
   13.0000  3.1706567E-02  3.7670928E-02  3.3325387E-02
   13.2500  3.1952061E-02  3.4860267E-02  3.3317223E-02
   13.5000  3.2229566E-02  3.2358710E-02  3.3338166E-02
   13.7500  3.2536913E-02  3.0168520E-02  3.3404001E-02
   14.0000  3.2872365E-02  2.8274799E-02  3.3528266E-02
   14.2500  3.3232825E-02  2.6653470E-02  3.3720415E-02
   14.5000  3.3612056E-02  2.5276692E-02  3.3984844E-02
   14.7500  3.3999680E-02  2.4116229E-02  3.4320607E-02
   15.0000  3.4381492E-02  2.3145451E-02  3.4721564E-02
   15.2500  3.4740767E-02  2.2340386E-02  3.5176772E-02
   15.5000  3.5059987E-02  2.1680080E-02  3.5671073E-02
   15.7500  3.5322661E-02  2.1146520E-02  3.6185916E-02
   16.0000  3.5515072E-02  2.0724356E-02  3.6700476E-02
   16.2500  3.5627735E-02  2.0400553E-02  3.7193052E-02
   16.5000  3.5656389E-02  2.0164040E-02  3.7642682E-02
   16.7500  3.5602400E-02  2.0005403E-02  3.8030768E-02
   17.0000  3.5472517E-02  1.9916622E-02  3.8342511E-02
   17.2500  3.5278090E-02  1.9890841E-02  3.8567919E-02
   17.5000  3.5033874E-02  1.9922195E-02  3.8702263E-02
   17.7500  3.4756647E-02  2.0005651E-02  3.8745933E-02
   18.0000  3.4463830E-02  2.0136892E-02  3.8703789E-02
   18.2500  3.4172269E-02  2.0312212E-02  3.8584160E-02
   18.5000  3.3897279E-02  2.0528442E-02  3.8397686E-02
   18.7500  3.3651993E-02  2.0782883E-02  3.8156173E-02
   19.0000  3.3446986E-02  2.1073277E-02  3.7871592E-02
   19.2500  3.3290129E-02  2.1397779E-02  3.7555261E-02
   19.5000  3.3186617E-02  2.1754952E-02  3.7217239E-02
   19.7500  3.3139066E-02  2.2143682E-02  3.6865982E-02
   20.0000  3.3147645E-02  2.2562930E-02  3.6508353E-02
   21.0000  3.3676260E-02  2.4508059E-02  3.5116069E-02
   22.0000  3.4698754E-02  2.6761702E-02  3.3910556E-02
   23.0000  3.5694657E-02  2.9120718E-02  3.2876034E-02
   24.0000  3.6161531E-02  3.1327032E-02  3.1901144E-02
   25.0000  3.5800880E-02  3.3127660E-02  3.0885596E-02
   26.0000  3.4614328E-02  3.4349393E-02  2.9795984E-02
   27.0000  3.2868463E-02  3.4945469E-02  2.8679415E-02
   28.0000  3.0938901E-02  3.4991285E-02  2.7632920E-02
   29.0000  2.9131942E-02  3.4634723E-02  2.6744505E-02
   30.0000  2.7603292E-02  3.4034794E-02  2.6052081E-02
   31.0000  2.6384052E-02  3.3318655E-02  2.5544793E-02
   32.0000  2.5441565E-02  3.2564392E-02  2.5186598E-02
   33.0000  2.4722918E-02  3.1804702E-02  2.4935435E-02
   34.0000  2.4171402E-02  3.1050848E-02  2.4750281E-02
   35.0000  2.3734672E-02  3.0309954E-02  2.4596569E-02
   36.0000  2.3380214E-02  2.9571058E-02  2.4458501E-02
   37.0000  2.3093508E-02  2.8823622E-02  2.4337968E-02
   38.0000  2.2869424E-02  2.8079490E-02  2.4246223E-02
   39.0000  2.2703925E-02  2.7382359E-02  2.4191486E-02
   40.0000  2.2586858E-02  2.6807292E-02  2.4165651E-02
