    Energy   (100,001)      (010,001)      (001,110)   
  -25.0000  1.7046413E-04  1.8516433E-04  1.7227670E-04
  -24.0000  1.7693579E-04  1.9194472E-04  1.7887428E-04
  -23.0000  1.8386461E-04  1.9920164E-04  1.8594321E-04
  -22.0000  1.9129890E-04  2.0698616E-04  1.9353388E-04
  -21.0000  1.9929389E-04  2.1535683E-04  2.0170398E-04
  -20.0000  2.0791298E-04  2.2438110E-04  2.1051983E-04
  -19.0000  2.1722929E-04  2.3413708E-04  2.2005804E-04
  -18.0000  2.2732762E-04  2.4471567E-04  2.3040758E-04
  -17.0000  2.3830677E-04  2.5622332E-04  2.4167233E-04
  -16.0000  2.5028262E-04  2.6878541E-04  2.5397428E-04
  -15.0000  2.6339186E-04  2.8255070E-04  2.6745764E-04
  -14.0000  2.7779689E-04  2.9769693E-04  2.8229404E-04
  -13.0000  2.9369207E-04  3.1443820E-04  2.9868936E-04
  -12.0000  3.1131197E-04  3.3303468E-04  3.1689252E-04
  -11.0000  3.3094219E-04  3.5380561E-04  3.3720734E-04
  -10.0000  3.5293400E-04  3.7714687E-04  3.6000831E-04
  -9.00000  3.7772422E-04  4.0355534E-04  3.8576225E-04
  -8.00000  4.0586287E-04  4.3366292E-04  4.1505842E-04
  -7.00000  4.3805228E-04  4.6828547E-04  4.4865117E-04
  -6.00000  4.7520377E-04  5.0849451E-04  4.8752178E-04
  -5.00000  5.1852182E-04  5.5572544E-04  5.3297057E-04
  -4.00000  5.6963312E-04  6.1194589E-04  5.8675794E-04
  -3.00000  6.3079149E-04  6.7992802E-04  6.5132843E-04
  -2.00000  7.0521801E-04  7.6370953E-04  7.3018223E-04
  -1.00000  7.9769699E-04  8.6942055E-04  8.2852429E-04
   0.00000  9.1569586E-04  1.0068821E-03  9.5447863E-04
   1.00000  1.0716762E-03  1.1930247E-03  1.1215756E-03
   2.00000  1.2885413E-03  1.4603377E-03  1.3545487E-03
   3.00000  1.6153946E-03  1.8829536E-03  1.7058139E-03
   4.00000  2.1915348E-03  2.6920939E-03  2.3207376E-03
   5.00000  3.5661365E-03  4.8727256E-03  3.7649064E-03
   5.20000  4.0015861E-03  5.5557060E-03  4.2295894E-03
   5.40000  4.4716768E-03  6.2482952E-03  4.7398042E-03
   5.60000  4.9765176E-03  6.9353331E-03  5.2940551E-03
   5.80000  5.5269918E-03  7.6285025E-03  5.9000427E-03
   6.00000  6.1361896E-03  8.3484140E-03  6.5679311E-03
   6.20000  6.8157911E-03  9.1163558E-03  7.3070400E-03
   6.40000  7.5758454E-03  9.9526979E-03  8.1251740E-03
   6.60000  8.4254562E-03  1.0876993E-02  9.0289407E-03
   6.80000  9.3732577E-03  1.1907937E-02  1.0024485E-02
   7.00000  1.0427172E-02  1.3062752E-02  1.1118383E-02
   7.20000  1.1592846E-02  1.4355863E-02  1.2318037E-02
   7.40000  1.2869947E-02  1.5796359E-02  1.3630654E-02
   7.60000  1.4246014E-02  1.7383435E-02  1.5060852E-02
   7.80000  1.5690191E-02  1.9100392E-02  1.6609147E-02
   8.00000  1.7153556E-02  2.0912035E-02  1.8274609E-02
   8.20000  1.8583670E-02  2.2773854E-02  2.0061086E-02
   8.40000  1.9950468E-02  2.4655058E-02  2.1980460E-02
   8.60000  2.1265265E-02  2.6561954E-02  2.4047255E-02
   8.80000  2.2576640E-02  2.8542910E-02  2.6266739E-02
   9.00000  2.3946925E-02  3.0670785E-02  2.8623545E-02
   9.20000  2.5424607E-02  3.3013774E-02  3.1075871E-02
   9.40000  2.7026916E-02  3.5609993E-02  3.3556459E-02
   9.60000  2.8739002E-02  3.8454921E-02  3.5979602E-02
   9.80000  3.0522633E-02  4.1497625E-02  3.8252673E-02
   10.0000  3.2325288E-02  4.4639134E-02  4.0289485E-02
   10.2500  3.4514105E-02  4.8477833E-02  4.2401293E-02
   10.5000  3.6522868E-02  5.1872429E-02  4.3958567E-02
   10.7500  3.8253055E-02  5.4430471E-02  4.4939620E-02
   11.0000  3.9631838E-02  5.5832139E-02  4.5370269E-02
   11.2500  4.0612460E-02  5.5923990E-02  4.5311609E-02
   11.5000  4.1181580E-02  5.4763144E-02  4.4847354E-02
   11.7500  4.1366738E-02  5.2588326E-02  4.4071987E-02
   12.0000  4.1233700E-02  4.9735616E-02  4.3082010E-02
   12.2500  4.0873498E-02  4.6543824E-02  4.1969078E-02
   12.5000  4.0383125E-02  4.3289248E-02  4.0812876E-02
   12.7500  3.9848975E-02  4.0161612E-02  3.9676426E-02
   13.0000  3.9338642E-02  3.7269853E-02  3.8606540E-02
   13.2500  3.8899343E-02  3.4661991E-02  3.7636866E-02
   13.5000  3.8559648E-02  3.2347127E-02  3.6790520E-02
   13.7500  3.8332390E-02  3.0313002E-02  3.6081400E-02
   14.0000  3.8217759E-02  2.8537587E-02  3.5515043E-02
   14.2500  3.8206259E-02  2.6995801E-02  3.5090214E-02
   14.5000  3.8281358E-02  2.5662985E-02  3.4800839E-02
   14.7500  3.8421665E-02  2.4516486E-02  3.4637449E-02
   15.0000  3.8602713E-02  2.3536187E-02  3.4588008E-02
   15.2500  3.8798497E-02  2.2704525E-02  3.4638362E-02
   15.5000  3.8982848E-02  2.2006275E-02  3.4772503E-02
   15.7500  3.9130748E-02  2.1428235E-02  3.4972828E-02
   16.0000  3.9219597E-02  2.0958904E-02  3.5220486E-02
   16.2500  3.9230474E-02  2.0588194E-02  3.5495904E-02
   16.5000  3.9149322E-02  2.0307170E-02  3.5779521E-02
   16.7500  3.8967959E-02  2.0107847E-02  3.6052678E-02
   17.0000  3.8684776E-02  1.9983014E-02  3.6298588E-02
   17.2500  3.8304935E-02  1.9926110E-02  3.6503240E-02
   17.5000  3.7839969E-02  1.9931117E-02  3.6656087E-02
   17.7500  3.7306775E-02  1.9992493E-02  3.6750430E-02
   18.0000  3.6726079E-02  2.0105118E-02  3.6783409E-02
   18.2500  3.6120599E-02  2.0264273E-02  3.6755657E-02
   18.5000  3.5513148E-02  2.0465624E-02  3.6670667E-02
   18.7500  3.4924929E-02  2.0705232E-02  3.6533999E-02
   19.0000  3.4374188E-02  2.0979585E-02  3.6352437E-02
   19.2500  3.3875301E-02  2.1285641E-02  3.6133187E-02
   19.5000  3.3438303E-02  2.1620886E-02  3.5883201E-02
   19.7500  3.3068798E-02  2.1983325E-02  3.5608701E-02
   20.0000  3.2768217E-02  2.2371299E-02  3.5315010E-02
   21.0000  3.2177477E-02  2.4140752E-02  3.4032733E-02
   22.0000  3.2199019E-02  2.6169990E-02  3.2695498E-02
   23.0000  3.2260344E-02  2.8314859E-02  3.1345437E-02
   24.0000  3.1955940E-02  3.0355993E-02  2.9992893E-02
   25.0000  3.1180989E-02  3.2111347E-02  2.8662911E-02
   26.0000  3.0079364E-02  3.3453549E-02  2.7404479E-02
   27.0000  2.8880667E-02  3.4308696E-02  2.6276023E-02
   28.0000  2.7755921E-02  3.4667697E-02  2.5324493E-02
   29.0000  2.6775029E-02  3.4585248E-02  2.4569281E-02
   30.0000  2.5938560E-02  3.4160906E-02  2.3995922E-02
   31.0000  2.5220244E-02  3.3507624E-02  2.3563631E-02
   32.0000  2.4590607E-02  3.2722846E-02  2.3221904E-02
   33.0000  2.4025417E-02  3.1875100E-02  2.2926095E-02
   34.0000  2.3507471E-02  3.1006123E-02  2.2645656E-02
   35.0000  2.3026594E-02  3.0140481E-02  2.2365783E-02
   36.0000  2.2580186E-02  2.9295442E-02  2.2086397E-02
   37.0000  2.2173115E-02  2.8487484E-02  2.1819896E-02
   38.0000  2.1814791E-02  2.7736577E-02  2.1585886E-02
   39.0000  2.1515377E-02  2.7073076E-02  2.1401443E-02
   40.0000  2.1284085E-02  2.6544037E-02  2.1270017E-02
