    Energy   (100,001)      (010,001)      (001,110)   
  -25.0000  1.7331672E-04  1.8073493E-04  1.8888963E-04
  -24.0000  1.7948809E-04  1.8777816E-04  1.9560227E-04
  -23.0000  1.8607243E-04  1.9533963E-04  2.0277372E-04
  -22.0000  1.9311141E-04  2.0347691E-04  2.1045195E-04
  -21.0000  2.0065245E-04  2.1225625E-04  2.1869179E-04
  -20.0000  2.0874970E-04  2.2175427E-04  2.2755625E-04
  -19.0000  2.1746530E-04  2.3206007E-04  2.3711809E-04
  -18.0000  2.2687090E-04  2.4327780E-04  2.4746176E-04
  -17.0000  2.3704953E-04  2.5552996E-04  2.5868587E-04
  -16.0000  2.4809797E-04  2.6896158E-04  2.7090628E-04
  -15.0000  2.6012971E-04  2.8374552E-04  2.8426006E-04
  -14.0000  2.7327866E-04  3.0008947E-04  2.9891057E-04
  -13.0000  2.8770408E-04  3.1824497E-04  3.1505414E-04
  -12.0000  3.0359678E-04  3.3851946E-04  3.3292882E-04
  -11.0000  3.2118739E-04  3.6129252E-04  3.5282623E-04
  -10.0000  3.4075743E-04  3.8703796E-04  3.7510756E-04
  -9.00000  3.6265418E-04  4.1635449E-04  4.0022588E-04
  -8.00000  3.8731134E-04  4.5000918E-04  4.2875771E-04
  -7.00000  4.1527797E-04  4.8900002E-04  4.6144867E-04
  -6.00000  4.4726024E-04  5.3464857E-04  4.9928151E-04
  -5.00000  4.8418306E-04  5.8874064E-04  5.4358040E-04
  -4.00000  5.2728418E-04  6.5374692E-04  5.9617699E-04
  -3.00000  5.7826301E-04  7.3318245E-04  6.5968641E-04
  -2.00000  6.3952717E-04  8.3221966E-04  7.3799102E-04
  -1.00000  7.1462486E-04  9.5879554E-04  8.3714627E-04
   0.00000  8.0906094E-04  1.1257638E-03  9.6722566E-04
   1.00000  9.3199808E-04  1.3555155E-03  1.1465210E-03
   2.00000  1.1003421E-03  1.6914084E-03  1.4126937E-03
   3.00000  1.3509209E-03  2.2329035E-03  1.8598781E-03
   4.00000  1.7920824E-03  3.2893876E-03  2.8137552E-03
   5.00000  2.8715162E-03  6.1829173E-03  5.8110152E-03
   5.20000  3.2154363E-03  7.1129909E-03  6.8245140E-03
   5.40000  3.5803825E-03  8.0759295E-03  7.8603546E-03
   5.60000  3.9588075E-03  9.0471947E-03  8.8540633E-03
   5.80000  4.3507698E-03  1.0031746E-02  9.7767444E-03
   6.00000  4.7593159E-03  1.1045815E-02  1.0629255E-02
   6.20000  5.1895987E-03  1.2109279E-02  1.1433239E-02
   6.40000  5.6494486E-03  1.3243255E-02  1.2215488E-02
   6.60000  6.1494313E-03  1.4467612E-02  1.2990343E-02
   6.80000  6.7025036E-03  1.5799012E-02  1.3750947E-02
   7.00000  7.3236436E-03  1.7252105E-02  1.4475902E-02
   7.20000  8.0289768E-03  1.8844737E-02  1.5147877E-02
   7.40000  8.8334695E-03  2.0604502E-02  1.5770318E-02
   7.60000  9.7468792E-03  2.2572161E-02  1.6368333E-02
   7.80000  1.0768423E-02  2.4799942E-02  1.6973373E-02
   8.00000  1.1881064E-02  2.7346470E-02  1.7603866E-02
   8.20000  1.3047456E-02  3.0271169E-02  1.8253502E-02
   8.40000  1.4211350E-02  3.3628662E-02  1.8892094E-02
   8.60000  1.5308600E-02  3.7460952E-02  1.9479032E-02
   8.80000  1.6287629E-02  4.1783547E-02  1.9984741E-02
   9.00000  1.7130507E-02  4.6561658E-02  2.0409572E-02
   9.20000  1.7861070E-02  5.1676346E-02  2.0788382E-02
   9.40000  1.8534161E-02  5.6889499E-02  2.1178392E-02
   9.60000  1.9213904E-02  6.1828473E-02  2.1639828E-02
   9.80000  1.9954378E-02  6.6017795E-02  2.2220973E-02
   10.0000  2.0790060E-02  6.8973064E-02  2.2951941E-02
   10.2500  2.1988574E-02  7.0405556E-02  2.4092988E-02
   10.5000  2.3349669E-02  6.9196427E-02  2.5474998E-02
   10.7500  2.4838571E-02  6.5792486E-02  2.7055545E-02
   11.0000  2.6400492E-02  6.0995718E-02  2.8766620E-02
   11.2500  2.7961391E-02  5.5617632E-02  3.0522590E-02
   11.5000  2.9430934E-02  5.0266381E-02  3.2229364E-02
   11.7500  3.0720349E-02  4.5302830E-02  3.3797356E-02
   12.0000  3.1766365E-02  4.0890979E-02  3.5154812E-02
   12.2500  3.2546587E-02  3.7068861E-02  3.6255453E-02
   12.5000  3.3081080E-02  3.3806002E-02  3.7079588E-02
   12.7500  3.3421466E-02  3.1042158E-02  3.7631393E-02
   13.0000  3.3633213E-02  2.8710368E-02  3.7933212E-02
   13.2500  3.3779576E-02  2.6747653E-02  3.8018078E-02
   13.5000  3.3912036E-02  2.5098367E-02  3.7924463E-02
   13.7500  3.4066914E-02  2.3714692E-02  3.7694023E-02
   14.0000  3.4266316E-02  2.2556216E-02  3.7370207E-02
   14.2500  3.4520885E-02  2.1589171E-02  3.6996253E-02
   14.5000  3.4832431E-02  2.0785530E-02  3.6612061E-02
   14.7500  3.5195860E-02  2.0122120E-02  3.6251068E-02
   15.0000  3.5600523E-02  1.9579835E-02  3.5938279E-02
   15.2500  3.6031222E-02  1.9142976E-02  3.5689552E-02
   15.5000  3.6469135E-02  1.8798700E-02  3.5511757E-02
   15.7500  3.6892880E-02  1.8536574E-02  3.5403478E-02
   16.0000  3.7279900E-02  1.8348200E-02  3.5356137E-02
   16.2500  3.7608220E-02  1.8226898E-02  3.5355475E-02
   16.5000  3.7858467E-02  1.8167432E-02  3.5383365E-02
   16.7500  3.8015893E-02  1.8165738E-02  3.5419894E-02
   17.0000  3.8072048E-02  1.8218672E-02  3.5445536E-02
   17.2500  3.8025774E-02  1.8323745E-02  3.5443190E-02
   17.5000  3.7883313E-02  1.8478881E-02  3.5399812E-02
   17.7500  3.7657490E-02  1.8682197E-02  3.5307427E-02
   18.0000  3.7366175E-02  1.8931830E-02  3.5163411E-02
   18.2500  3.7030336E-02  1.9225831E-02  3.4970087E-02
   18.5000  3.6672017E-02  1.9562119E-02  3.4733796E-02
   18.7500  3.6312547E-02  1.9938487E-02  3.4463662E-02
   19.0000  3.5971142E-02  2.0352674E-02  3.4170276E-02
   19.2500  3.5663958E-02  2.0802471E-02  3.3864476E-02
   19.5000  3.5403561E-02  2.1285833E-02  3.3556335E-02
   19.7500  3.5198751E-02  2.1800915E-02  3.3254463E-02
   20.0000  3.5054698E-02  2.2345859E-02  3.2965733E-02
   21.0000  3.5093004E-02  2.4766639E-02  3.2032237E-02
   22.0000  3.5923662E-02  2.7412828E-02  3.1527333E-02
   23.0000  3.7032663E-02  3.0057489E-02  3.1352989E-02
   24.0000  3.7747322E-02  3.2405292E-02  3.1308711E-02
   25.0000  3.7505983E-02  3.4127247E-02  3.1198399E-02
   26.0000  3.6203804E-02  3.4996530E-02  3.0905204E-02
   27.0000  3.4285932E-02  3.5011912E-02  3.0443398E-02
   28.0000  3.2368257E-02  3.4381505E-02  2.9937132E-02
   29.0000  3.0792022E-02  3.3382058E-02  2.9520897E-02
   30.0000  2.9619434E-02  3.2243633E-02  2.9276362E-02
   31.0000  2.8781063E-02  3.1110056E-02  2.9210265E-02
   32.0000  2.8166328E-02  3.0047311E-02  2.9267788E-02
   33.0000  2.7671273E-02  2.9067510E-02  2.9370136E-02
   34.0000  2.7219566E-02  2.8152362E-02  2.9446833E-02
   35.0000  2.6764763E-02  2.7272752E-02  2.9447283E-02
   36.0000  2.6284642E-02  2.6404838E-02  2.9338239E-02
   37.0000  2.5776014E-02  2.5542239E-02  2.9101667E-02
   38.0000  2.5253961E-02  2.4703782E-02  2.8742562E-02
   39.0000  2.4755646E-02  2.3937835E-02  2.8307670E-02
   40.0000  2.4339251E-02  2.3316723E-02  2.7897288E-02
