    Energy   (100,001)      (010,001)      (001,110)   
  -25.0000  1.6548016E-04  1.8607918E-04  1.7664772E-04
  -24.0000  1.7146380E-04  1.9301751E-04  1.8311352E-04
  -23.0000  1.7784849E-04  2.0045064E-04  1.9002457E-04
  -22.0000  1.8467440E-04  2.0843222E-04  1.9742704E-04
  -21.0000  1.9198715E-04  2.1702391E-04  2.0537366E-04
  -20.0000  1.9983880E-04  2.2629680E-04  2.1392482E-04
  -19.0000  2.0828892E-04  2.3633335E-04  2.2315007E-04
  -18.0000  2.1740605E-04  2.4722966E-04  2.3312987E-04
  -17.0000  2.2726947E-04  2.5909850E-04  2.4395784E-04
  -16.0000  2.3797128E-04  2.7207292E-04  2.5574350E-04
  -15.0000  2.4961917E-04  2.8631106E-04  2.6861578E-04
  -14.0000  2.6233984E-04  3.0200227E-04  2.8272754E-04
  -13.0000  2.7628334E-04  3.1937513E-04  2.9826128E-04
  -12.0000  2.9162870E-04  3.3870808E-04  3.1543674E-04
  -11.0000  3.0859134E-04  3.6034357E-04  3.3452077E-04
  -10.0000  3.2743277E-04  3.8470750E-04  3.5584071E-04
  -9.00000  3.4847368E-04  4.1233591E-04  3.7980250E-04
  -8.00000  3.7211186E-04  4.4391277E-04  4.0691574E-04
  -7.00000  3.9884701E-04  4.8032424E-04  4.3782907E-04
  -6.00000  4.2931621E-04  5.2273873E-04  4.7338130E-04
  -5.00000  4.6434554E-04  5.7272825E-04  5.1467699E-04
  -4.00000  5.0502782E-04  6.3245835E-04  5.6320196E-04
  -3.00000  5.5284369E-04  7.0499717E-04  6.2100601E-04
  -2.00000  6.0985919E-04  7.9484270E-04  6.9100509E-04
  -1.00000  6.7906658E-04  9.0887645E-04  7.7750946E-04
   0.00000  7.6501788E-04  1.0582253E-03  8.8721585E-04
   1.00000  8.7512976E-04  1.2622890E-03  1.0312648E-03
   2.00000  1.0228003E-03  1.5588257E-03  1.2301681E-03
   3.00000  1.2367760E-03  2.0355340E-03  1.5286200E-03
   4.00000  1.6019593E-03  2.9717307E-03  2.0603388E-03
   5.00000  2.4685530E-03  5.5757552E-03  3.3669080E-03
   5.20000  2.7310451E-03  6.3963809E-03  3.7462040E-03
   5.40000  2.9984897E-03  7.2259845E-03  4.1151041E-03
   5.60000  3.2661257E-03  8.0456867E-03  4.4721144E-03
   5.80000  3.5380497E-03  8.8692514E-03  4.8353969E-03
   6.00000  3.8207081E-03  9.7200246E-03  5.2272035E-03
   6.20000  4.1202143E-03  1.0620092E-02  5.6668853E-03
   6.40000  4.4420787E-03  1.1588036E-02  6.1700182E-03
   6.60000  4.7914479E-03  1.2639175E-02  6.7494716E-03
   6.80000  5.1732077E-03  1.3786025E-02  7.4166892E-03
   7.00000  5.5918777E-03  1.5038542E-02  8.1827618E-03
   7.20000  6.0514130E-03  1.6404360E-02  9.0592631E-03
   7.40000  6.5550756E-03  1.7889387E-02  1.0058780E-02
   7.60000  7.1055295E-03  1.9498663E-02  1.1194901E-02
   7.80000  7.7052230E-03  2.1236918E-02  1.2481368E-02
   8.00000  8.3569899E-03  2.3108647E-02  1.3930252E-02
   8.20000  9.0646150E-03  2.5117921E-02  1.5549538E-02
   8.40000  9.8330332E-03  2.7268235E-02  1.7340937E-02
   8.60000  1.0667996E-02  2.9562441E-02  1.9298588E-02
   8.80000  1.1575354E-02  3.2002194E-02  2.1408312E-02
   9.00000  1.2560348E-02  3.4585903E-02  2.3645871E-02
   9.20000  1.3627150E-02  3.7304359E-02  2.5972956E-02
   9.40000  1.4778604E-02  4.0134553E-02  2.8332094E-02
   9.60000  1.6015988E-02  4.3034213E-02  3.0644639E-02
   9.80000  1.7338552E-02  4.5939232E-02  3.2816172E-02
   10.0000  1.8742556E-02  4.8763892E-02  3.4749307E-02
   10.2500  2.0598854E-02  5.2019426E-02  3.6702173E-02
   10.5000  2.2538828E-02  5.4743950E-02  3.8036155E-02
   10.7500  2.4514266E-02  5.6680619E-02  3.8710795E-02
   11.0000  2.6458870E-02  5.7599682E-02  3.8763176E-02
   11.2500  2.8294781E-02  5.7372502E-02  3.8302341E-02
   11.5000  2.9946678E-02  5.6027121E-02  3.7494067E-02
   11.7500  3.1357123E-02  5.3743717E-02  3.6527925E-02
   12.0000  3.2495732E-02  5.0799745E-02  3.5571943E-02
   12.2500  3.3361585E-02  4.7494111E-02  3.4740456E-02
   12.5000  3.3980295E-02  4.4086388E-02  3.4089357E-02
   12.7500  3.4397158E-02  4.0769340E-02  3.3630348E-02
   13.0000  3.4668699E-02  3.7666910E-02  3.3348099E-02
   13.2500  3.4854347E-02  3.4845532E-02  3.3213178E-02
   13.5000  3.5009354E-02  3.2330674E-02  3.3192485E-02
   13.7500  3.5179902E-02  3.0121946E-02  3.3257503E-02
   14.0000  3.5400663E-02  2.8203976E-02  3.3388479E-02
   14.2500  3.5694439E-02  2.6553564E-02  3.3574337E-02
   14.5000  3.6073102E-02  2.5144239E-02  3.3809915E-02
   14.7500  3.6538857E-02  2.3949087E-02  3.4092798E-02
   15.0000  3.7085139E-02  2.2942409E-02  3.4421482E-02
   15.2500  3.7697367E-02  2.2100653E-02  3.4794372E-02
   15.5000  3.8354120E-02  2.1402868E-02  3.5208257E-02
   15.7500  3.9028771E-02  2.0830825E-02  3.5656562E-02
   16.0000  3.9691366E-02  2.0368906E-02  3.6128302E-02
   16.2500  4.0310695E-02  2.0003852E-02  3.6608047E-02
   16.5000  4.0856536E-02  1.9724461E-02  3.7076720E-02
   16.7500  4.1302004E-02  1.9521291E-02  3.7513040E-02
   17.0000  4.1625752E-02  1.9386391E-02  3.7895401E-02
   17.2500  4.1813759E-02  1.9313074E-02  3.8203984E-02
   17.5000  4.1860411E-02  1.9295723E-02  3.8422811E-02
   17.7500  4.1768714E-02  1.9329622E-02  3.8541448E-02
   18.0000  4.1549607E-02  1.9410806E-02  3.8556058E-02
   18.2500  4.1220543E-02  1.9535931E-02  3.8469607E-02
   18.5000  4.0803564E-02  1.9702151E-02  3.8291213E-02
   18.7500  4.0323203E-02  1.9907034E-02  3.8034772E-02
   19.0000  3.9804452E-02  2.0148500E-02  3.7717138E-02
   19.2500  3.9271007E-02  2.0424808E-02  3.7356182E-02
   19.5000  3.8743896E-02  2.0734559E-02  3.6969019E-02
   19.7500  3.8240604E-02  2.1076674E-02  3.6570667E-02
   20.0000  3.7774888E-02  2.1450219E-02  3.6173416E-02
   21.0000  3.6467124E-02  2.3231238E-02  3.4759816E-02
   22.0000  3.6201286E-02  2.5402083E-02  3.3775824E-02
   23.0000  3.6739384E-02  2.7861228E-02  3.3108643E-02
   24.0000  3.7458748E-02  3.0422499E-02  3.2532881E-02
   25.0000  3.7576180E-02  3.2781271E-02  3.1882115E-02
   26.0000  3.6585453E-02  3.4575199E-02  3.1100761E-02
   27.0000  3.4631318E-02  3.5554298E-02  3.0231686E-02
   28.0000  3.2298680E-02  3.5735336E-02  2.9353510E-02
   29.0000  3.0136450E-02  3.5317613E-02  2.8545593E-02
   30.0000  2.8403548E-02  3.4533668E-02  2.7867975E-02
   31.0000  2.7113823E-02  3.3568858E-02  2.7345330E-02
   32.0000  2.6172270E-02  3.2544122E-02  2.6964025E-02
   33.0000  2.5464785E-02  3.1527293E-02  2.6682070E-02
   34.0000  2.4893879E-02  3.0549793E-02  2.6444452E-02
   35.0000  2.4387510E-02  2.9621507E-02  2.6196570E-02
   36.0000  2.3898907E-02  2.8742901E-02  2.5894028E-02
   37.0000  2.3405652E-02  2.7915054E-02  2.5511355E-02
   38.0000  2.2910763E-02  2.7148030E-02  2.5051981E-02
   39.0000  2.2444209E-02  2.6469205E-02  2.4559881E-02
   40.0000  2.2056195E-02  2.5926685E-02  2.4121233E-02
