    Energy   (100,001)      (010,001)      (001,110)   
  -25.0000  1.7054480E-04  1.7552993E-04  1.6922722E-04
  -24.0000  1.7693016E-04  1.8244398E-04  1.7578686E-04
  -23.0000  1.8376081E-04  1.8986956E-04  1.8281785E-04
  -22.0000  1.9108321E-04  1.9786368E-04  1.9037078E-04
  -21.0000  1.9895037E-04  2.0649195E-04  1.9850357E-04
  -20.0000  2.0742305E-04  2.1583033E-04  2.0728282E-04
  -19.0000  2.1657120E-04  2.2596711E-04  2.1678554E-04
  -18.0000  2.2647576E-04  2.3700562E-04  2.2710117E-04
  -17.0000  2.3723085E-04  2.4906739E-04  2.3833419E-04
  -16.0000  2.4894658E-04  2.6229642E-04  2.5060739E-04
  -15.0000  2.6175253E-04  2.7686443E-04  2.6406602E-04
  -14.0000  2.7580224E-04  2.9297784E-04  2.7888307E-04
  -13.0000  2.9127892E-04  3.1088687E-04  2.9526617E-04
  -12.0000  3.0840296E-04  3.3089758E-04  3.1346665E-04
  -11.0000  3.2744180E-04  3.5338815E-04  3.3379149E-04
  -10.0000  3.4872313E-04  3.7883115E-04  3.5661953E-04
  -9.00000  3.7265274E-04  4.0782438E-04  3.8242361E-04
  -8.00000  3.9973933E-04  4.4113468E-04  4.1180137E-04
  -7.00000  4.3062920E-04  4.7976125E-04  4.4551913E-04
  -6.00000  4.6615645E-04  5.2502938E-04  4.8457559E-04
  -5.00000  5.0741694E-04  5.7873325E-04  5.3029689E-04
  -4.00000  5.5588104E-04  6.4336037E-04  5.8448287E-04
  -3.00000  6.1357153E-04  7.2245814E-04  6.4964015E-04
  -2.00000  6.8335736E-04  8.2126048E-04  7.2937028E-04
  -1.00000  7.6946598E-04  9.4782217E-04  8.2905183E-04
   0.00000  8.7844413E-04  1.1152284E-03  9.5712516E-04
   1.00000  1.0211443E-03  1.3463458E-03  1.1277490E-03
   2.00000  1.2174517E-03  1.6855863E-03  1.3670816E-03
   3.00000  1.5102537E-03  2.2351151E-03  1.7315815E-03
   4.00000  2.0243114E-03  3.3139519E-03  2.3837021E-03
   5.00000  3.2683202E-03  6.2778164E-03  3.9644868E-03
   5.20000  3.6589952E-03  7.2120030E-03  4.4498007E-03
   5.40000  4.0698560E-03  8.1591520E-03  4.9554022E-03
   5.60000  4.4939032E-03  9.0950224E-03  5.4805106E-03
   5.80000  4.9352753E-03  1.0033085E-02  6.0415396E-03
   6.00000  5.4023178E-03  1.1002922E-02  6.6599465E-03
   6.20000  5.9045506E-03  1.2040493E-02  7.3568796E-03
   6.40000  6.4522463E-03  1.3185767E-02  8.1521178E-03
   6.60000  7.0564604E-03  1.4481332E-02  9.0639067E-03
   6.80000  7.7286393E-03  1.5970440E-02  1.0108509E-02
   7.00000  8.4794635E-03  1.7695080E-02  1.1299330E-02
   7.20000  9.3166932E-03  1.9694788E-02  1.2645884E-02
   7.40000  1.0242173E-02  2.2006190E-02  1.4153279E-02
   7.60000  1.1249245E-02  2.4662326E-02  1.5823243E-02
   7.80000  1.2323191E-02  2.7690212E-02  1.7657234E-02
   8.00000  1.3447217E-02  3.1104439E-02  1.9660405E-02
   8.20000  1.4612680E-02  3.4895449E-02  2.1842705E-02
   8.40000  1.5826682E-02  3.9014762E-02  2.4212973E-02
   8.60000  1.7109575E-02  4.3362724E-02  2.6765596E-02
   8.80000  1.8482150E-02  4.7783036E-02  2.9464443E-02
   9.00000  1.9952226E-02  5.2065151E-02  3.2230850E-02
   9.20000  2.1510920E-02  5.5955729E-02  3.4941674E-02
   9.40000  2.3138332E-02  5.9182778E-02  3.7441921E-02
   9.60000  2.4812250E-02  6.1495011E-02  3.9572347E-02
   9.80000  2.6514516E-02  6.2711296E-02  4.1205101E-02
   10.0000  2.8232273E-02  6.2764660E-02  4.2274056E-02
   10.2500  3.0383466E-02  6.1307264E-02  4.2835291E-02
   10.5000  3.2506732E-02  5.8508669E-02  4.2678632E-02
   10.7500  3.4544940E-02  5.4861989E-02  4.2024582E-02
   11.0000  3.6419835E-02  5.0838507E-02  4.1089456E-02
   11.2500  3.8048851E-02  4.6799273E-02  4.0040878E-02
   11.5000  3.9367127E-02  4.2975543E-02  3.8991353E-02
   11.7500  4.0344076E-02  3.9489788E-02  3.8011518E-02
   12.0000  4.0990799E-02  3.6388556E-02  3.7144983E-02
   12.2500  4.1356830E-02  3.3671874E-02  3.6418182E-02
   12.5000  4.1516013E-02  3.1314222E-02  3.5845638E-02
   12.7500  4.1547807E-02  2.9278023E-02  3.5432345E-02
   13.0000  4.1523199E-02  2.7522385E-02  3.5175269E-02
   13.2500  4.1498104E-02  2.6008388E-02  3.5065401E-02
   13.5000  4.1511666E-02  2.4701745E-02  3.5089946E-02
   13.7500  4.1586494E-02  2.3573732E-02  3.5233271E-02
   14.0000  4.1729495E-02  2.2601098E-02  3.5477179E-02
   14.2500  4.1933203E-02  2.1765475E-02  3.5802197E-02
   14.5000  4.2177881E-02  2.1052559E-02  3.6189036E-02
   14.7500  4.2434604E-02  2.0451216E-02  3.6618358E-02
   15.0000  4.2669071E-02  1.9952653E-02  3.7069477E-02
   15.2500  4.2845675E-02  1.9549785E-02  3.7519544E-02
   15.5000  4.2931440E-02  1.9236773E-02  3.7943812E-02
   15.7500  4.2899475E-02  1.9008689E-02  3.8316951E-02
   16.0000  4.2731586E-02  1.8861254E-02  3.8615142E-02
   16.2500  4.2419815E-02  1.8790604E-02  3.8818539E-02
   16.5000  4.1966730E-02  1.8793092E-02  3.8913534E-02
   16.7500  4.1384544E-02  1.8865124E-02  3.8894291E-02
   17.0000  4.0693262E-02  1.9003040E-02  3.8763122E-02
   17.2500  3.9918235E-02  1.9203052E-02  3.8529635E-02
   17.5000  3.9087519E-02  1.9461230E-02  3.8208905E-02
   17.7500  3.8229413E-02  1.9773532E-02  3.7819157E-02
   18.0000  3.7370439E-02  2.0135842E-02  3.7379470E-02
   18.2500  3.6533906E-02  2.0544026E-02  3.6907916E-02
   18.5000  3.5739071E-02  2.0993980E-02  3.6420309E-02
   18.7500  3.5000837E-02  2.1481674E-02  3.5929572E-02
   19.0000  3.4329845E-02  2.2003221E-02  3.5445587E-02
   19.2500  3.3732814E-02  2.2554960E-02  3.4975356E-02
   19.5000  3.3213016E-02  2.3133563E-02  3.4523328E-02
   19.7500  3.2770784E-02  2.3736043E-02  3.4091816E-02
   20.0000  3.2404061E-02  2.4359484E-02  3.3681533E-02
   21.0000  3.1602184E-02  2.6979972E-02  3.2244491E-02
   22.0000  3.1562508E-02  2.9557018E-02  3.1080682E-02
   23.0000  3.1764816E-02  3.1765167E-02  3.0086622E-02
   24.0000  3.1688951E-02  3.3369367E-02  2.9176997E-02
   25.0000  3.1085188E-02  3.4249154E-02  2.8312916E-02
   26.0000  3.0068215E-02  3.4418713E-02  2.7499753E-02
   27.0000  2.8916297E-02  3.4009489E-02  2.6772987E-02
   28.0000  2.7837367E-02  3.3203086E-02  2.6173762E-02
   29.0000  2.6907500E-02  3.2170825E-02  2.5717567E-02
   30.0000  2.6122095E-02  3.1044884E-02  2.5378625E-02
   31.0000  2.5448834E-02  2.9912353E-02  2.5102077E-02
   32.0000  2.4851946E-02  2.8820235E-02  2.4828429E-02
   33.0000  2.4301740E-02  2.7785352E-02  2.4510205E-02
   34.0000  2.3780782E-02  2.6805412E-02  2.4115994E-02
   35.0000  2.3287730E-02  2.5869510E-02  2.3629907E-02
   36.0000  2.2835598E-02  2.4967469E-02  2.3054487E-02
   37.0000  2.2442857E-02  2.4098538E-02  2.2417255E-02
   38.0000  2.2121641E-02  2.3279259E-02  2.1773210E-02
   39.0000  2.1872206E-02  2.2549098E-02  2.1194263E-02
   40.0000  2.1687820E-02  2.1965661E-02  2.0742730E-02
