    Energy   (100,001)      (010,001)      (001,110)   
  -25.0000  1.6583123E-04  1.7580606E-04  1.6540910E-04
  -24.0000  1.7209832E-04  1.8277953E-04  1.7179800E-04
  -23.0000  1.7880271E-04  1.9027141E-04  1.7864122E-04
  -22.0000  1.8598983E-04  1.9833963E-04  1.8598684E-04
  -21.0000  1.9371152E-04  2.0705097E-04  1.9388981E-04
  -20.0000  2.0202712E-04  2.1648268E-04  2.0241323E-04
  -19.0000  2.1100490E-04  2.2672465E-04  2.1162985E-04
  -18.0000  2.2072376E-04  2.3788206E-04  2.2162399E-04
  -17.0000  2.3127537E-04  2.5007871E-04  2.3249391E-04
  -16.0000  2.4276683E-04  2.6346126E-04  2.4435477E-04
  -15.0000  2.5532402E-04  2.7820473E-04  2.5734240E-04
  -14.0000  2.6909589E-04  2.9451951E-04  2.7161806E-04
  -13.0000  2.8425990E-04  3.1266072E-04  2.8737466E-04
  -12.0000  3.0102913E-04  3.3294047E-04  3.0484487E-04
  -11.0000  3.1966168E-04  3.5574451E-04  3.2431176E-04
  -10.0000  3.4047307E-04  3.8155490E-04  3.4612319E-04
  -9.00000  3.6385316E-04  4.1098150E-04  3.7071133E-04
  -8.00000  3.9028926E-04  4.4480661E-04  3.9861974E-04
  -7.00000  4.2039868E-04  4.8404938E-04  4.3054169E-04
  -6.00000  4.5497528E-04  5.3006117E-04  4.6737552E-04
  -5.00000  4.9505786E-04  5.8467047E-04  5.1030695E-04
  -4.00000  5.4203376E-04  6.5041024E-04  5.6093508E-04
  -3.00000  5.9780117E-04  7.3088822E-04  6.2147280E-04
  -2.00000  6.6503494E-04  8.3141759E-04  6.9508040E-04
  -1.00000  7.4764637E-04  9.6015303E-04  7.8645390E-04
   0.00000  8.5163685E-04  1.1302891E-03  9.0294431E-04
   1.00000  9.8684596E-04  1.3647440E-03  1.0569205E-03
   2.00000  1.1710771E-03  1.7076097E-03  1.2715696E-03
   3.00000  1.4422550E-03  2.2587800E-03  1.5989054E-03
   4.00000  1.9101165E-03  3.3227631E-03  2.2015257E-03
   5.00000  3.0165848E-03  6.1638466E-03  3.7601848E-03
   5.20000  3.3515412E-03  7.0584011E-03  4.2115577E-03
   5.40000  3.6946575E-03  7.9793840E-03  4.6406096E-03
   5.60000  4.0414470E-03  8.9140056E-03  5.0435012E-03
   5.80000  4.3990091E-03  9.8835449E-03  5.4415006E-03
   6.00000  4.7776934E-03  1.0920655E-02  5.8615760E-03
   6.20000  5.1875982E-03  1.2058795E-02  6.3282223E-03
   6.40000  5.6382868E-03  1.3330217E-02  6.8622859E-03
   6.60000  6.1393177E-03  1.4766279E-02  7.4813222E-03
   6.80000  6.7006759E-03  1.6397611E-02  8.1994261E-03
   7.00000  7.3328275E-03  1.8253433E-02  9.0261138E-03
   7.20000  8.0462355E-03  2.0359923E-02  9.9645755E-03
   7.40000  8.8502051E-03  2.2738219E-02  1.1010263E-02
   7.60000  9.7510746E-03  2.5403518E-02  1.2151294E-02
   7.80000  1.0750260E-02  2.8366843E-02  1.3372046E-02
   8.00000  1.1843508E-02  3.1639668E-02  1.4659968E-02
   8.20000  1.3023173E-02  3.5239001E-02  1.6012980E-02
   8.40000  1.4283956E-02  3.9186780E-02  1.7443007E-02
   8.60000  1.5629025E-02  4.3495864E-02  1.8972342E-02
   8.80000  1.7071095E-02  4.8138908E-02  2.0623800E-02
   9.00000  1.8626120E-02  5.3004733E-02  2.2409531E-02
   9.20000  2.0303351E-02  5.7856760E-02  2.4323655E-02
   9.40000  2.2097787E-02  6.2318377E-02  2.6341038E-02
   9.60000  2.3988465E-02  6.5914741E-02  2.8421613E-02
   9.80000  2.5942150E-02  6.8183982E-02  3.0517889E-02
   10.0000  2.7919209E-02  6.8825355E-02  3.2582508E-02
   10.2500  3.0360617E-02  6.7315562E-02  3.5055645E-02
   10.5000  3.2695470E-02  6.3732849E-02  3.7351174E-02
   10.7500  3.4846984E-02  5.8906960E-02  3.9427652E-02
   11.0000  3.6740073E-02  5.3634155E-02  4.1258393E-02
   11.2500  3.8310781E-02  4.8480137E-02  4.2819216E-02
   11.5000  3.9519134E-02  4.3759615E-02  4.4081095E-02
   11.7500  4.0355623E-02  3.9600408E-02  4.5013682E-02
   12.0000  4.0843323E-02  3.6018445E-02  4.5592641E-02
   12.2500  4.1034327E-02  3.2973727E-02  4.5806897E-02
   12.5000  4.1000079E-02  3.0404051E-02  4.5666457E-02
   12.7500  4.0819291E-02  2.8242653E-02  4.5208263E-02
   13.0000  4.0567175E-02  2.6426550E-02  4.4496458E-02
   13.2500  4.0307658E-02  2.4900355E-02  4.3613508E-02
   13.5000  4.0088130E-02  2.3617644E-02  4.2643311E-02
   13.7500  3.9937412E-02  2.2540499E-02  4.1656685E-02
   14.0000  3.9867996E-02  2.1638171E-02  4.0706808E-02
   14.2500  3.9880385E-02  2.0885732E-02  3.9830845E-02
   14.5000  3.9966871E-02  2.0262976E-02  3.9052431E-02
   14.7500  4.0114136E-02  1.9753554E-02  3.8383706E-02
   15.0000  4.0304994E-02  1.9344259E-02  3.7827119E-02
   15.2500  4.0519648E-02  1.9024437E-02  3.7377173E-02
   15.5000  4.0736730E-02  1.8785493E-02  3.7022110E-02
   15.7500  4.0934334E-02  1.8620485E-02  3.6745587E-02
   16.0000  4.1091173E-02  1.8523783E-02  3.6528397E-02
   16.2500  4.1187888E-02  1.8490785E-02  3.6350287E-02
   16.5000  4.1208487E-02  1.8517673E-02  3.6191815E-02
   16.7500  4.1141744E-02  1.8601213E-02  3.6036088E-02
   17.0000  4.0982343E-02  1.8738574E-02  3.5870151E-02
   17.2500  4.0731496E-02  1.8927184E-02  3.5685798E-02
   17.5000  4.0396870E-02  1.9164612E-02  3.5479689E-02
   17.7500  3.9991749E-02  1.9448479E-02  3.5252810E-02
   18.0000  3.9533568E-02  1.9776395E-02  3.5009468E-02
   18.2500  3.9042052E-02  2.0145924E-02  3.4756048E-02
   18.5000  3.8537281E-02  2.0554567E-02  3.4499805E-02
   18.7500  3.8037942E-02  2.0999769E-02  3.4247844E-02
   19.0000  3.7559998E-02  2.1478964E-02  3.4006375E-02
   19.2500  3.7115826E-02  2.1989638E-02  3.3780253E-02
   19.5000  3.6713824E-02  2.2529427E-02  3.3572758E-02
   19.7500  3.6358414E-02  2.3096108E-02  3.3385556E-02
   20.0000  3.6050363E-02  2.3687352E-02  3.3218802E-02
   21.0000  3.5217206E-02  2.6224635E-02  3.2721808E-02
   22.0000  3.4692188E-02  2.8827462E-02  3.2350160E-02
   23.0000  3.3973370E-02  3.1209339E-02  3.1881056E-02
   24.0000  3.2761039E-02  3.3059740E-02  3.1168493E-02
   25.0000  3.1112723E-02  3.4132070E-02  3.0208710E-02
   26.0000  2.9315673E-02  3.4398465E-02  2.9114443E-02
   27.0000  2.7681115E-02  3.4020629E-02  2.8055065E-02
   28.0000  2.6396123E-02  3.3235125E-02  2.7179655E-02
   29.0000  2.5491403E-02  3.2253014E-02  2.6557500E-02
   30.0000  2.4898038E-02  3.1212800E-02  2.6165183E-02
   31.0000  2.4514495E-02  3.0183780E-02  2.5915577E-02
   32.0000  2.4242971E-02  2.9188462E-02  2.5701102E-02
   33.0000  2.4000976E-02  2.8223272E-02  2.5425385E-02
   34.0000  2.3723978E-02  2.7272885E-02  2.5017856E-02
   35.0000  2.3368007E-02  2.6320237E-02  2.4440008E-02
   36.0000  2.2914697E-02  2.5355228E-02  2.3691057E-02
   37.0000  2.2376911E-02  2.4384194E-02  2.2813804E-02
   38.0000  2.1799511E-02  2.3438635E-02  2.1894268E-02
   39.0000  2.1250940E-02  2.2579600E-02  2.1046259E-02
   40.0000  2.0803706E-02  2.1888212E-02  2.0374689E-02
