    Energy   (100,001)      (010,001)      (001,110)   
  -25.0000  1.7295834E-04  1.7955623E-04  1.6965739E-04
  -24.0000  1.7949172E-04  1.8636591E-04  1.7622387E-04
  -23.0000  1.8648695E-04  1.9366559E-04  1.8326269E-04
  -22.0000  1.9399298E-04  2.0150871E-04  1.9082464E-04
  -21.0000  2.0206582E-04  2.0995664E-04  1.9896790E-04
  -20.0000  2.1076982E-04  2.1908022E-04  2.0775940E-04
  -19.0000  2.2017923E-04  2.2896164E-04  2.1727653E-04
  -18.0000  2.3038020E-04  2.3969675E-04  2.2760925E-04
  -17.0000  2.4147320E-04  2.5139804E-04  2.3886269E-04
  -16.0000  2.5357613E-04  2.6419833E-04  2.5116047E-04
  -15.0000  2.6682821E-04  2.7825559E-04  2.6464887E-04
  -14.0000  2.8139495E-04  2.9375901E-04  2.7950228E-04
  -13.0000  2.9747465E-04  3.1093717E-04  2.9593019E-04
  -12.0000  3.1530683E-04  3.3006859E-04  3.1418634E-04
  -11.0000  3.3518344E-04  3.5149610E-04  3.3458106E-04
  -10.0000  3.5746392E-04  3.7564626E-04  3.5749779E-04
  -9.00000  3.8259579E-04  4.0305626E-04  3.8341579E-04
  -8.00000  4.1114321E-04  4.3441193E-04  4.1294197E-04
  -7.00000  4.4382752E-04  4.7060226E-04  4.4685623E-04
  -6.00000  4.8158599E-04  5.1279993E-04  4.8617775E-04
  -5.00000  5.2565932E-04  5.6258315E-04  5.3226455E-04
  -4.00000  5.7772589E-04  6.2212620E-04  5.8696787E-04
  -3.00000  6.4011579E-04  6.9450894E-04  6.5288081E-04
  -2.00000  7.1616713E-04  7.8424325E-04  7.3375792E-04
  -1.00000  8.1085411E-04  8.9822158E-04  8.3526554E-04
   0.00000  9.3197782E-04  1.0475584E-03  9.6642795E-04
   1.00000  1.0926589E-03  1.2515433E-03  1.1427107E-03
   2.00000  1.3173546E-03  1.5474398E-03  1.3936094E-03
   3.00000  1.6599514E-03  2.0207841E-03  1.7858923E-03
   4.00000  2.2816009E-03  2.9394351E-03  2.5248899E-03
   5.00000  3.8526679E-03  5.4488573E-03  4.4922151E-03
   5.20000  4.3467927E-03  6.2416874E-03  5.1334212E-03
   5.40000  4.8593681E-03  7.0502104E-03  5.8075920E-03
   5.60000  5.3800708E-03  7.8563524E-03  6.4926563E-03
   5.80000  5.9151722E-03  8.6705662E-03  7.1807654E-03
   6.00000  6.4770672E-03  9.5110502E-03  7.8696360E-03
   6.20000  7.0783841E-03  1.0394955E-02  8.5616567E-03
   6.40000  7.7296395E-03  1.1338207E-02  9.2673297E-03
   6.60000  8.4385886E-03  1.2357760E-02  1.0007483E-02
   6.80000  9.2108556E-03  1.3473394E-02  1.0812042E-02
   7.00000  1.0051354E-02  1.4708145E-02  1.1716256E-02
   7.20000  1.0965629E-02  1.6087387E-02  1.2756480E-02
   7.40000  1.1960440E-02  1.7636892E-02  1.3966874E-02
   7.60000  1.3043633E-02  1.9380040E-02  1.5376863E-02
   7.80000  1.4224115E-02  2.1334725E-02  1.7008449E-02
   8.00000  1.5513240E-02  2.3511774E-02  1.8872558E-02
   8.20000  1.6927692E-02  2.5916887E-02  2.0963948E-02
   8.40000  1.8491493E-02  2.8555390E-02  2.3255265E-02
   8.60000  2.0234032E-02  3.1435583E-02  2.5692874E-02
   8.80000  2.2183358E-02  3.4565104E-02  2.8197508E-02
   9.00000  2.4357168E-02  3.7938800E-02  3.0670800E-02
   9.20000  2.6754651E-02  4.1522562E-02  3.3007094E-02
   9.40000  2.9350444E-02  4.5239278E-02  3.5109294E-02
   9.60000  3.2090679E-02  4.8960113E-02  3.6903804E-02
   9.80000  3.4891437E-02  5.2502560E-02  3.8348362E-02
   10.0000  3.7640854E-02  5.5638772E-02  3.9432860E-02
   10.2500  4.0803098E-02  5.8608008E-02  4.0313190E-02
   10.5000  4.3415155E-02  6.0122168E-02  4.0747373E-02
   10.7500  4.5272434E-02  5.9956841E-02  4.0849506E-02
   11.0000  4.6285537E-02  5.8194923E-02  4.0730815E-02
   11.2500  4.6496164E-02  5.5193893E-02  4.0477479E-02
   11.5000  4.6051831E-02  5.1443587E-02  4.0145268E-02
   11.7500  4.5153967E-02  4.7410604E-02  3.9765362E-02
   12.0000  4.4003926E-02  4.3445392E-02  3.9353713E-02
   12.2500  4.2767303E-02  3.9762788E-02  3.8919732E-02
   12.5000  4.1560866E-02  3.6466186E-02  3.8472842E-02
   12.7500  4.0455451E-02  3.3583764E-02  3.8026438E-02
   13.0000  3.9486214E-02  3.1100040E-02  3.7598521E-02
   13.2500  3.8663801E-02  2.8978614E-02  3.7208797E-02
   13.5000  3.7983118E-02  2.7176552E-02  3.6874825E-02
   13.7500  3.7429701E-02  2.5651758E-02  3.6610183E-02
   14.0000  3.6984772E-02  2.4365937E-02  3.6424161E-02
   14.2500  3.6628952E-02  2.3285532E-02  3.6321703E-02
   14.5000  3.6344299E-02  2.2381829E-02  3.6303392E-02
   14.7500  3.6114974E-02  2.1630670E-02  3.6365571E-02
   15.0000  3.5927037E-02  2.1011950E-02  3.6500566E-02
   15.2500  3.5767836E-02  2.0509044E-02  3.6696961E-02
   15.5000  3.5625346E-02  2.0108224E-02  3.6939934E-02
   15.7500  3.5487766E-02  1.9798131E-02  3.7211727E-02
   16.0000  3.5343518E-02  1.9569328E-02  3.7492349E-02
   16.2500  3.5181713E-02  1.9413923E-02  3.7760584E-02
   16.5000  3.4992988E-02  1.9325281E-02  3.7995298E-02
   16.7500  3.4770529E-02  1.9297789E-02  3.8176964E-02
   17.0000  3.4511005E-02  1.9326671E-02  3.8289226E-02
   17.2500  3.4215182E-02  1.9407828E-02  3.8320279E-02
   17.5000  3.3888037E-02  1.9537702E-02  3.8263806E-02
   17.7500  3.3538302E-02  1.9713157E-02  3.8119312E-02
   18.0000  3.3177537E-02  1.9931376E-02  3.7891778E-02
   18.2500  3.2818889E-02  2.0189785E-02  3.7590714E-02
   18.5000  3.2475770E-02  2.0486005E-02  3.7228795E-02
   18.7500  3.2160649E-02  2.0817829E-02  3.6820324E-02
   19.0000  3.1884114E-02  2.1183239E-02  3.6379751E-02
   19.2500  3.1654248E-02  2.1580438E-02  3.5920429E-02
   19.5000  3.1476334E-02  2.2007872E-02  3.5453696E-02
   19.7500  3.1352808E-02  2.2464136E-02  3.4988380E-02
   20.0000  3.1283374E-02  2.2947636E-02  3.4530818E-02
   21.0000  3.1465387E-02  2.5092801E-02  3.2848507E-02
   22.0000  3.2055951E-02  2.7398641E-02  3.1437888E-02
   23.0000  3.2536584E-02  2.9655129E-02  3.0205384E-02
   24.0000  3.2494810E-02  3.1665499E-02  2.9044981E-02
   25.0000  3.1807859E-02  3.3270558E-02  2.7909908E-02
   26.0000  3.0641254E-02  3.4370419E-02  2.6819901E-02
   27.0000  2.9276230E-02  3.4926606E-02  2.5836219E-02
   28.0000  2.7939886E-02  3.4963832E-02  2.5020282E-02
   29.0000  2.6753402E-02  3.4566239E-02  2.4401278E-02
   30.0000  2.5759937E-02  3.3854618E-02  2.3966652E-02
   31.0000  2.4958850E-02  3.2951716E-02  2.3671801E-02
   32.0000  2.4325445E-02  3.1954624E-02  2.3457337E-02
   33.0000  2.3823278E-02  3.0924266E-02  2.3264010E-02
   34.0000  2.3414359E-02  2.9889734E-02  2.3041410E-02
   35.0000  2.3067822E-02  2.8860852E-02  2.2753748E-02
   36.0000  2.2764750E-02  2.7841669E-02  2.2386413E-02
   37.0000  2.2497972E-02  2.6841774E-02  2.1953087E-02
   38.0000  2.2267770E-02  2.5885942E-02  2.1497609E-02
   39.0000  2.2077096E-02  2.5023604E-02  2.1082123E-02
   40.0000  2.1929344E-02  2.4329165E-02  2.0758622E-02
