    Energy   (100,001)      (010,001)      (001,110)   
  -25.0000  1.6093136E-04  1.7957251E-04  1.6401084E-04
  -24.0000  1.6707954E-04  1.8653440E-04  1.7029162E-04
  -23.0000  1.7365892E-04  1.9400671E-04  1.7701517E-04
  -22.0000  1.8071451E-04  2.0204602E-04  1.8422798E-04
  -21.0000  1.8829763E-04  2.1071743E-04  1.9198310E-04
  -20.0000  1.9646714E-04  2.2009621E-04  2.0034141E-04
  -19.0000  2.0529078E-04  2.3026989E-04  2.0937300E-04
  -18.0000  2.1484692E-04  2.4134078E-04  2.1915906E-04
  -17.0000  2.2522672E-04  2.5342920E-04  2.2979407E-04
  -16.0000  2.3653684E-04  2.6667763E-04  2.4138866E-04
  -15.0000  2.4890283E-04  2.8125587E-04  2.5407314E-04
  -14.0000  2.6247349E-04  2.9736795E-04  2.6800208E-04
  -13.0000  2.7742650E-04  3.1526104E-04  2.8336017E-04
  -12.0000  2.9397576E-04  3.3523731E-04  3.0036991E-04
  -11.0000  3.1238109E-04  3.5766998E-04  3.1930171E-04
  -10.0000  3.3296128E-04  3.8302512E-04  3.4048759E-04
  -9.00000  3.5611187E-04  4.1189208E-04  3.6433966E-04
  -8.00000  3.8232987E-04  4.4502655E-04  3.9137599E-04
  -7.00000  4.1224885E-04  4.8341282E-04  4.2225713E-04
  -6.00000  4.4669000E-04  5.2835615E-04  4.5783925E-04
  -5.00000  4.8673843E-04  5.8162354E-04  4.9925344E-04
  -4.00000  5.3386137E-04  6.4566539E-04  5.4802823E-04
  -3.00000  5.9009859E-04  7.2397847E-04  6.0628645E-04
  -2.00000  6.5838522E-04  8.2172867E-04  6.7707792E-04
  -1.00000  7.4313498E-04  9.4688437E-04  7.6497836E-04
   0.00000  8.5138565E-04  1.1124406E-03  8.7726082E-04
   1.00000  9.9531909E-04  1.3412529E-03  1.0264623E-03
   2.00000  1.1987766E-03  1.6781829E-03  1.2369955E-03
   3.00000  1.5187372E-03  2.2282181E-03  1.5668987E-03
   4.00000  2.1486609E-03  3.3277831E-03  2.2125370E-03
   5.00000  3.9581099E-03  6.4342697E-03  4.0494276E-03
   5.20000  4.4954717E-03  7.4119650E-03  4.5883421E-03
   5.40000  4.9944659E-03  8.3948078E-03  5.0877770E-03
   5.60000  5.4384246E-03  9.3592246E-03  5.5353119E-03
   5.80000  5.8419579E-03  1.0321585E-02  5.9469929E-03
   6.00000  6.2278298E-03  1.1309892E-02  6.3426407E-03
   6.20000  6.6162469E-03  1.2351096E-02  6.7373078E-03
   6.40000  7.0227462E-03  1.3469538E-02  7.1421860E-03
   6.60000  7.4587730E-03  1.4688723E-02  7.5674458E-03
   6.80000  7.9327187E-03  1.6033380E-02  8.0243107E-03
   7.00000  8.4509276E-03  1.7530962E-02  8.5257525E-03
   7.20000  9.0187195E-03  1.9212164E-02  9.0859146E-03
   7.40000  9.6414902E-03  2.1110197E-02  9.7187969E-03
   7.60000  1.0325733E-02  2.3258665E-02  1.0436975E-02
   7.80000  1.1079727E-02  2.5688030E-02  1.1250955E-02
   8.00000  1.1913727E-02  2.8420798E-02  1.2169260E-02
   8.20000  1.2839621E-02  3.1465610E-02  1.3199013E-02
   8.40000  1.3870104E-02  3.4810832E-02  1.4346594E-02
   8.60000  1.5017440E-02  3.8419195E-02  1.5617913E-02
   8.80000  1.6291970E-02  4.2224910E-02  1.7018010E-02
   9.00000  1.7700605E-02  4.6133237E-02  1.8549931E-02
   9.20000  1.9245368E-02  5.0018606E-02  2.0213086E-02
   9.40000  2.0921508E-02  5.3715475E-02  2.2001463E-02
   9.60000  2.2715242E-02  5.7009750E-02  2.3901867E-02
   9.80000  2.4601802E-02  5.9652223E-02  2.5892283E-02
   10.0000  2.6544019E-02  6.1402546E-02  2.7940710E-02
   10.2500  2.8972548E-02  6.2085576E-02  3.0518057E-02
   10.5000  3.1288099E-02  6.1045822E-02  3.3021867E-02
   10.7500  3.3362110E-02  5.8526227E-02  3.5348577E-02
   11.0000  3.5084247E-02  5.4979979E-02  3.7403721E-02
   11.2500  3.6385722E-02  5.0908976E-02  3.9115373E-02
   11.5000  3.7251827E-02  4.6736404E-02  4.0443310E-02
   11.7500  3.7719852E-02  4.2752511E-02  4.1381836E-02
   12.0000  3.7864592E-02  3.9118581E-02  4.1956670E-02
   12.2500  3.7778308E-02  3.5898745E-02  4.2217356E-02
   12.5000  3.7552119E-02  3.3097311E-02  4.2227350E-02
   12.7500  3.7263221E-02  3.0688469E-02  4.2054885E-02
   13.0000  3.6969484E-02  2.8633956E-02  4.1766079E-02
   13.2500  3.6709913E-02  2.6891985E-02  4.1419649E-02
   13.5000  3.6507854E-02  2.5421847E-02  4.1063465E-02
   13.7500  3.6374643E-02  2.4186311E-02  4.0733262E-02
   14.0000  3.6312791E-02  2.3152651E-02  4.0452929E-02
   14.2500  3.6318513E-02  2.2292813E-02  4.0235594E-02
   14.5000  3.6383657E-02  2.1583109E-02  4.0085022E-02
   14.7500  3.6497176E-02  2.1003712E-02  3.9997075E-02
   15.0000  3.6646318E-02  2.0538095E-02  3.9961198E-02
   15.2500  3.6817618E-02  2.0172506E-02  3.9961997E-02
   15.5000  3.6997786E-02  1.9895502E-02  3.9980960E-02
   15.7500  3.7174491E-02  1.9697551E-02  3.9998350E-02
   16.0000  3.7337061E-02  1.9570709E-02  3.9995160E-02
   16.2500  3.7477088E-02  1.9508349E-02  3.9954956E-02
   16.5000  3.7588906E-02  1.9504942E-02  3.9865373E-02
   16.7500  3.7669909E-02  1.9555875E-02  3.9719025E-02
   17.0000  3.7720645E-02  1.9657296E-02  3.9513740E-02
   17.2500  3.7744648E-02  1.9805972E-02  3.9252117E-02
   17.5000  3.7747996E-02  1.9999168E-02  3.8940583E-02
   17.7500  3.7738615E-02  2.0234525E-02  3.8588167E-02
   18.0000  3.7725428E-02  2.0509953E-02  3.8205239E-02
   18.2500  3.7717443E-02  2.0823526E-02  3.7802391E-02
   18.5000  3.7722910E-02  2.1173393E-02  3.7389576E-02
   18.7500  3.7748620E-02  2.1557706E-02  3.6975517E-02
   19.0000  3.7799418E-02  2.1974583E-02  3.6567372E-02
   19.2500  3.7877937E-02  2.2422111E-02  3.6170584E-02
   19.5000  3.7984528E-02  2.2898366E-02  3.5788865E-02
   19.7500  3.8117285E-02  2.3401379E-02  3.5424299E-02
   20.0000  3.8272029E-02  2.3928879E-02  3.5077602E-02
   21.0000  3.8951075E-02  2.6207886E-02  3.3859189E-02
   22.0000  3.9239858E-02  2.8537698E-02  3.2840351E-02
   23.0000  3.8592467E-02  3.0622625E-02  3.1896691E-02
   24.0000  3.6881385E-02  3.2204815E-02  3.0944217E-02
   25.0000  3.4437063E-02  3.3187052E-02  2.9958017E-02
   26.0000  3.1770585E-02  3.3589507E-02  2.8961427E-02
   27.0000  2.9302570E-02  3.3496461E-02  2.8014871E-02
   28.0000  2.7258749E-02  3.3034916E-02  2.7190095E-02
   29.0000  2.5693199E-02  3.2345518E-02  2.6531361E-02
   30.0000  2.4555937E-02  3.1547861E-02  2.6034175E-02
   31.0000  2.3752234E-02  3.0719304E-02  2.5655091E-02
   32.0000  2.3178620E-02  2.9894793E-02  2.5332812E-02
   33.0000  2.2739919E-02  2.9079845E-02  2.5003303E-02
   34.0000  2.2355425E-02  2.8265753E-02  2.4608335E-02
   35.0000  2.1961603E-02  2.7441191E-02  2.4102863E-02
   36.0000  2.1516810E-02  2.6599122E-02  2.3464802E-02
   37.0000  2.1009135E-02  2.5742229E-02  2.2705714E-02
   38.0000  2.0462448E-02  2.4891460E-02  2.1878557E-02
   39.0000  1.9933362E-02  2.4098233E-02  2.1077243E-02
   40.0000  1.9493383E-02  2.3446092E-02  2.0415196E-02
