    Energy   (100,001)      (010,001)      (001,110)   
  -25.0000  1.7698866E-04  1.8248799E-04  1.7606058E-04
  -24.0000  1.8314630E-04  1.8939667E-04  1.8240950E-04
  -23.0000  1.8971043E-04  1.9680264E-04  1.8919036E-04
  -22.0000  1.9672174E-04  2.0476017E-04  1.9644755E-04
  -21.0000  2.0422650E-04  2.1333164E-04  2.0423173E-04
  -20.0000  2.1227755E-04  2.2258902E-04  2.1260086E-04
  -19.0000  2.2093546E-04  2.3261585E-04  2.2162167E-04
  -18.0000  2.3027004E-04  2.4350958E-04  2.3137131E-04
  -17.0000  2.4036219E-04  2.5538458E-04  2.4193946E-04
  -16.0000  2.5130611E-04  2.6837596E-04  2.5343103E-04
  -15.0000  2.6321226E-04  2.8264438E-04  2.6596949E-04
  -14.0000  2.7621096E-04  2.9838240E-04  2.7970116E-04
  -13.0000  2.9045711E-04  3.1582265E-04  2.9480077E-04
  -12.0000  3.0613637E-04  3.3524876E-04  3.1147875E-04
  -11.0000  3.2347314E-04  3.5700995E-04  3.2999083E-04
  -10.0000  3.4274146E-04  3.8154090E-04  3.5065105E-04
  -9.00000  3.6427966E-04  4.0938937E-04  3.7384949E-04
  -8.00000  3.8851078E-04  4.4125504E-04  4.0007702E-04
  -7.00000  4.1597139E-04  4.7804552E-04  4.2996064E-04
  -6.00000  4.4735347E-04  5.2095903E-04  4.6431494E-04
  -5.00000  4.8356703E-04  5.7160975E-04  5.0421963E-04
  -4.00000  5.2583683E-04  6.3222421E-04  5.5114005E-04
  -3.00000  5.7585854E-04  7.0596088E-04  6.0712245E-04
  -2.00000  6.3606373E-04  7.9745513E-04  6.7512684E-04
  -1.00000  7.1010053E-04  9.1380379E-04  7.5963130E-04
   0.00000  8.0378262E-04  1.0664819E-03  8.6782312E-04
   1.00000  9.2719180E-04  1.2754690E-03  1.0122220E-03
   2.00000  1.1001569E-03  1.5794984E-03  1.2174403E-03
   3.00000  1.3704341E-03  2.0677507E-03  1.5422526E-03
   4.00000  1.9013390E-03  3.0196132E-03  2.1840267E-03
   5.00000  3.4346260E-03  5.6262331E-03  4.0307680E-03
   5.20000  3.8987699E-03  6.4520760E-03  4.5947234E-03
   5.40000  4.3386563E-03  7.2999721E-03  5.1301165E-03
   5.60000  4.7393645E-03  8.1566555E-03  5.6134060E-03
   5.80000  5.1094904E-03  9.0385771E-03  6.0542178E-03
   6.00000  5.4627813E-03  9.9688168E-03  6.4766216E-03
   6.20000  5.8104146E-03  1.0966800E-02  6.9076133E-03
   6.40000  6.1600873E-03  1.2047146E-02  7.3725300E-03
   6.60000  6.5167642E-03  1.3221256E-02  7.8936853E-03
   6.80000  6.8836934E-03  1.4498981E-02  8.4899916E-03
   7.00000  7.2637288E-03  1.5889673E-02  9.1763723E-03
   7.20000  7.6606900E-03  1.7402661E-02  9.9626679E-03
   7.40000  8.0800675E-03  1.9047448E-02  1.0852313E-02
   7.60000  8.5288010E-03  2.0833735E-02  1.1841186E-02
   7.80000  9.0145289E-03  2.2771068E-02  1.2916941E-02
   8.00000  9.5448981E-03  2.4867829E-02  1.4059125E-02
   8.20000  1.0127272E-02  2.7129639E-02  1.5240435E-02
   8.40000  1.0768820E-02  2.9557231E-02  1.6429433E-02
   8.60000  1.1476753E-02  3.2144035E-02  1.7594629E-02
   8.80000  1.2258475E-02  3.4874038E-02  1.8709490E-02
   9.00000  1.3121469E-02  3.7720498E-02  1.9757647E-02
   9.20000  1.4072807E-02  4.0645391E-02  2.0737141E-02
   9.40000  1.5118267E-02  4.3598523E-02  2.1662010E-02
   9.60000  1.6261069E-02  4.6514936E-02  2.2559588E-02
   9.80000  1.7500266E-02  4.9310542E-02  2.3463215E-02
   10.0000  1.8828822E-02  5.1878386E-02  2.4402045E-02
   10.2500  2.0591494E-02  5.4571335E-02  2.5646060E-02
   10.5000  2.2421707E-02  5.6442882E-02  2.6950411E-02
   10.7500  2.4255405E-02  5.7276884E-02  2.8248043E-02
   11.0000  2.6022141E-02  5.6971216E-02  2.9446586E-02
   11.2500  2.7655689E-02  5.5569932E-02  3.0467730E-02
   11.5000  2.9102176E-02  5.3253629E-02  3.1269224E-02
   11.7500  3.0325090E-02  5.0290694E-02  3.1844407E-02
   12.0000  3.1307849E-02  4.6969519E-02  3.2214674E-02
   12.2500  3.2054644E-02  4.3543466E-02  3.2420054E-02
   12.5000  3.2589147E-02  4.0204115E-02  3.2509066E-02
   12.7500  3.2950092E-02  3.7078424E-02  3.2530242E-02
   13.0000  3.3184611E-02  3.4238506E-02  3.2525565E-02
   13.2500  3.3340777E-02  3.1714913E-02  3.2526700E-02
   13.5000  3.3460914E-02  2.9509491E-02  3.2555628E-02
   13.7500  3.3578037E-02  2.7606447E-02  3.2628015E-02
   14.0000  3.3715474E-02  2.5980754E-02  3.2756295E-02
   14.2500  3.3888000E-02  2.4603802E-02  3.2951222E-02
   14.5000  3.4103421E-02  2.3446844E-02  3.3222090E-02
   14.7500  3.4364112E-02  2.2482906E-02  3.3576191E-02
   15.0000  3.4668307E-02  2.1687697E-02  3.4017920E-02
   15.2500  3.5011053E-02  2.1039903E-02  3.4547837E-02
   15.5000  3.5384878E-02  2.0521117E-02  3.5161793E-02
   15.7500  3.5780264E-02  2.0115600E-02  3.5850256E-02
   16.0000  3.6186024E-02  1.9809970E-02  3.6597919E-02
   16.2500  3.6589702E-02  1.9592883E-02  3.7383745E-02
   16.5000  3.6978062E-02  1.9454734E-02  3.8181583E-02
   16.7500  3.7337714E-02  1.9387403E-02  3.8961477E-02
   17.0000  3.7655875E-02  1.9384041E-02  3.9691684E-02
   17.2500  3.7921218E-02  1.9438884E-02  4.0341244E-02
   17.5000  3.8124728E-02  1.9547107E-02  4.0882793E-02
   17.7500  3.8260431E-02  1.9704690E-02  4.1295156E-02
   18.0000  3.8325911E-02  1.9908290E-02  4.1565253E-02
   18.2500  3.8322491E-02  2.0155125E-02  4.1688969E-02
   18.5000  3.8255056E-02  2.0442869E-02  4.1670872E-02
   18.7500  3.8131515E-02  2.0769558E-02  4.1522890E-02
   19.0000  3.7961980E-02  2.1133521E-02  4.1262271E-02
   19.2500  3.7757763E-02  2.1533340E-02  4.0909211E-02
   19.5000  3.7530333E-02  2.1967821E-02  4.0484550E-02
   19.7500  3.7290412E-02  2.2435904E-02  4.0007931E-02
   20.0000  3.7047436E-02  2.2936369E-02  3.9496810E-02
   21.0000  3.6189094E-02  2.5211376E-02  3.7385980E-02
   22.0000  3.5678123E-02  2.7756387E-02  3.5559782E-02
   23.0000  3.5446310E-02  3.0308601E-02  3.4131091E-02
   24.0000  3.5252383E-02  3.2557615E-02  3.3002308E-02
   25.0000  3.4855469E-02  3.4207414E-02  3.2044974E-02
   26.0000  3.4133149E-02  3.5077147E-02  3.1154839E-02
   27.0000  3.3121100E-02  3.5173001E-02  3.0269606E-02
   28.0000  3.1969625E-02  3.4674745E-02  2.9392731E-02
   29.0000  3.0847859E-02  3.3838069E-02  2.8590627E-02
   30.0000  2.9849055E-02  3.2866494E-02  2.7925131E-02
   31.0000  2.9004938E-02  3.1881425E-02  2.7417814E-02
   32.0000  2.8318457E-02  3.0941052E-02  2.7048875E-02
   33.0000  2.7775070E-02  3.0060049E-02  2.6772230E-02
   34.0000  2.7349538E-02  2.9227500E-02  2.6534266E-02
   35.0000  2.7011732E-02  2.8421838E-02  2.6286539E-02
   36.0000  2.6730086E-02  2.7623397E-02  2.5993451E-02
   37.0000  2.6475478E-02  2.6824881E-02  2.5638718E-02
   38.0000  2.6227502E-02  2.6040504E-02  2.5231936E-02
   39.0000  2.5984488E-02  2.5314215E-02  2.4813919E-02
   40.0000  2.5771175E-02  2.4718824E-02  2.4451903E-02
