    Energy   (100,001)      (010,001)      (001,110)   
  -25.0000  1.6729199E-04  1.9207323E-04  1.7711068E-04
  -24.0000  1.7346176E-04  1.9905010E-04  1.8362622E-04
  -23.0000  1.8005311E-04  2.0651675E-04  1.9059271E-04
  -22.0000  1.8710906E-04  2.1452582E-04  1.9805714E-04
  -21.0000  1.9467862E-04  2.2313766E-04  2.0607314E-04
  -20.0000  2.0281776E-04  2.3242185E-04  2.1470222E-04
  -19.0000  2.1159077E-04  2.4245901E-04  2.2401521E-04
  -18.0000  2.2107180E-04  2.5334303E-04  2.3409410E-04
  -17.0000  2.3134681E-04  2.6518392E-04  2.4503435E-04
  -16.0000  2.4251603E-04  2.7811138E-04  2.5694765E-04
  -15.0000  2.5469701E-04  2.9227940E-04  2.6996562E-04
  -14.0000  2.6802853E-04  3.0787214E-04  2.8424432E-04
  -13.0000  2.8267554E-04  3.2511168E-04  2.9997023E-04
  -12.0000  2.9883572E-04  3.4426814E-04  3.1736796E-04
  -11.0000  3.1674790E-04  3.6567337E-04  3.3671052E-04
  -10.0000  3.3670343E-04  3.8973942E-04  3.5833301E-04
  -9.00000  3.5906148E-04  4.1698416E-04  3.8265131E-04
  -8.00000  3.8427009E-04  4.4806724E-04  4.1018801E-04
  -7.00000  4.1289570E-04  4.8384179E-04  4.4160901E-04
  -6.00000  4.4566556E-04  5.2543047E-04  4.7777662E-04
  -5.00000  4.8353017E-04  5.7434040E-04  5.1982834E-04
  -4.00000  5.2775816E-04  6.3264276E-04  5.6929789E-04
  -3.00000  5.8008601E-04  7.0326410E-04  6.2830789E-04
  -2.00000  6.4296555E-04  7.9048176E-04  6.9989176E-04
  -1.00000  7.1999758E-04  9.0081721E-04  7.8856365E-04
   0.00000  8.1675308E-04  1.0447738E-03  9.0140871E-04
   1.00000  9.4250203E-04  1.2405824E-03  1.0504013E-03
   2.00000  1.1144573E-03  1.5235477E-03  1.2581457E-03
   3.00000  1.3709660E-03  1.9752312E-03  1.5758501E-03
   4.00000  1.8313053E-03  2.8542150E-03  2.1652785E-03
   5.00000  3.0057173E-03  5.2727432E-03  3.7194164E-03
   5.20000  3.3593997E-03  6.0286214E-03  4.1853298E-03
   5.40000  3.7061755E-03  6.7900528E-03  4.6385716E-03
   5.60000  4.0355404E-03  7.5415929E-03  5.0687442E-03
   5.80000  4.3529228E-03  8.2982769E-03  5.4865748E-03
   6.00000  4.6694689E-03  9.0833055E-03  5.9077892E-03
   6.20000  4.9971782E-03  9.9180599E-03  6.3471727E-03
   6.40000  5.3476561E-03  1.0820524E-02  6.8188502E-03
   6.60000  5.7318226E-03  1.1806047E-02  7.3375407E-03
   6.80000  6.1597747E-03  1.2888146E-02  7.9190104E-03
   7.00000  6.6407219E-03  1.4078854E-02  8.5796581E-03
   7.20000  7.1829643E-03  1.5388734E-02  9.3355852E-03
   7.40000  7.7938552E-03  1.6826589E-02  1.0201360E-02
   7.60000  8.4797490E-03  1.8398579E-02  1.1188537E-02
   7.80000  9.2460930E-03  2.0106823E-02  1.2304101E-02
   8.00000  1.0097847E-02  2.1947910E-02  1.3549120E-02
   8.20000  1.1040217E-02  2.3911913E-02  1.4917902E-02
   8.40000  1.2079366E-02  2.5982700E-02  1.6397960E-02
   8.60000  1.3222502E-02  2.8140243E-02  1.7971166E-02
   8.80000  1.4476803E-02  3.0365051E-02  1.9616374E-02
   9.00000  1.5847067E-02  3.2643907E-02  2.1313243E-02
   9.20000  1.7332681E-02  3.4974972E-02  2.3046154E-02
   9.40000  1.8924913E-02  3.7368707E-02  2.4806738E-02
   9.60000  2.0605158E-02  3.9841240E-02  2.6593318E-02
   9.80000  2.2344483E-02  4.2400817E-02  2.8406595E-02
   10.0000  2.4104723E-02  4.5031117E-02  3.0243273E-02
   10.2500  2.6265766E-02  4.8328987E-02  3.2551121E-02
   10.5000  2.8297777E-02  5.1436376E-02  3.4822114E-02
   10.7500  3.0121366E-02  5.4053666E-02  3.6978269E-02
   11.0000  3.1684525E-02  5.5861705E-02  3.8928794E-02
   11.2500  3.2968930E-02  5.6619019E-02  4.0589077E-02
   11.5000  3.3987039E-02  5.6241349E-02  4.1899107E-02
   11.7500  3.4773839E-02  5.4820901E-02  4.2831803E-02
   12.0000  3.5374812E-02  5.2580740E-02  4.3388534E-02
   12.2500  3.5834419E-02  4.9797870E-02  4.3590060E-02
   12.5000  3.6189906E-02  4.6734897E-02  4.3471321E-02
   12.7500  3.6468617E-02  4.3602019E-02  4.3077897E-02
   13.0000  3.6687867E-02  4.0548427E-02  4.2462252E-02
   13.2500  3.6858742E-02  3.7669881E-02  4.1681231E-02
   13.5000  3.6991362E-02  3.5020718E-02  4.0794184E-02
   13.7500  3.7098042E-02  3.2625327E-02  3.9860050E-02
   14.0000  3.7193448E-02  3.0487782E-02  3.8933415E-02
   14.2500  3.7292721E-02  2.8599363E-02  3.8060759E-02
   14.5000  3.7408976E-02  2.6944055E-02  3.7277960E-02
   14.7500  3.7551202E-02  2.5502348E-02  3.6609414E-02
   15.0000  3.7723090E-02  2.4253737E-02  3.6068470E-02
   15.2500  3.7922797E-02  2.3178262E-02  3.5658688E-02
   15.5000  3.8143431E-02  2.2257379E-02  3.5375415E-02
   15.7500  3.8373955E-02  2.1474371E-02  3.5207359E-02
   16.0000  3.8600339E-02  2.0814458E-02  3.5138061E-02
   16.2500  3.8806870E-02  2.0264736E-02  3.5147294E-02
   16.5000  3.8977612E-02  1.9814009E-02  3.5212487E-02
   16.7500  3.9097954E-02  1.9452580E-02  3.5310243E-02
   17.0000  3.9156191E-02  1.9172027E-02  3.5417953E-02
   17.2500  3.9144935E-02  1.8965002E-02  3.5515381E-02
   17.5000  3.9062165E-02  1.8825056E-02  3.5586061E-02
   17.7500  3.8911683E-02  1.8746491E-02  3.5618267E-02
   18.0000  3.8702865E-02  1.8724258E-02  3.5605422E-02
   18.2500  3.8449729E-02  1.8753879E-02  3.5545880E-02
   18.5000  3.8169493E-02  1.8831398E-02  3.5442194E-02
   18.7500  3.7880876E-02  1.8953360E-02  3.5300040E-02
   19.0000  3.7602424E-02  1.9116798E-02  3.5127014E-02
   19.2500  3.7351077E-02  1.9319244E-02  3.4931484E-02
   19.5000  3.7141079E-02  1.9558738E-02  3.4721631E-02
   19.7500  3.6983295E-02  1.9833784E-02  3.4504766E-02
   20.0000  3.6884939E-02  2.0143175E-02  3.4287006E-02
   21.0000  3.7120158E-02  2.1696804E-02  3.3493954E-02
   22.0000  3.8169812E-02  2.3694565E-02  3.2914717E-02
   23.0000  3.9393068E-02  2.6049184E-02  3.2492474E-02
   24.0000  3.9900031E-02  2.8608602E-02  3.2075534E-02
   25.0000  3.9003080E-02  3.1132494E-02  3.1524943E-02
   26.0000  3.6694742E-02  3.3328798E-02  3.0775664E-02
   27.0000  3.3623390E-02  3.4939987E-02  2.9851104E-02
   28.0000  3.0563365E-02  3.5830370E-02  2.8844740E-02
   29.0000  2.8000252E-02  3.6027690E-02  2.7890412E-02
   30.0000  2.6086411E-02  3.5692397E-02  2.7110145E-02
   31.0000  2.4753762E-02  3.5022826E-02  2.6545740E-02
   32.0000  2.3861797E-02  3.4185260E-02  2.6171727E-02
   33.0000  2.3275221E-02  3.3292096E-02  2.5930624E-02
   34.0000  2.2882682E-02  3.2405940E-02  2.5754751E-02
   35.0000  2.2598351E-02  3.1553623E-02  2.5580553E-02
   36.0000  2.2359556E-02  3.0742826E-02  2.5358492E-02
   37.0000  2.2125148E-02  2.9977170E-02  2.5061056E-02
   38.0000  2.1876597E-02  2.9267678E-02  2.4690622E-02
   39.0000  2.1621940E-02  2.8641566E-02  2.4286905E-02
   40.0000  2.1394790E-02  2.8144314E-02  2.3924841E-02
