    Energy   (100,001)      (010,001)      (001,110)   
  -25.0000  1.6901461E-04  1.8192752E-04  1.7422587E-04
  -24.0000  1.7524451E-04  1.8881334E-04  1.8065280E-04
  -23.0000  1.8190284E-04  1.9619432E-04  1.8752448E-04
  -22.0000  1.8903386E-04  2.0412445E-04  1.9488723E-04
  -21.0000  1.9668806E-04  2.1266573E-04  2.0279395E-04
  -20.0000  2.0492328E-04  2.2188973E-04  2.1130527E-04
  -19.0000  2.1380604E-04  2.3187948E-04  2.2049108E-04
  -18.0000  2.2341334E-04  2.4273183E-04  2.3043228E-04
  -17.0000  2.3383467E-04  2.5456042E-04  2.4122309E-04
  -16.0000  2.4517473E-04  2.6749944E-04  2.5297382E-04
  -15.0000  2.5755675E-04  2.8170848E-04  2.6581455E-04
  -14.0000  2.7112680E-04  2.9737873E-04  2.7989964E-04
  -13.0000  2.8605930E-04  3.1474110E-04  2.9541372E-04
  -12.0000  3.0256429E-04  3.3407709E-04  3.1257947E-04
  -11.0000  3.2089703E-04  3.5573316E-04  3.3166797E-04
  -10.0000  3.4137088E-04  3.8014050E-04  3.5301257E-04
  -9.00000  3.6437496E-04  4.0784227E-04  3.7702801E-04
  -8.00000  3.9039872E-04  4.3953216E-04  4.0423690E-04
  -7.00000  4.2006689E-04  4.7610979E-04  4.3530761E-04
  -6.00000  4.5419039E-04  5.1876268E-04  4.7110938E-04
  -5.00000  4.9384265E-04  5.6909047E-04  5.1279502E-04
  -4.00000  5.4047795E-04  6.2929991E-04  5.6192903E-04
  -3.00000  5.9612217E-04  7.0252256E-04  6.2069379E-04
  -2.00000  6.6369603E-04  7.9335814E-04  6.9223780E-04
  -1.00000  7.4759729E-04  9.0886021E-04  7.8129874E-04
   0.00000  8.5483661E-04  1.0604677E-03  8.9540575E-04
   1.00000  9.9750559E-04  1.2682062E-03  1.0474434E-03
   2.00000  1.1990262E-03  1.5712929E-03  1.2619468E-03
   3.00000  1.5141065E-03  2.0617635E-03  1.5942177E-03
   4.00000  2.1208429E-03  3.0381126E-03  2.2121440E-03
   5.00000  3.7971381E-03  5.8059528E-03  3.8209106E-03
   5.20000  4.3074171E-03  6.6657105E-03  4.3436022E-03
   5.40000  4.8052140E-03  7.5137274E-03  4.9025338E-03
   5.60000  5.2797265E-03  8.3252972E-03  5.4915962E-03
   5.80000  5.7448496E-03  9.1141503E-03  6.1174090E-03
   6.00000  6.2208846E-03  9.9061400E-03  6.7885669E-03
   6.20000  6.7261224E-03  1.0727387E-02  7.5115999E-03
   6.40000  7.2751353E-03  1.1602248E-02  8.2920478E-03
   6.60000  7.8792895E-03  1.2553880E-02  9.1369677E-03
   6.80000  8.5478227E-03  1.3604998E-02  1.0056096E-02
   7.00000  9.2886928E-03  1.4778395E-02  1.1059950E-02
   7.20000  1.0108652E-02  1.6097107E-02  1.2154850E-02
   7.40000  1.1012403E-02  1.7584318E-02  1.3336533E-02
   7.60000  1.2001028E-02  1.9263151E-02  1.4585074E-02
   7.80000  1.3069991E-02  2.1156123E-02  1.5863975E-02
   8.00000  1.4207092E-02  2.3283802E-02  1.7125124E-02
   8.20000  1.5390952E-02  2.5662480E-02  1.8319015E-02
   8.40000  1.6591230E-02  2.8300930E-02  1.9407052E-02
   8.60000  1.7772243E-02  3.1196411E-02  2.0371631E-02
   8.80000  1.8901003E-02  3.4329989E-02  2.1220513E-02
   9.00000  1.9958013E-02  3.7661123E-02  2.1984084E-02
   9.20000  2.0945651E-02  4.1121684E-02  2.2706233E-02
   9.40000  2.1888433E-02  4.4610496E-02  2.3431707E-02
   9.60000  2.2823686E-02  4.7991149E-02  2.4194275E-02
   9.80000  2.3787103E-02  5.1097122E-02  2.5009594E-02
   10.0000  2.4799904E-02  5.3747366E-02  2.5874315E-02
   10.2500  2.6133596E-02  5.6163553E-02  2.6996379E-02
   10.5000  2.7500865E-02  5.7371354E-02  2.8117755E-02
   10.7500  2.8830357E-02  5.7310975E-02  2.9193058E-02
   11.0000  3.0042490E-02  5.6105792E-02  3.0189334E-02
   11.2500  3.1066161E-02  5.4006630E-02  3.1083661E-02
   11.5000  3.1856350E-02  5.1310946E-02  3.1861444E-02
   11.7500  3.2405590E-02  4.8295608E-02  3.2517144E-02
   12.0000  3.2741481E-02  4.5180314E-02  3.3055359E-02
   12.2500  3.2914627E-02  4.2119079E-02  3.3490946E-02
   12.5000  3.2984435E-02  3.9210145E-02  3.3846869E-02
   12.7500  3.3007623E-02  3.6512164E-02  3.4150176E-02
   13.0000  3.3031732E-02  3.4056549E-02  3.4427376E-02
   13.2500  3.3092891E-02  3.1855258E-02  3.4700720E-02
   13.5000  3.3215995E-02  2.9906841E-02  3.4987107E-02
   13.7500  3.3415912E-02  2.8201340E-02  3.5298938E-02
   14.0000  3.3698899E-02  2.6723668E-02  3.5645096E-02
   14.2500  3.4063754E-02  2.5455839E-02  3.6031385E-02
   14.5000  3.4502593E-02  2.4378603E-02  3.6460422E-02
   14.7500  3.5001406E-02  2.3472681E-02  3.6931145E-02
   15.0000  3.5540642E-02  2.2719637E-02  3.7438202E-02
   15.2500  3.6096057E-02  2.2102411E-02  3.7971558E-02
   15.5000  3.6640027E-02  2.1605572E-02  3.8516600E-02
   15.7500  3.7143442E-02  2.1215373E-02  3.9054896E-02
   16.0000  3.7578127E-02  2.0919678E-02  3.9565616E-02
   16.2500  3.7919566E-02  2.0707825E-02  4.0027427E-02
   16.5000  3.8149538E-02  2.0570463E-02  4.0420589E-02
   16.7500  3.8258170E-02  2.0499384E-02  4.0728883E-02
   17.0000  3.8244995E-02  2.0487374E-02  4.0941063E-02
   17.2500  3.8118777E-02  2.0528071E-02  4.1051614E-02
   17.5000  3.7896173E-02  2.0615861E-02  4.1060768E-02
   17.7500  3.7599506E-02  2.0745782E-02  4.0973884E-02
   18.0000  3.7254138E-02  2.0913460E-02  4.0800374E-02
   18.2500  3.6885890E-02  2.1115051E-02  4.0552417E-02
   18.5000  3.6518872E-02  2.1347203E-02  4.0243667E-02
   18.7500  3.6173936E-02  2.1607030E-02  3.9888084E-02
   19.0000  3.5867786E-02  2.1892109E-02  3.9498979E-02
   19.2500  3.5612666E-02  2.2200488E-02  3.9088286E-02
   19.5000  3.5416473E-02  2.2530709E-02  3.8666065E-02
   19.7500  3.5283119E-02  2.2881767E-02  3.8240257E-02
   20.0000  3.5213011E-02  2.3252928E-02  3.7816817E-02
   21.0000  3.5484920E-02  2.4917470E-02  3.6223519E-02
   22.0000  3.6301144E-02  2.6812188E-02  3.4858691E-02
   23.0000  3.7094311E-02  2.8843645E-02  3.3660125E-02
   24.0000  3.7324578E-02  3.0851739E-02  3.2515939E-02
   25.0000  3.6680899E-02  3.2615002E-02  3.1352877E-02
   26.0000  3.5206138E-02  3.3908987E-02  3.0167471E-02
   27.0000  3.3246489E-02  3.4593181E-02  2.9028815E-02
   28.0000  3.1232702E-02  3.4671370E-02  2.8037325E-02
   29.0000  2.9440360E-02  3.4270453E-02  2.7244889E-02
   30.0000  2.7974884E-02  3.3561450E-02  2.6647695E-02
   31.0000  2.6837224E-02  3.2694038E-02  2.6211782E-02
   32.0000  2.5973160E-02  3.1768725E-02  2.5892130E-02
   33.0000  2.5308000E-02  3.0836872E-02  2.5643018E-02
   34.0000  2.4768674E-02  2.9914252E-02  2.5421420E-02
   35.0000  2.4295569E-02  2.8997696E-02  2.5187863E-02
   36.0000  2.3847281E-02  2.8079950E-02  2.4908639E-02
   37.0000  2.3402049E-02  2.7161947E-02  2.4561589E-02
   38.0000  2.2958766E-02  2.6263873E-02  2.4146735E-02
   39.0000  2.2539389E-02  2.5436231E-02  2.3700759E-02
   40.0000  2.2187381E-02  2.4760480E-02  2.3301329E-02
