    Energy   (100,001)      (010,001)      (001,110)   
  -25.0000  1.6592801E-04  1.8879465E-04  1.8053250E-04
  -24.0000  1.7198972E-04  1.9579429E-04  1.8707234E-04
  -23.0000  1.7846171E-04  2.0329209E-04  1.9406073E-04
  -22.0000  1.8538551E-04  2.1134208E-04  2.0154425E-04
  -21.0000  1.9280836E-04  2.2000628E-04  2.0957604E-04
  -20.0000  2.0078422E-04  2.2935627E-04  2.1821706E-04
  -19.0000  2.0937494E-04  2.3947505E-04  2.2753753E-04
  -18.0000  2.1865186E-04  2.5045936E-04  2.3761875E-04
  -17.0000  2.2869758E-04  2.6242272E-04  2.4855541E-04
  -16.0000  2.3960832E-04  2.7549906E-04  2.6045839E-04
  -15.0000  2.5149686E-04  2.8984761E-04  2.7345843E-04
  -14.0000  2.6449619E-04  3.0565898E-04  2.8771072E-04
  -13.0000  2.7876430E-04  3.2316331E-04  3.0340093E-04
  -12.0000  2.9449032E-04  3.4264089E-04  3.2075302E-04
  -11.0000  3.1190264E-04  3.6443652E-04  3.4003974E-04
  -10.0000  3.3127966E-04  3.8897889E-04  3.6159665E-04
  -9.00000  3.5296445E-04  4.1680759E-04  3.8584139E-04
  -8.00000  3.7738483E-04  4.4861094E-04  4.1330064E-04
  -7.00000  4.0508168E-04  4.8528057E-04  4.4464845E-04
  -6.00000  4.3674970E-04  5.2799173E-04  4.8076236E-04
  -5.00000  4.7329765E-04  5.7832487E-04  5.2280775E-04
  -4.00000  5.1594047E-04  6.3845586E-04  5.7236896E-04
  -3.00000  5.6634573E-04  7.1146490E-04  6.3166158E-04
  -2.00000  6.2687796E-04  8.0186260E-04  7.0389334E-04
  -1.00000  7.0103232E-04  9.1653968E-04  7.9391647E-04
   0.00000  7.9426930E-04  1.0666166E-03  9.0950448E-04
   1.00000  9.1580819E-04  1.2714348E-03  1.0641299E-03
   2.00000  1.0831393E-03  1.5685317E-03  1.2839757E-03
   3.00000  1.3364363E-03  2.0448405E-03  1.6300125E-03
   4.00000  1.8055350E-03  2.9767705E-03  2.2964211E-03
   5.00000  3.0615204E-03  5.5592032E-03  4.1451907E-03
   5.20000  3.4432896E-03  6.3710842E-03  4.7658649E-03
   5.40000  3.8153027E-03  7.1912365E-03  5.4324583E-03
   5.60000  4.1656818E-03  8.0014008E-03  6.1282970E-03
   5.80000  4.4998289E-03  8.8143005E-03  6.8445197E-03
   6.00000  4.8280915E-03  9.6493509E-03  7.5665913E-03
   6.20000  5.1600645E-03  1.0521363E-02  8.2702203E-03
   6.40000  5.5035671E-03  1.1439366E-02  8.9274541E-03
   6.60000  5.8651240E-03  1.2410039E-02  9.5193072E-03
   6.80000  6.2507796E-03  1.3442744E-02  1.0047774E-02
   7.00000  6.6668123E-03  1.4553422E-02  1.0538795E-02
   7.20000  7.1200963E-03  1.5765524E-02  1.1033983E-02
   7.40000  7.6180740E-03  1.7108258E-02  1.1577615E-02
   7.60000  8.1684975E-03  1.8613831E-02  1.2206986E-02
   7.80000  8.7791005E-03  2.0315156E-02  1.2948895E-02
   8.00000  9.4572588E-03  2.2244268E-02  1.3820106E-02
   8.20000  1.0209636E-02  2.4430612E-02  1.4828785E-02
   8.40000  1.1041802E-02  2.6898132E-02  1.5975381E-02
   8.60000  1.1957899E-02  2.9660379E-02  1.7252935E-02
   8.80000  1.2960512E-02  3.2713591E-02  1.8647516E-02
   9.00000  1.4051041E-02  3.6028906E-02  2.0139442E-02
   9.20000  1.5230680E-02  3.9546300E-02  2.1705541E-02
   9.40000  1.6501572E-02  4.3173499E-02  2.3322136E-02
   9.60000  1.7867004E-02  4.6791642E-02  2.4967406E-02
   9.80000  1.9329649E-02  5.0265562E-02  2.6621737E-02
   10.0000  2.0887787E-02  5.3453025E-02  2.8266036E-02
   10.2500  2.2951382E-02  5.6813647E-02  3.0273594E-02
   10.5000  2.5092440E-02  5.9220680E-02  3.2174915E-02
   10.7500  2.7219610E-02  6.0429567E-02  3.3898411E-02
   11.0000  2.9211029E-02  6.0286719E-02  3.5368200E-02
   11.2500  3.0935887E-02  5.8795323E-02  3.6522613E-02
   11.5000  3.2285895E-02  5.6154241E-02  3.7330605E-02
   11.7500  3.3203544E-02  5.2717290E-02  3.7799064E-02
   12.0000  3.3694843E-02  4.8886416E-02  3.7968273E-02
   12.2500  3.3823127E-02  4.5009130E-02  3.7898954E-02
   12.5000  3.3688890E-02  4.1327759E-02  3.7657971E-02
   12.7500  3.3405207E-02  3.7978799E-02  3.7307603E-02
   13.0000  3.3077176E-02  3.5017659E-02  3.6899808E-02
   13.2500  3.2789316E-02  3.2447613E-02  3.6474678E-02
   13.5000  3.2601384E-02  3.0243054E-02  3.6061192E-02
   13.7500  3.2550138E-02  2.8365355E-02  3.5679283E-02
   14.0000  3.2652849E-02  2.6772758E-02  3.5343277E-02
   14.2500  3.2910960E-02  2.5425801E-02  3.5065124E-02
   14.5000  3.3314494E-02  2.4289503E-02  3.4855373E-02
   14.7500  3.3846400E-02  2.3333717E-02  3.4722539E-02
   15.0000  3.4485679E-02  2.2532807E-02  3.4672321E-02
   15.2500  3.5209223E-02  2.1865151E-02  3.4707094E-02
   15.5000  3.5992796E-02  2.1312604E-02  3.4825565E-02
   15.7500  3.6811513E-02  2.0859995E-02  3.5022479E-02
   16.0000  3.7640077E-02  2.0494666E-02  3.5288399E-02
   16.2500  3.8452982E-02  2.0206080E-02  3.5609647E-02
   16.5000  3.9224862E-02  1.9985475E-02  3.5968555E-02
   16.7500  3.9931109E-02  1.9825590E-02  3.6344133E-02
   17.0000  4.0548845E-02  1.9720430E-02  3.6713262E-02
   17.2500  4.1058208E-02  1.9665069E-02  3.7052370E-02
   17.5000  4.1443804E-02  1.9655485E-02  3.7339447E-02
   17.7500  4.1696091E-02  1.9688413E-02  3.7556112E-02
   18.0000  4.1812400E-02  1.9761222E-02  3.7689361E-02
   18.2500  4.1797332E-02  1.9871796E-02  3.7732666E-02
   18.5000  4.1662416E-02  2.0018443E-02  3.7686220E-02
   18.7500  4.1424995E-02  2.0199817E-02  3.7556297E-02
   19.0000  4.1106532E-02  2.0414865E-02  3.7353902E-02
   19.2500  4.0730547E-02  2.0662807E-02  3.7092997E-02
   19.5000  4.0320514E-02  2.0943118E-02  3.6788625E-02
   19.7500  3.9898056E-02  2.1255476E-02  3.6455291E-02
   20.0000  3.9481868E-02  2.1599573E-02  3.6105963E-02
   21.0000  3.8153436E-02  2.3274071E-02  3.4748807E-02
   22.0000  3.7649953E-02  2.5355671E-02  3.3702933E-02
   23.0000  3.7770766E-02  2.7708274E-02  3.2964956E-02
   24.0000  3.7933766E-02  3.0111614E-02  3.2377882E-02
   25.0000  3.7520412E-02  3.2282565E-02  3.1795186E-02
   26.0000  3.6217345E-02  3.3939239E-02  3.1138345E-02
   27.0000  3.4205015E-02  3.4902824E-02  3.0410426E-02
   28.0000  3.1944712E-02  3.5190234E-02  2.9668523E-02
   29.0000  2.9863849E-02  3.4942160E-02  2.8991394E-02
   30.0000  2.8179697E-02  3.4330650E-02  2.8440946E-02
   31.0000  2.6908094E-02  3.3511324E-02  2.8036029E-02
   32.0000  2.5960727E-02  3.2602587E-02  2.7753655E-02
   33.0000  2.5227775E-02  3.1682765E-02  2.7546810E-02
   34.0000  2.4617979E-02  3.0796782E-02  2.7362539E-02
   35.0000  2.4069253E-02  2.9965052E-02  2.7153373E-02
   36.0000  2.3546193E-02  2.9190746E-02  2.6883360E-02
   37.0000  2.3035004E-02  2.8466523E-02  2.6533340E-02
   38.0000  2.2540959E-02  2.7786308E-02  2.6108978E-02
   39.0000  2.2088662E-02  2.7165663E-02  2.5652087E-02
   40.0000  2.1717937E-02  2.6655751E-02  2.5243835E-02
