    Energy   (100,001)      (010,001)      (001,110)   
  -25.0000  1.7481553E-04  1.8288047E-04  1.7959334E-04
  -24.0000  1.8120726E-04  1.8994191E-04  1.8598836E-04
  -23.0000  1.8804138E-04  1.9751952E-04  1.9281698E-04
  -22.0000  1.9536426E-04  2.0567037E-04  2.0012373E-04
  -21.0000  2.0322890E-04  2.1446009E-04  2.0795942E-04
  -20.0000  2.1169616E-04  2.2396458E-04  2.1638219E-04
  -19.0000  2.2083628E-04  2.3427203E-04  2.2545893E-04
  -18.0000  2.3073070E-04  2.4548551E-04  2.3526697E-04
  -17.0000  2.4147445E-04  2.5772617E-04  2.4589613E-04
  -16.0000  2.5317902E-04  2.7113739E-04  2.5745142E-04
  -15.0000  2.6597613E-04  2.8588999E-04  2.7005631E-04
  -14.0000  2.8002250E-04  3.0218911E-04  2.8385695E-04
  -13.0000  2.9550607E-04  3.2028307E-04  2.9902765E-04
  -12.0000  3.1265418E-04  3.4047530E-04  3.1577795E-04
  -11.0000  3.3174442E-04  3.6314026E-04  3.3436191E-04
  -10.0000  3.5311943E-04  3.8874521E-04  3.5509068E-04
  -9.00000  3.7720709E-04  4.1788044E-04  3.7834939E-04
  -8.00000  4.0454897E-04  4.5130206E-04  4.0462058E-04
  -7.00000  4.3584094E-04  4.8999378E-04  4.3451713E-04
  -6.00000  4.7199283E-04  5.3525834E-04  4.6882978E-04
  -5.00000  5.1421843E-04  5.8885666E-04  5.0859717E-04
  -4.00000  5.6417593E-04  6.5322651E-04  5.5521269E-04
  -3.00000  6.2419581E-04  7.3183969E-04  6.1059305E-04
  -2.00000  6.9766900E-04  8.2981335E-04  6.7745645E-04
  -1.00000  7.8974897E-04  9.5501925E-04  7.5980784E-04
   0.00000  9.0872345E-04  1.1202532E-03  8.6384852E-04
   1.00000  1.0689869E-03  1.3479297E-03  9.9985801E-04
   2.00000  1.2984971E-03  1.6818150E-03  1.1866837E-03
   3.00000  1.6621214E-03  2.2235688E-03  1.4651203E-03
   4.00000  2.3659679E-03  3.2952220E-03  1.9554138E-03
   5.00000  4.2977861E-03  6.2839731E-03  3.1464849E-03
   5.20000  4.9066557E-03  7.2333124E-03  3.5067373E-03
   5.40000  5.5271250E-03  8.2008169E-03  3.8726360E-03
   5.60000  6.1490838E-03  9.1646575E-03  4.2394043E-03
   5.80000  6.7859009E-03  1.0139176E-02  4.6155778E-03
   6.00000  7.4570654E-03  1.1150164E-02  5.0135039E-03
   6.20000  8.1804916E-03  1.2223316E-02  5.4455523E-03
   6.40000  8.9712405E-03  1.3381964E-02  5.9238876E-03
   6.60000  9.8418436E-03  1.4647523E-02  6.4610147E-03
   6.80000  1.0802419E-02  1.6040186E-02  7.0701175E-03
   7.00000  1.1860091E-02  1.7579285E-02  7.7649850E-03
   7.20000  1.3017538E-02  1.9283050E-02  8.5593801E-03
   7.40000  1.4270621E-02  2.1167471E-02  9.4656334E-03
   7.60000  1.5605439E-02  2.3244356E-02  1.0492461E-02
   7.80000  1.6995845E-02  2.5519060E-02  1.1642372E-02
   8.00000  1.8403094E-02  2.7988755E-02  1.2909508E-02
   8.20000  1.9779670E-02  3.0642500E-02  1.4279138E-02
   8.40000  2.1078311E-02  3.3464068E-02  1.5729819E-02
   8.60000  2.2264594E-02  3.6436425E-02  1.7238119E-02
   8.80000  2.3328005E-02  3.9544305E-02  1.8784022E-02
   9.00000  2.4285357E-02  4.2771268E-02  2.0354117E-02
   9.20000  2.5174139E-02  4.6089925E-02  2.1940812E-02
   9.40000  2.6039263E-02  4.9447560E-02  2.3538450E-02
   9.60000  2.6919266E-02  5.2752496E-02  2.5138918E-02
   9.80000  2.7836265E-02  5.5867369E-02  2.6728982E-02
   10.0000  2.8791174E-02  5.8613319E-02  2.8290007E-02
   10.2500  3.0005484E-02  6.1218058E-02  3.0165725E-02
   10.5000  3.1171110E-02  6.2563596E-02  3.1913547E-02
   10.7500  3.2196472E-02  6.2430804E-02  3.3491565E-02
   11.0000  3.3001961E-02  6.0837144E-02  3.4869985E-02
   11.2500  3.3543111E-02  5.8032419E-02  3.6033684E-02
   11.5000  3.3820613E-02  5.4404680E-02  3.6979452E-02
   11.7500  3.3874520E-02  5.0361140E-02  3.7710676E-02
   12.0000  3.3768322E-02  4.6243429E-02  3.8233337E-02
   12.2500  3.3571854E-02  4.2291794E-02  3.8555436E-02
   12.5000  3.3348473E-02  3.8647886E-02  3.8689020E-02
   12.7500  3.3147981E-02  3.5377864E-02  3.8651826E-02
   13.0000  3.3004525E-02  3.2498603E-02  3.8467743E-02
   13.2500  3.2937831E-02  2.9998249E-02  3.8166505E-02
   13.5000  3.2955875E-02  2.7849720E-02  3.7782213E-02
   13.7500  3.3057675E-02  2.6018936E-02  3.7350768E-02
   14.0000  3.3235562E-02  2.4469885E-02  3.6907001E-02
   14.2500  3.3476797E-02  2.3167683E-02  3.6482100E-02
   14.5000  3.3764780E-02  2.2080243E-02  3.6101721E-02
   14.7500  3.4080174E-02  2.1179017E-02  3.5784902E-02
   15.0000  3.4402077E-02  2.0439194E-02  3.5543716E-02
   15.2500  3.4709257E-02  1.9839566E-02  3.5383447E-02
   15.5000  3.4981335E-02  1.9362218E-02  3.5303135E-02
   15.7500  3.5199849E-02  1.8992119E-02  3.5296354E-02
   16.0000  3.5349123E-02  1.8716696E-02  3.5352189E-02
   16.2500  3.5416967E-02  1.8525419E-02  3.5456372E-02
   16.5000  3.5395223E-02  1.8409428E-02  3.5592532E-02
   16.7500  3.5280187E-02  1.8361221E-02  3.5743511E-02
   17.0000  3.5072861E-02  1.8374405E-02  3.5892646E-02
   17.2500  3.4778978E-02  1.8443497E-02  3.6024937E-02
   17.5000  3.4408713E-02  1.8563777E-02  3.6127977E-02
   17.7500  3.3976061E-02  1.8731171E-02  3.6192584E-02
   18.0000  3.3497893E-02  1.8942171E-02  3.6213089E-02
   18.2500  3.2992808E-02  1.9193760E-02  3.6187273E-02
   18.5000  3.2479892E-02  1.9483375E-02  3.6116006E-02
   18.7500  3.1977553E-02  1.9808869E-02  3.6002666E-02
   19.0000  3.1502522E-02  2.0168501E-02  3.5852412E-02
   19.2500  3.1069090E-02  2.0560950E-02  3.5671414E-02
   19.5000  3.0688590E-02  2.0985320E-02  3.5466113E-02
   19.7500  3.0369152E-02  2.1441086E-02  3.5242617E-02
   20.0000  3.0115766E-02  2.1927834E-02  3.5006374E-02
   21.0000  2.9781155E-02  2.4160001E-02  3.4020353E-02
   22.0000  3.0395583E-02  2.6754609E-02  3.3071364E-02
   23.0000  3.1558875E-02  2.9518671E-02  3.2138704E-02
   24.0000  3.2787169E-02  3.2135261E-02  3.1154770E-02
   25.0000  3.3657030E-02  3.4227924E-02  3.0107958E-02
   26.0000  3.3883219E-02  3.5511366E-02  2.9050718E-02
   27.0000  3.3386058E-02  3.5914115E-02  2.8068419E-02
   28.0000  3.2321882E-02  3.5572767E-02  2.7248324E-02
   29.0000  3.0993508E-02  3.4725116E-02  2.6650766E-02
   30.0000  2.9684935E-02  3.3602667E-02  2.6289463E-02
   31.0000  2.8557494E-02  3.2378600E-02  2.6132891E-02
   32.0000  2.7647935E-02  3.1168779E-02  2.6120431E-02
   33.0000  2.6918229E-02  3.0042006E-02  2.6182066E-02
   34.0000  2.6311181E-02  2.9008089E-02  2.6256016E-02
   35.0000  2.5779606E-02  2.8044506E-02  2.6294481E-02
   36.0000  2.5294995E-02  2.7125784E-02  2.6265435E-02
   37.0000  2.4848459E-02  2.6238154E-02  2.6157646E-02
   38.0000  2.4447234E-02  2.5389976E-02  2.5986038E-02
   39.0000  2.4107465E-02  2.4620104E-02  2.5789631E-02
   40.0000  2.3845410E-02  2.3995925E-02  2.5616996E-02
