    Energy   (100,001)      (010,001)      (001,110)   
  -25.0000  1.6306431E-04  1.7519084E-04  1.8247837E-04
  -24.0000  1.6894323E-04  1.8218161E-04  1.8908232E-04
  -23.0000  1.7521350E-04  1.8969403E-04  1.9614093E-04
  -22.0000  1.8191400E-04  1.9778657E-04  2.0370168E-04
  -21.0000  1.8908884E-04  2.0652659E-04  2.1181885E-04
  -20.0000  1.9678825E-04  2.1599205E-04  2.2055471E-04
  -19.0000  2.0506968E-04  2.2627367E-04  2.2998112E-04
  -18.0000  2.1399917E-04  2.3747763E-04  2.4018134E-04
  -17.0000  2.2365296E-04  2.4972892E-04  2.5125249E-04
  -16.0000  2.3411956E-04  2.6317565E-04  2.6330843E-04
  -15.0000  2.4550232E-04  2.7799456E-04  2.7648362E-04
  -14.0000  2.5792266E-04  2.9439820E-04  2.9093790E-04
  -13.0000  2.7152419E-04  3.1264427E-04  3.0686285E-04
  -12.0000  2.8647810E-04  3.3304811E-04  3.2449000E-04
  -11.0000  3.0299008E-04  3.5599948E-04  3.4410187E-04
  -10.0000  3.2130958E-04  3.8198545E-04  3.6604686E-04
  -9.00000  3.4174230E-04  4.1162224E-04  3.9075966E-04
  -8.00000  3.6466715E-04  4.4570023E-04  4.1878997E-04
  -7.00000  3.9056015E-04  4.8524901E-04  4.5084350E-04
  -6.00000  4.2002850E-04  5.3163350E-04  4.8784230E-04
  -5.00000  4.5386071E-04  5.8670003E-04  5.3101581E-04
  -4.00000  4.9310291E-04  6.5300537E-04  5.8204350E-04
  -3.00000  5.3917949E-04  7.3418941E-04  6.4328741E-04
  -2.00000  5.9409371E-04  8.3560957E-04  7.1819156E-04
  -1.00000  6.6078318E-04  9.6548296E-04  8.1201320E-04
   0.00000  7.4380381E-04  1.1370959E-03  9.3327979E-04
   1.00000  8.5080390E-04  1.3735137E-03  1.0970418E-03
   2.00000  9.9625537E-04  1.7191128E-03  1.3334153E-03
   3.00000  1.2134862E-03  2.2745776E-03  1.7162502E-03
   4.00000  1.6112831E-03  3.3480676E-03  2.5041935E-03
   5.00000  2.6706914E-03  6.2307687E-03  4.8475965E-03
   5.20000  2.9881281E-03  7.1461804E-03  5.5001266E-03
   5.40000  3.2920287E-03  8.0930780E-03  6.0657708E-03
   5.60000  3.5719275E-03  9.0534335E-03  6.5424429E-03
   5.80000  3.8338999E-03  1.0038082E-02  6.9757264E-03
   6.00000  4.0900850E-03  1.1065954E-02  7.4153996E-03
   6.20000  4.3533878E-03  1.2156479E-02  7.8994926E-03
   6.40000  4.6354168E-03  1.3330083E-02  8.4541441E-03
   6.60000  4.9451146E-03  1.4610516E-02  9.0964845E-03
   6.80000  5.2876837E-03  1.6027278E-02  9.8365476E-03
   7.00000  5.6641870E-03  1.7617902E-02  1.0678226E-02
   7.20000  6.0721184E-03  1.9429771E-02  1.1620120E-02
   7.40000  6.5069024E-03  2.1520729E-02  1.2656788E-02
   7.60000  6.9638851E-03  2.3957676E-02  1.3780193E-02
   7.80000  7.4401020E-03  2.6812736E-02  1.4980765E-02
   8.00000  7.9352113E-03  3.0156852E-02  1.6247657E-02
   8.20000  8.4514626E-03  3.4050079E-02  1.7568422E-02
   8.40000  8.9931297E-03  3.8526899E-02  1.8928795E-02
   8.60000  9.5660989E-03  4.3574415E-02  2.0313176E-02
   8.80000  1.0178077E-02  4.9102627E-02  2.1705893E-02
   9.00000  1.0839173E-02  5.4910174E-02  2.3092820E-02
   9.20000  1.1561908E-02  6.0657221E-02  2.4462730E-02
   9.40000  1.2359810E-02  6.5868133E-02  2.5807764E-02
   9.60000  1.3244813E-02  6.9991603E-02  2.7122553E-02
   9.80000  1.4224281E-02  7.2527467E-02  2.8401772E-02
   10.0000  1.5298113E-02  7.3181301E-02  2.9636534E-02
   10.2500  1.6757862E-02  7.1398248E-02  3.1093228E-02
   10.5000  1.8312518E-02  6.7336605E-02  3.2412891E-02
   10.7500  1.9911203E-02  6.1940397E-02  3.3549469E-02
   11.0000  2.1498854E-02  5.6085598E-02  3.4466984E-02
   11.2500  2.3026558E-02  5.0382374E-02  3.5153193E-02
   11.5000  2.4458067E-02  4.5165714E-02  3.5626260E-02
   11.7500  2.5770826E-02  4.0571046E-02  3.5929170E-02
   12.0000  2.6955156E-02  3.6615493E-02  3.6117968E-02
   12.2500  2.8011547E-02  3.3256285E-02  3.6248277E-02
   12.5000  2.8947081E-02  3.0425984E-02  3.6363515E-02
   12.7500  2.9774509E-02  2.8052027E-02  3.6488450E-02
   13.0000  3.0513219E-02  2.6066676E-02  3.6627545E-02
   13.2500  3.1188461E-02  2.4410497E-02  3.6767852E-02
   13.5000  3.1827093E-02  2.3032443E-02  3.6889239E-02
   13.7500  3.2452502E-02  2.1889042E-02  3.6977078E-02
   14.0000  3.3082374E-02  2.0943662E-02  3.7028042E-02
   14.2500  3.3728956E-02  2.0165860E-02  3.7048783E-02
   14.5000  3.4400003E-02  1.9530675E-02  3.7052081E-02
   14.7500  3.5099662E-02  1.9017853E-02  3.7052861E-02
   15.0000  3.5829227E-02  1.8611100E-02  3.7064822E-02
   15.2500  3.6587682E-02  1.8297379E-02  3.7097988E-02
   15.5000  3.7371992E-02  1.8066317E-02  3.7157219E-02
   15.7500  3.8177133E-02  1.7909703E-02  3.7241621E-02
   16.0000  3.8995955E-02  1.7821086E-02  3.7344672E-02
   16.2500  3.9819017E-02  1.7795450E-02  3.7454932E-02
   16.5000  4.0634575E-02  1.7828946E-02  3.7557219E-02
   16.7500  4.1428865E-02  1.7918645E-02  3.7634170E-02
   17.0000  4.2186790E-02  1.8062300E-02  3.7668098E-02
   17.2500  4.2893016E-02  1.8258108E-02  3.7642965E-02
   17.5000  4.3533325E-02  1.8504461E-02  3.7546232E-02
   17.7500  4.4096024E-02  1.8799724E-02  3.7370316E-02
   18.0000  4.4573120E-02  1.9142028E-02  3.7113389E-02
   18.2500  4.4961013E-02  1.9529144E-02  3.6779410E-02
   18.5000  4.5260564E-02  1.9958422E-02  3.6377406E-02
   18.7500  4.5476537E-02  2.0426822E-02  3.5920188E-02
   19.0000  4.5616553E-02  2.0931025E-02  3.5422750E-02
   19.2500  4.5689780E-02  2.1467623E-02  3.4900623E-02
   19.5000  4.5705598E-02  2.2033328E-02  3.4368409E-02
   19.7500  4.5672469E-02  2.2625090E-02  3.3838720E-02
   20.0000  4.5597177E-02  2.3239918E-02  3.3321753E-02
   21.0000  4.4942630E-02  2.5849671E-02  3.1521735E-02
   22.0000  4.3702634E-02  2.8492745E-02  3.0293193E-02
   23.0000  4.1735726E-02  3.0910714E-02  2.9569057E-02
   24.0000  3.9071102E-02  3.2841470E-02  2.9184451E-02
   25.0000  3.6052562E-02  3.4069327E-02  2.8993796E-02
   26.0000  3.3171819E-02  3.4513421E-02  2.8898047E-02
   27.0000  3.0746969E-02  3.4269465E-02  2.8847082E-02
   28.0000  2.8878633E-02  3.3533591E-02  2.8827131E-02
   29.0000  2.7530585E-02  3.2512236E-02  2.8840413E-02
   30.0000  2.6598282E-02  3.1369778E-02  2.8884245E-02
   31.0000  2.5955998E-02  3.0210740E-02  2.8940185E-02
   32.0000  2.5486038E-02  2.9085610E-02  2.8977077E-02
   33.0000  2.5093606E-02  2.8006635E-02  2.8960030E-02
   34.0000  2.4710447E-02  2.6964943E-02  2.8856874E-02
   35.0000  2.4292589E-02  2.5945559E-02  2.8641144E-02
   36.0000  2.3817686E-02  2.4939320E-02  2.8295874E-02
   37.0000  2.3285300E-02  2.3952103E-02  2.7820543E-02
   38.0000  2.2720035E-02  2.3011748E-02  2.7241289E-02
   39.0000  2.2173946E-02  2.2171496E-02  2.6624420E-02
   40.0000  2.1717759E-02  2.1501388E-02  2.6080467E-02
