    Energy   (100,001)      (010,001)      (001,110)   
  -25.0000  1.6951081E-04  1.8552003E-04  1.8536890E-04
  -24.0000  1.7545222E-04  1.9248691E-04  1.9195503E-04
  -23.0000  1.8178313E-04  1.9995296E-04  1.9898888E-04
  -22.0000  1.8854191E-04  2.0797251E-04  2.0651684E-04
  -21.0000  1.9577208E-04  2.1660794E-04  2.1459188E-04
  -20.0000  2.0352318E-04  2.2593123E-04  2.2327477E-04
  -19.0000  2.1185184E-04  2.3602590E-04  2.3263557E-04
  -18.0000  2.2082313E-04  2.4698933E-04  2.4275549E-04
  -17.0000  2.3051215E-04  2.5893576E-04  2.5372915E-04
  -16.0000  2.4100603E-04  2.7200009E-04  2.6566754E-04
  -15.0000  2.5240651E-04  2.8634270E-04  2.7870169E-04
  -14.0000  2.6483306E-04  3.0215571E-04  2.9298741E-04
  -13.0000  2.7842700E-04  3.1967113E-04  3.0871152E-04
  -12.0000  2.9335674E-04  3.3917172E-04  3.2609996E-04
  -11.0000  3.0982468E-04  3.6100547E-04  3.4542873E-04
  -10.0000  3.2807635E-04  3.8560543E-04  3.6703865E-04
  -9.00000  3.4841270E-04  4.1351709E-04  3.9135588E-04
  -8.00000  3.7120714E-04  4.4543708E-04  4.1892072E-04
  -7.00000  3.9692920E-04  4.8226899E-04  4.5042931E-04
  -6.00000  4.2617877E-04  5.2520579E-04  4.8679525E-04
  -5.00000  4.5973662E-04  5.7585519E-04  5.2924384E-04
  -4.00000  4.9864180E-04  6.3643656E-04  5.7946111E-04
  -3.00000  5.4431525E-04  7.1010270E-04  6.3984024E-04
  -2.00000  5.9876763E-04  8.0149193E-04  7.1391020E-04
  -1.00000  6.6497290E-04  9.1773385E-04  8.0713207E-04
   0.00000  7.4760022E-04  1.0704311E-03  9.2850466E-04
   1.00000  8.5462609E-04  1.2799989E-03  1.0941758E-03
   2.00000  1.0015217E-03  1.5867059E-03  1.3368865E-03
   3.00000  1.2251472E-03  2.0859548E-03  1.7368091E-03
   4.00000  1.6509653E-03  3.0902869E-03  2.5638680E-03
   5.00000  2.8444708E-03  5.9825407E-03  5.0594635E-03
   5.20000  3.1984219E-03  6.8946173E-03  5.9021112E-03
   5.40000  3.5306674E-03  7.8045514E-03  6.7869320E-03
   5.60000  3.8328323E-03  8.6848821E-03  7.6819774E-03
   5.80000  4.1150920E-03  9.5437953E-03  8.5753422E-03
   6.00000  4.3899559E-03  1.0398729E-02  9.4606873E-03
   6.20000  4.6657440E-03  1.1266273E-02  1.0328463E-02
   6.40000  4.9464648E-03  1.2162377E-02  1.1158718E-02
   6.60000  5.2332735E-03  1.3104207E-02  1.1919393E-02
   6.80000  5.5260658E-03  1.4110990E-02  1.2580838E-02
   7.00000  5.8253622E-03  1.5203825E-02  1.3142733E-02
   7.20000  6.1339899E-03  1.6404641E-02  1.3649125E-02
   7.40000  6.4573839E-03  1.7734742E-02  1.4174129E-02
   7.60000  6.8023526E-03  1.9213898E-02  1.4790172E-02
   7.80000  7.1754106E-03  2.0860363E-02  1.5542309E-02
   8.00000  7.5816553E-03  2.2691315E-02  1.6437839E-02
   8.20000  8.0243881E-03  2.4723068E-02  1.7446933E-02
   8.40000  8.5053196E-03  2.6970436E-02  1.8509245E-02
   8.60000  9.0252489E-03  2.9444723E-02  1.9545938E-02
   8.80000  9.5851365E-03  3.2150304E-02  2.0477666E-02
   9.00000  1.0187276E-02  3.5080037E-02  2.1245329E-02
   9.20000  1.0836008E-02  3.8209532E-02  2.1825744E-02
   9.40000  1.1537514E-02  4.1489865E-02  2.2234752E-02
   9.60000  1.2298758E-02  4.4838801E-02  2.2516981E-02
   9.80000  1.3125985E-02  4.8133593E-02  2.2728978E-02
   10.0000  1.4023185E-02  5.1210661E-02  2.2924114E-02
   10.2500  1.5243450E-02  5.4454761E-02  2.3206107E-02
   10.5000  1.6565484E-02  5.6677205E-02  2.3575306E-02
   10.7500  1.7971669E-02  5.7605431E-02  2.4051935E-02
   11.0000  1.9436173E-02  5.7172720E-02  2.4635609E-02
   11.2500  2.0927213E-02  5.5541109E-02  2.5313261E-02
   11.5000  2.2410676E-02  5.3032935E-02  2.6064895E-02
   11.7500  2.3855219E-02  5.0017493E-02  2.6867798E-02
   12.0000  2.5237207E-02  4.6817020E-02  2.7698894E-02
   12.2500  2.6542602E-02  4.3663695E-02  2.8536513E-02
   12.5000  2.7766083E-02  4.0699189E-02  2.9363179E-02
   12.7500  2.8909431E-02  3.7994795E-02  3.0167557E-02
   13.0000  2.9979652E-02  3.5575192E-02  3.0944349E-02
   13.2500  3.0987132E-02  3.3437456E-02  3.1692906E-02
   13.5000  3.1943732E-02  3.1564060E-02  3.2416203E-02
   13.7500  3.2860861E-02  2.9931065E-02  3.3120765E-02
   14.0000  3.3747952E-02  2.8512954E-02  3.3816048E-02
   14.2500  3.4611439E-02  2.7285312E-02  3.4512871E-02
   14.5000  3.5454181E-02  2.6226143E-02  3.5221592E-02
   14.7500  3.6275337E-02  2.5316301E-02  3.5950460E-02
   15.0000  3.7070705E-02  2.4539403E-02  3.6704197E-02
   15.2500  3.7833484E-02  2.3881489E-02  3.7482821E-02
   15.5000  3.8555342E-02  2.3330607E-02  3.8280785E-02
   15.7500  3.9227619E-02  2.2876432E-02  3.9086497E-02
   16.0000  3.9842483E-02  2.2509949E-02  3.9882369E-02
   16.2500  4.0393850E-02  2.2223207E-02  4.0645550E-02
   16.5000  4.0877964E-02  2.2009133E-02  4.1349429E-02
   16.7500  4.1293586E-02  2.1861381E-02  4.1965894E-02
   17.0000  4.1641837E-02  2.1774210E-02  4.2468142E-02
   17.2500  4.1925814E-02  2.1742372E-02  4.2833640E-02
   17.5000  4.2150115E-02  2.1761025E-02  4.3046731E-02
   17.7500  4.2320408E-02  2.1825670E-02  4.3100374E-02
   18.0000  4.2443119E-02  2.1932124E-02  4.2996736E-02
   18.2500  4.2525216E-02  2.2076508E-02  4.2746547E-02
   18.5000  4.2574070E-02  2.2255279E-02  4.2367471E-02
   18.7500  4.2597284E-02  2.2465265E-02  4.1881841E-02
   19.0000  4.2602455E-02  2.2703708E-02  4.1314191E-02
   19.2500  4.2596825E-02  2.2968323E-02  4.0688917E-02
   19.5000  4.2586860E-02  2.3257322E-02  4.0028342E-02
   19.7500  4.2577803E-02  2.3569382E-02  3.9351413E-02
   20.0000  4.2573274E-02  2.3903441E-02  3.8673307E-02
   21.0000  4.2609248E-02  2.5431026E-02  3.6157235E-02
   22.0000  4.2561192E-02  2.7178455E-02  3.4180871E-02
   23.0000  4.1984268E-02  2.8992846E-02  3.2703904E-02
   24.0000  4.0492756E-02  3.0662692E-02  3.1565159E-02
   25.0000  3.8102943E-02  3.1982832E-02  3.0632181E-02
   26.0000  3.5249654E-02  3.2831637E-02  2.9825094E-02
   27.0000  3.2474054E-02  3.3197155E-02  2.9108741E-02
   28.0000  3.0127444E-02  3.3154880E-02  2.8481244E-02
   29.0000  2.8313667E-02  3.2820608E-02  2.7958956E-02
   30.0000  2.6986113E-02  3.2304301E-02  2.7558463E-02
   31.0000  2.6048266E-02  3.1685455E-02  2.7283343E-02
   32.0000  2.5400547E-02  3.1017715E-02  2.7121505E-02
   33.0000  2.4953660E-02  3.0338296E-02  2.7049186E-02
   34.0000  2.4638472E-02  2.9657799E-02  2.7034763E-02
   35.0000  2.4404544E-02  2.8971804E-02  2.7043840E-02
   36.0000  2.4215298E-02  2.8273728E-02  2.7042634E-02
   37.0000  2.4045486E-02  2.7560249E-02  2.7002298E-02
   38.0000  2.3880396E-02  2.6840409E-02  2.6907116E-02
   39.0000  2.3718150E-02  2.6152631E-02  2.6765850E-02
   40.0000  2.3573101E-02  2.5575208E-02  2.6618573E-02
