    Energy   (100,001)      (010,001)      (001,110)   
  -25.0000  1.6810848E-04  1.7873219E-04  1.7947690E-04
  -24.0000  1.7417464E-04  1.8563488E-04  1.8595300E-04
  -23.0000  1.8064893E-04  1.9304058E-04  1.9287223E-04
  -22.0000  1.8757258E-04  2.0100462E-04  2.0028045E-04
  -21.0000  1.9499247E-04  2.0959064E-04  2.0823003E-04
  -20.0000  2.0296215E-04  2.1887212E-04  2.1678097E-04
  -19.0000  2.1154303E-04  2.2893440E-04  2.2600237E-04
  -18.0000  2.2080592E-04  2.3987711E-04  2.3597422E-04
  -17.0000  2.3083286E-04  2.5181727E-04  2.4678961E-04
  -16.0000  2.4171941E-04  2.6489321E-04  2.5855750E-04
  -15.0000  2.5357763E-04  2.7926956E-04  2.7140628E-04
  -14.0000  2.6653971E-04  2.9514379E-04  2.8548828E-04
  -13.0000  2.8076280E-04  3.1275464E-04  3.0098559E-04
  -12.0000  2.9643513E-04  3.3239343E-04  3.1811776E-04
  -11.0000  3.1378420E-04  3.5441914E-04  3.3715194E-04
  -10.0000  3.3308764E-04  3.7927900E-04  3.5841661E-04
  -9.00000  3.5468797E-04  4.0753703E-04  3.8232029E-04
  -8.00000  3.7901300E-04  4.3991433E-04  4.0937786E-04
  -7.00000  4.0660464E-04  4.7734716E-04  4.4024786E-04
  -6.00000  4.3816045E-04  5.2107268E-04  4.7578729E-04
  -5.00000  4.7459545E-04  5.7275917E-04  5.1713397E-04
  -4.00000  5.1713691E-04  6.3471008E-04  5.6583484E-04
  -3.00000  5.6747566E-04  7.1019657E-04  6.2405428E-04
  -2.00000  6.2801948E-04  8.0402505E-04  6.9492926E-04
  -1.00000  7.0234352E-04  9.2356413E-04  7.8321404E-04
   0.00000  7.9605581E-04  1.0807477E-03  8.9654773E-04
   1.00000  9.1864240E-04  1.2963977E-03  1.0482252E-03
   2.00000  1.0880225E-03  1.6109999E-03  1.2642197E-03
   3.00000  1.3445798E-03  2.1181686E-03  1.6053412E-03
   4.00000  1.8127282E-03  3.1128627E-03  2.2658836E-03
   5.00000  3.0203528E-03  5.8673115E-03  4.1011763E-03
   5.20000  3.4025533E-03  6.7512393E-03  4.7131192E-03
   5.40000  3.8013115E-03  7.6629992E-03  5.3733707E-03
   5.60000  4.2127283E-03  8.5815699E-03  6.0772958E-03
   5.80000  4.6456335E-03  9.5142535E-03  6.8304323E-03
   6.00000  5.1106283E-03  1.0474381E-02  7.6274303E-03
   6.20000  5.6133324E-03  1.1471792E-02  8.4391494E-03
   6.40000  6.1517693E-03  1.2514227E-02  9.2140216E-03
   6.60000  6.7181308E-03  1.3613583E-02  9.8990212E-03
   6.80000  7.3051664E-03  1.4790859E-02  1.0472580E-02
   7.00000  7.9130159E-03  1.6074644E-02  1.0962414E-02
   7.20000  8.5503556E-03  1.7494512E-02  1.1430505E-02
   7.40000  9.2291160E-03  1.9075686E-02  1.1941415E-02
   7.60000  9.9573512E-03  2.0838176E-02  1.2540393E-02
   7.80000  1.0733965E-02  2.2798330E-02  1.3247958E-02
   8.00000  1.1546124E-02  2.4969815E-02  1.4062415E-02
   8.20000  1.2369645E-02  2.7363148E-02  1.4963150E-02
   8.40000  1.3173433E-02  2.9984772E-02  1.5914737E-02
   8.60000  1.3928439E-02  3.2836943E-02  1.6875277E-02
   8.80000  1.4618677E-02  3.5918111E-02  1.7809684E-02
   9.00000  1.5248698E-02  3.9221148E-02  1.8702773E-02
   9.20000  1.5842742E-02  4.2725713E-02  1.9564383E-02
   9.40000  1.6436071E-02  4.6383103E-02  2.0423285E-02
   9.60000  1.7063872E-02  5.0096688E-02  2.1314075E-02
   9.80000  1.7753078E-02  5.3705900E-02  2.2264338E-02
   10.0000  1.8518903E-02  5.6984465E-02  2.3286820E-02
   10.2500  1.9588236E-02  6.0206268E-02  2.4658763E-02
   10.5000  2.0767253E-02  6.1995913E-02  2.6098441E-02
   10.7500  2.2023614E-02  6.2070811E-02  2.7552237E-02
   11.0000  2.3314996E-02  6.0478323E-02  2.8970474E-02
   11.2500  2.4597150E-02  5.7560608E-02  3.0320254E-02
   11.5000  2.5831522E-02  5.3805442E-02  3.1585110E-02
   11.7500  2.6991537E-02  4.9688138E-02  3.2758209E-02
   12.0000  2.8065527E-02  4.5577583E-02  3.3839486E-02
   12.2500  2.9055153E-02  4.1712097E-02  3.4834213E-02
   12.5000  2.9970803E-02  3.8217729E-02  3.5749384E-02
   12.7500  3.0826631E-02  3.5140922E-02  3.6589494E-02
   13.0000  3.1636706E-02  3.2478445E-02  3.7354428E-02
   13.2500  3.2412072E-02  3.0200157E-02  3.8041158E-02
   13.5000  3.3159212E-02  2.8264709E-02  3.8647460E-02
   13.7500  3.3880864E-02  2.6628612E-02  3.9174365E-02
   14.0000  3.4578084E-02  2.5250662E-02  3.9627018E-02
   14.2500  3.5251906E-02  2.4093900E-02  4.0014594E-02
   14.5000  3.5903920E-02  2.3126335E-02  4.0349239E-02
   14.7500  3.6535887E-02  2.2320973E-02  4.0644031E-02
   15.0000  3.7148791E-02  2.1655460E-02  4.0910459E-02
   15.2500  3.7741812E-02  2.1111542E-02  4.1156116E-02
   15.5000  3.8311616E-02  2.0674457E-02  4.1383166E-02
   15.7500  3.8852167E-02  2.0332322E-02  4.1587918E-02
   16.0000  3.9355099E-02  2.0075543E-02  4.1761512E-02
   16.2500  3.9810543E-02  1.9896289E-02  4.1891544E-02
   16.5000  4.0208241E-02  1.9788022E-02  4.1964272E-02
   16.7500  4.0538751E-02  1.9745119E-02  4.1966955E-02
   17.0000  4.0794545E-02  1.9762569E-02  4.1889902E-02
   17.2500  4.0970868E-02  1.9835762E-02  4.1727857E-02
   17.5000  4.1066269E-02  1.9960351E-02  4.1480561E-02
   17.7500  4.1082802E-02  2.0132189E-02  4.1152503E-02
   18.0000  4.1025917E-02  2.0347307E-02  4.0752079E-02
   18.2500  4.0904102E-02  2.0601946E-02  4.0290417E-02
   18.5000  4.0728309E-02  2.0892599E-02  3.9780142E-02
   18.7500  4.0511248E-02  2.1216077E-02  3.9234266E-02
   19.0000  4.0266556E-02  2.1569582E-02  3.8665280E-02
   19.2500  4.0007913E-02  2.1950795E-02  3.8084465E-02
   19.5000  3.9748171E-02  2.2357943E-02  3.7501396E-02
   19.7500  3.9498598E-02  2.2789790E-02  3.6923688E-02
   20.0000  3.9268425E-02  2.3245415E-02  3.6357127E-02
   21.0000  3.8658593E-02  2.5277902E-02  3.4283314E-02
   22.0000  3.8583287E-02  2.7557406E-02  3.2597322E-02
   23.0000  3.8704158E-02  2.9905821E-02  3.1234442E-02
   24.0000  3.8476235E-02  3.2029436E-02  3.0078503E-02
   25.0000  3.7476624E-02  3.3600786E-02  2.9058914E-02
   26.0000  3.5629773E-02  3.4410534E-02  2.8165989E-02
   27.0000  3.3251915E-02  3.4464885E-02  2.7434519E-02
   28.0000  3.0851605E-02  3.3952656E-02  2.6904431E-02
   29.0000  2.8795683E-02  3.3112640E-02  2.6570328E-02
   30.0000  2.7222991E-02  3.2136152E-02  2.6386062E-02
   31.0000  2.6113188E-02  3.1139943E-02  2.6291799E-02
   32.0000  2.5370368E-02  3.0177428E-02  2.6232274E-02
   33.0000  2.4882445E-02  2.9259356E-02  2.6165429E-02
   34.0000  2.4548560E-02  2.8372120E-02  2.6066158E-02
   35.0000  2.4285545E-02  2.7493381E-02  2.5927059E-02
   36.0000  2.4027877E-02  2.6605799E-02  2.5754248E-02
   37.0000  2.3730767E-02  2.5708389E-02  2.5558327E-02
   38.0000  2.3379506E-02  2.4825103E-02  2.5347985E-02
   39.0000  2.3000544E-02  2.4011011E-02  2.5135629E-02
   40.0000  2.2659042E-02  2.3347758E-02  2.4949142E-02
