    Energy   (100,001)      (010,001)      (001,110)   
  -25.0000  1.6271635E-04  1.8108451E-04  1.8366635E-04
  -24.0000  1.6854824E-04  1.8803827E-04  1.9020654E-04
  -23.0000  1.7476566E-04  1.9549847E-04  1.9719130E-04
  -22.0000  1.8140664E-04  2.0352094E-04  2.0466667E-04
  -21.0000  1.8851428E-04  2.1216991E-04  2.1268520E-04
  -20.0000  1.9613768E-04  2.2151961E-04  2.2130722E-04
  -19.0000  2.0433290E-04  2.3165630E-04  2.3060223E-04
  -18.0000  2.1316435E-04  2.4268073E-04  2.4065085E-04
  -17.0000  2.2270634E-04  2.5471137E-04  2.5154700E-04
  -16.0000  2.3304506E-04  2.6788834E-04  2.6340089E-04
  -15.0000  2.4428107E-04  2.8237862E-04  2.7634265E-04
  -14.0000  2.5653242E-04  2.9838269E-04  2.9052714E-04
  -13.0000  2.6993866E-04  3.1614327E-04  3.0614012E-04
  -12.0000  2.8466597E-04  3.3595697E-04  3.2340645E-04
  -11.0000  3.0091397E-04  3.5818992E-04  3.4260115E-04
  -10.0000  3.1892459E-04  3.8329918E-04  3.6406432E-04
  -9.00000  3.3899423E-04  4.1186251E-04  3.8822207E-04
  -8.00000  3.6149028E-04  4.4462061E-04  4.1561608E-04
  -7.00000  3.8687442E-04  4.8253831E-04  4.4694664E-04
  -6.00000  4.1573606E-04  5.2689552E-04  4.8313707E-04
  -5.00000  4.4884182E-04  5.7942631E-04  5.2543325E-04
  -4.00000  4.8721143E-04  6.4253892E-04  5.7556368E-04
  -3.00000  5.3223897E-04  7.1967813E-04  6.3600905E-04
  -2.00000  5.8589734E-04  8.1595224E-04  7.1048319E-04
  -1.00000  6.5110642E-04  9.3928708E-04  8.0485443E-04
   0.00000  7.3245696E-04  1.1027266E-03  9.2907906E-04
   1.00000  8.3781030E-04  1.3295413E-03  1.1017776E-03
   2.00000  9.8246677E-04  1.6664540E-03  1.3630161E-03
   3.00000  1.2030170E-03  2.2268439E-03  1.8197443E-03
   4.00000  1.6242006E-03  3.3947397E-03  2.8786367E-03
   5.00000  2.8137898E-03  6.8914733E-03  6.5130500E-03
   5.20000  3.1743329E-03  7.9618501E-03  7.6200515E-03
   5.40000  3.5180286E-03  8.9816130E-03  8.6015464E-03
   5.60000  3.8329365E-03  9.9171107E-03  9.3927533E-03
   5.80000  4.1249091E-03  1.0792159E-02  1.0009255E-02
   6.00000  4.4038119E-03  1.1647143E-02  1.0494559E-02
   6.20000  4.6772753E-03  1.2520504E-02  1.0888873E-02
   6.40000  4.9496798E-03  1.3446143E-02  1.1219305E-02
   6.60000  5.2228777E-03  1.4455213E-02  1.1501056E-02
   6.80000  5.4973936E-03  1.5577378E-02  1.1743648E-02
   7.00000  5.7737534E-03  1.6840623E-02  1.1958406E-02
   7.20000  6.0536708E-03  1.8270549E-02  1.2163805E-02
   7.40000  6.3407795E-03  1.9890422E-02  1.2386306E-02
   7.60000  6.6406763E-03  2.1722110E-02  1.2656474E-02
   7.80000  6.9603032E-03  2.3786571E-02  1.3002432E-02
   8.00000  7.3070250E-03  2.6102435E-02  1.3443562E-02
   8.20000  7.6878227E-03  2.8681868E-02  1.3986411E-02
   8.40000  8.1088135E-03  3.1523703E-02  1.4623337E-02
   8.60000  8.5750756E-03  3.4604882E-02  1.5333732E-02
   8.80000  9.0906341E-03  3.7872317E-02  1.6087621E-02
   9.00000  9.6584916E-03  4.1237857E-02  1.6851362E-02
   9.20000  1.0280679E-02  4.4578817E-02  1.7594907E-02
   9.40000  1.0958267E-02  4.7747037E-02  1.8299781E-02
   9.60000  1.1691288E-02  5.0587545E-02  1.8965122E-02
   9.80000  1.2478869E-02  5.2960172E-02  1.9607538E-02
   10.0000  1.3319964E-02  5.4753523E-02  2.0254014E-02
   10.2500  1.4445797E-02  5.6067234E-02  2.1109953E-02
   10.5000  1.5653633E-02  5.6297692E-02  2.2056916E-02
   10.7500  1.6939870E-02  5.5493284E-02  2.3112311E-02
   11.0000  1.8294186E-02  5.3802637E-02  2.4265286E-02
   11.2500  1.9697405E-02  5.1444200E-02  2.5482131E-02
   11.5000  2.1122296E-02  4.8662825E-02  2.6716969E-02
   11.7500  2.2537235E-02  4.5686767E-02  2.7922247E-02
   12.0000  2.3911866E-02  4.2698619E-02  2.9057152E-02
   12.2500  2.5222850E-02  3.9825622E-02  3.0093056E-02
   12.5000  2.6457316E-02  3.7146015E-02  3.1016155E-02
   12.7500  2.7612929E-02  3.4702040E-02  3.1827340E-02
   13.0000  2.8695507E-02  3.2510800E-02  3.2539305E-02
   13.2500  2.9715828E-02  3.0571884E-02  3.3172337E-02
   13.5000  3.0686921E-02  2.8873819E-02  3.3750583E-02
   13.7500  3.1622072E-02  2.7399449E-02  3.4299288E-02
   14.0000  3.2533201E-02  2.6129488E-02  3.4842605E-02
   14.2500  3.3429749E-02  2.5044491E-02  3.5401901E-02
   14.5000  3.4318251E-02  2.4125913E-02  3.5994578E-02
   14.7500  3.5202360E-02  2.3356650E-02  3.6633262E-02
   15.0000  3.6083067E-02  2.2721246E-02  3.7325152E-02
   15.2500  3.6958946E-02  2.2205886E-02  3.8071415E-02
   15.5000  3.7826359E-02  2.1798271E-02  3.8866625E-02
   15.7500  3.8679647E-02  2.1487442E-02  3.9698345E-02
   16.0000  3.9511373E-02  2.1263601E-02  4.0547013E-02
   16.2500  4.0312668E-02  2.1117945E-02  4.1386369E-02
   16.5000  4.1073742E-02  2.1042540E-02  4.2184629E-02
   16.7500  4.1784564E-02  2.1030211E-02  4.2906576E-02
   17.0000  4.2435691E-02  2.1074483E-02  4.3516526E-02
   17.2500  4.3019183E-02  2.1169522E-02  4.3981924E-02
   17.5000  4.3529458E-02  2.1310100E-02  4.4277017E-02
   17.7500  4.3963967E-02  2.1491553E-02  4.4385952E-02
   18.0000  4.4323524E-02  2.1709734E-02  4.4304623E-02
   18.2500  4.4612220E-02  2.1960956E-02  4.4040890E-02
   18.5000  4.4836920E-02  2.2241933E-02  4.3613144E-02
   18.7500  4.5006417E-02  2.2549723E-02  4.3047600E-02
   19.0000  4.5130398E-02  2.2881701E-02  4.2374899E-02
   19.2500  4.5218390E-02  2.3235564E-02  4.1626658E-02
   19.5000  4.5278832E-02  2.3609354E-02  4.0832468E-02
   19.7500  4.5318377E-02  2.4001438E-02  4.0017796E-02
   20.0000  4.5341465E-02  2.4410315E-02  3.9203191E-02
   21.0000  4.5281331E-02  2.6171153E-02  3.6224720E-02
   22.0000  4.4833161E-02  2.8015098E-02  3.3990115E-02
   23.0000  4.3698472E-02  2.9779831E-02  3.2435708E-02
   24.0000  4.1701371E-02  3.1281608E-02  3.1328029E-02
   25.0000  3.8950972E-02  3.2359576E-02  3.0463969E-02
   26.0000  3.5850735E-02  3.2933907E-02  2.9717022E-02
   27.0000  3.2916685E-02  3.3026892E-02  2.9038077E-02
   28.0000  3.0465583E-02  3.2738223E-02  2.8430043E-02
   29.0000  2.8584856E-02  3.2190432E-02  2.7924344E-02
   30.0000  2.7222679E-02  3.1490724E-02  2.7554068E-02
   31.0000  2.6263881E-02  3.0716163E-02  2.7329944E-02
   32.0000  2.5582554E-02  2.9912578E-02  2.7232633E-02
   33.0000  2.5068615E-02  2.9101466E-02  2.7220868E-02
   34.0000  2.4636315E-02  2.8290113E-02  2.7244946E-02
   35.0000  2.4223642E-02  2.7481257E-02  2.7257026E-02
   36.0000  2.3788734E-02  2.6679676E-02  2.7217143E-02
   37.0000  2.3308351E-02  2.5895094E-02  2.7097910E-02
   38.0000  2.2783066E-02  2.5145096E-02  2.6891924E-02
   39.0000  2.2249456E-02  2.4463906E-02  2.6624365E-02
   40.0000  2.1783511E-02  2.3909720E-02  2.6361798E-02
