    Energy   (100,001)      (010,001)      (001,110)   
  -25.0000  1.6647490E-04  1.7960967E-04  1.7771015E-04
  -24.0000  1.7238210E-04  1.8651715E-04  1.8399042E-04
  -23.0000  1.7867968E-04  1.9392597E-04  1.9068981E-04
  -22.0000  1.8540637E-04  2.0189106E-04  1.9785056E-04
  -21.0000  1.9260615E-04  2.1047558E-04  2.0552071E-04
  -20.0000  2.0032913E-04  2.1975243E-04  2.1375513E-04
  -19.0000  2.0863267E-04  2.2980621E-04  2.2261676E-04
  -18.0000  2.1758273E-04  2.4073566E-04  2.3217814E-04
  -17.0000  2.2725553E-04  2.5265668E-04  2.4252333E-04
  -16.0000  2.3773968E-04  2.6570621E-04  2.5375030E-04
  -15.0000  2.4913872E-04  2.8004713E-04  2.6597386E-04
  -14.0000  2.6157450E-04  2.9587466E-04  2.7932953E-04
  -13.0000  2.7519138E-04  3.1342473E-04  2.9397837E-04
  -12.0000  2.9016173E-04  3.3298501E-04  3.1011337E-04
  -11.0000  3.0669313E-04  3.5490976E-04  3.2796779E-04
  -10.0000  3.2503796E-04  3.7964007E-04  3.4782637E-04
  -9.00000  3.4550639E-04  4.0773186E-04  3.7004052E-04
  -8.00000  3.6848417E-04  4.3989542E-04  3.9504938E-04
  -7.00000  3.9445783E-04  4.7705253E-04  4.2340955E-04
  -6.00000  4.2405073E-04  5.2042068E-04  4.5583832E-04
  -5.00000  4.5807676E-04  5.7164116E-04  4.9327810E-04
  -4.00000  4.9762236E-04  6.3298018E-04  5.3699611E-04
  -3.00000  5.4417761E-04  7.0765721E-04  5.8874525E-04
  -2.00000  5.9985621E-04  8.0040755E-04  6.5103775E-04
  -1.00000  6.6778896E-04  9.1850537E-04  7.2764317E-04
   0.00000  7.5288890E-04  1.0737741E-03  8.2457814E-04
   1.00000  8.6351623E-04  1.2869727E-03  9.5232240E-04
   2.00000  1.0157283E-03  1.5989035E-03  1.1316888E-03
   3.00000  1.2470599E-03  2.1057054E-03  1.4137618E-03
   4.00000  1.6814128E-03  3.1200004E-03  1.9788744E-03
   5.00000  2.8678104E-03  6.0186008E-03  3.6643603E-03
   5.20000  3.2264048E-03  6.9309474E-03  4.1645099E-03
   5.40000  3.5744357E-03  7.8376751E-03  4.6151467E-03
   5.60000  3.9041499E-03  8.7083954E-03  4.9921997E-03
   5.80000  4.2233067E-03  9.5537201E-03  5.3056380E-03
   6.00000  4.5412457E-03  1.0400250E-02  5.5775779E-03
   6.20000  4.8636321E-03  1.1276908E-02  5.8289648E-03
   6.40000  5.1928245E-03  1.2210688E-02  6.0744981E-03
   6.60000  5.5299166E-03  1.3226034E-02  6.3224603E-03
   6.80000  5.8768715E-03  1.4344681E-02  6.5776334E-03
   7.00000  6.2379280E-03  1.5584809E-02  6.8455876E-03
   7.20000  6.6198086E-03  1.6960100E-02  7.1362455E-03
   7.40000  7.0309551E-03  1.8480016E-02  7.4648822E-03
   7.60000  7.4804858E-03  2.0151731E-02  7.8502908E-03
   7.80000  7.9773247E-03  2.1982727E-02  8.3115860E-03
   8.00000  8.5294778E-03  2.3982599E-02  8.8655063E-03
   8.20000  9.1432950E-03  2.6163305E-02  9.5251762E-03
   8.40000  9.8225838E-03  2.8537720E-02  1.0300073E-02
   8.60000  1.0567525E-02  3.1116539E-02  1.1196358E-02
   8.80000  1.1373496E-02  3.3903529E-02  1.2216865E-02
   9.00000  1.2230166E-02  3.6889112E-02  1.3360406E-02
   9.20000  1.3121527E-02  4.0042498E-02  1.4620454E-02
   9.40000  1.4027716E-02  4.3303362E-02  1.5983672E-02
   9.60000  1.4929086E-02  4.6575283E-02  1.7429128E-02
   9.80000  1.5811803E-02  4.9724406E-02  1.8929073E-02
   10.0000  1.6672632E-02  5.2586844E-02  2.0451489E-02
   10.2500  1.7731664E-02  5.5494470E-02  2.2336378E-02
   10.5000  1.8802842E-02  5.7378542E-02  2.4148262E-02
   10.7500  1.9918148E-02  5.8064888E-02  2.5844748E-02
   11.0000  2.1091844E-02  5.7555711E-02  2.7400018E-02
   11.2500  2.2313220E-02  5.6013918E-02  2.8800395E-02
   11.5000  2.3549872E-02  5.3699122E-02  3.0038822E-02
   11.7500  2.4758752E-02  5.0892752E-02  3.1113548E-02
   12.0000  2.5899417E-02  4.7845040E-02  3.2027862E-02
   12.2500  2.6944439E-02  4.4752064E-02  3.2789346E-02
   12.5000  2.7884490E-02  4.1752482E-02  3.3411564E-02
   12.7500  2.8727686E-02  3.8934313E-02  3.3915941E-02
   13.0000  2.9494799E-02  3.6345528E-02  3.4329299E-02
   13.2500  3.0212794E-02  3.4005198E-02  3.4679261E-02
   13.5000  3.0908457E-02  3.1914112E-02  3.4992242E-02
   13.7500  3.1603447E-02  3.0063119E-02  3.5293366E-02
   14.0000  3.2312205E-02  2.8438121E-02  3.5606026E-02
   14.2500  3.3042109E-02  2.7022680E-02  3.5950868E-02
   14.5000  3.3794396E-02  2.5799510E-02  3.6344835E-02
   14.7500  3.4565216E-02  2.4751416E-02  3.6800499E-02
   15.0000  3.5346716E-02  2.3861883E-02  3.7325643E-02
   15.2500  3.6128100E-02  2.3115420E-02  3.7922980E-02
   15.5000  3.6896644E-02  2.2497732E-02  3.8589926E-02
   15.7500  3.7638617E-02  2.1995791E-02  3.9318426E-02
   16.0000  3.8340069E-02  2.1597836E-02  4.0094856E-02
   16.2500  3.8987472E-02  2.1293321E-02  4.0900140E-02
   16.5000  3.9568212E-02  2.1072839E-02  4.1710211E-02
   16.7500  4.0070996E-02  2.0928045E-02  4.2496956E-02
   17.0000  4.0486206E-02  2.0851562E-02  4.3229735E-02
   17.2500  4.0806273E-02  2.0836909E-02  4.3877447E-02
   17.5000  4.1026103E-02  2.0878405E-02  4.4410989E-02
   17.7500  4.1143543E-02  2.0971085E-02  4.4805829E-02
   18.0000  4.1159819E-02  2.1110601E-02  4.5044300E-02
   18.2500  4.1079830E-02  2.1293111E-02  4.5117221E-02
   18.5000  4.0912173E-02  2.1515166E-02  4.5024559E-02
   18.7500  4.0668810E-02  2.1773605E-02  4.4774976E-02
   19.0000  4.0364348E-02  2.2065482E-02  4.4384372E-02
   19.2500  4.0014994E-02  2.2388030E-02  4.3873665E-02
   19.5000  3.9637321E-02  2.2738675E-02  4.3266235E-02
   19.7500  3.9247122E-02  2.3115020E-02  4.2585581E-02
   20.0000  3.8858699E-02  2.3514671E-02  4.1853853E-02
   21.0000  3.7558015E-02  2.5283739E-02  3.8802670E-02
   22.0000  3.6979981E-02  2.7175301E-02  3.6145828E-02
   23.0000  3.7092256E-02  2.9032872E-02  3.4102430E-02
   24.0000  3.7515211E-02  3.0721558E-02  3.2558803E-02
   25.0000  3.7758694E-02  3.2116018E-02  3.1335301E-02
   26.0000  3.7439941E-02  3.3113288E-02  3.0291720E-02
   27.0000  3.6438164E-02  3.3656913E-02  2.9357972E-02
   28.0000  3.4903846E-02  3.3753119E-02  2.8526998E-02
   29.0000  3.3127074E-02  3.3462601E-02  2.7823161E-02
   30.0000  3.1382461E-02  3.2881835E-02  2.7267802E-02
   31.0000  2.9840128E-02  3.2116694E-02  2.6859637E-02
   32.0000  2.8551315E-02  3.1241487E-02  2.6573113E-02
   33.0000  2.7496398E-02  3.0298841E-02  2.6374379E-02
   34.0000  2.6627497E-02  2.9313147E-02  2.6230401E-02
   35.0000  2.5889675E-02  2.8299331E-02  2.6109867E-02
   36.0000  2.5232908E-02  2.7271117E-02  2.5983610E-02
   37.0000  2.4620601E-02  2.6248938E-02  2.5827225E-02
   38.0000  2.4037820E-02  2.5267514E-02  2.5627947E-02
   39.0000  2.3500068E-02  2.4383585E-02  2.5396739E-02
   40.0000  2.3053770E-02  2.3674434E-02  2.5177464E-02
