    Energy   (100,001)      (010,001)      (001,110)   
  -25.0000  1.7203515E-04  1.8751429E-04  1.8178766E-04
  -24.0000  1.7834316E-04  1.9447309E-04  1.8844613E-04
  -23.0000  1.8508310E-04  2.0192656E-04  1.9556724E-04
  -22.0000  1.9229933E-04  2.0992823E-04  2.0319963E-04
  -21.0000  2.0004239E-04  2.1853958E-04  2.1139888E-04
  -20.0000  2.0837011E-04  2.2783146E-04  2.2022884E-04
  -19.0000  2.1734895E-04  2.3788605E-04  2.2976317E-04
  -18.0000  2.2705566E-04  2.4879911E-04  2.4008730E-04
  -17.0000  2.3757934E-04  2.6068290E-04  2.5130087E-04
  -16.0000  2.4902403E-04  2.7366987E-04  2.6352078E-04
  -15.0000  2.6151192E-04  2.8791736E-04  2.7688507E-04
  -14.0000  2.7518749E-04  3.0361367E-04  2.9155790E-04
  -13.0000  2.9022279E-04  3.2098598E-04  3.0773605E-04
  -12.0000  3.0682438E-04  3.4031079E-04  3.2565729E-04
  -11.0000  3.2524234E-04  3.6192801E-04  3.4561173E-04
  -10.0000  3.4578242E-04  3.8625991E-04  3.6795696E-04
  -9.00000  3.6882246E-04  4.1383750E-04  3.9313885E-04
  -8.00000  3.9483500E-04  4.4533748E-04  4.2172063E-04
  -7.00000  4.2441915E-04  4.8163537E-04  4.5442431E-04
  -6.00000  4.5834641E-04  5.2388361E-04  4.9219112E-04
  -5.00000  4.9762831E-04  5.7362957E-04  5.3627224E-04
  -4.00000  5.4361937E-04  6.3299951E-04  5.8836941E-04
  -3.00000  5.9817980E-04  7.0499664E-04  6.5086127E-04
  -2.00000  6.6394392E-04  7.9400670E-04  7.2718561E-04
  -1.00000  7.4478925E-04  9.0670669E-04  8.2252333E-04
   0.00000  8.4671749E-04  1.0538255E-03  9.4511937E-04
   1.00000  9.7968157E-04  1.2539206E-03  1.1091077E-03
   2.00000  1.1619541E-03  1.5427571E-03  1.3415016E-03
   3.00000  1.4331397E-03  2.0024961E-03  1.7038136E-03
   4.00000  1.9097177E-03  2.8926615E-03  2.3880372E-03
   5.00000  3.0691681E-03  5.3232650E-03  4.2037049E-03
   5.20000  3.4287479E-03  6.0708878E-03  4.7603807E-03
   5.40000  3.8015739E-03  6.8116478E-03  5.3200987E-03
   5.60000  4.1809810E-03  7.5287860E-03  5.8774204E-03
   5.80000  4.5715128E-03  8.2395080E-03  6.4502635E-03
   6.00000  4.9815996E-03  8.9714095E-03  7.0619934E-03
   6.20000  5.4206550E-03  9.7513021E-03  7.7338408E-03
   6.40000  5.8988844E-03  1.0603094E-02  8.4836796E-03
   6.60000  6.4274800E-03  1.1548675E-02  9.3263533E-03
   6.80000  7.0185037E-03  1.2609244E-02  1.0273925E-02
   7.00000  7.6844157E-03  1.3806248E-02  1.1335492E-02
   7.20000  8.4372193E-03  1.5161676E-02  1.2516477E-02
   7.40000  9.2871133E-03  1.6697611E-02  1.3817362E-02
   7.60000  1.0240554E-02  1.8434959E-02  1.5231938E-02
   7.80000  1.1297823E-02  2.0391277E-02  1.6745478E-02
   8.00000  1.2450685E-02  2.2577811E-02  1.8333550E-02
   8.20000  1.3681501E-02  2.4996218E-02  1.9962431E-02
   8.40000  1.4965493E-02  2.7635799E-02  2.1592328E-02
   8.60000  1.6277017E-02  3.0472293E-02  2.3183749E-02
   8.80000  1.7598234E-02  3.3468759E-02  2.4704540E-02
   9.00000  1.8925774E-02  3.6578132E-02  2.6133755E-02
   9.20000  2.0271018E-02  3.9746375E-02  2.7460528E-02
   9.40000  2.1653291E-02  4.2914360E-02  2.8679796E-02
   9.60000  2.3089380E-02  4.6016487E-02  2.9788553E-02
   9.80000  2.4584084E-02  4.8975961E-02  3.0784877E-02
   10.0000  2.6124546E-02  5.1699275E-02  3.1669374E-02
   10.2500  2.8064272E-02  5.4599317E-02  3.2626440E-02
   10.5000  2.9928906E-02  5.6715972E-02  3.3441155E-02
   10.7500  3.1607242E-02  5.7844000E-02  3.4147423E-02
   11.0000  3.3001036E-02  5.7878838E-02  3.4779655E-02
   11.2500  3.4046901E-02  5.6853137E-02  3.5367594E-02
   11.5000  3.4729042E-02  5.4924102E-02  3.5935265E-02
   11.7500  3.5085099E-02  5.2324856E-02  3.6498235E-02
   12.0000  3.5194843E-02  4.9308409E-02  3.7058861E-02
   12.2500  3.5154653E-02  4.6105274E-02  3.7603625E-02
   12.5000  3.5053847E-02  4.2900834E-02  3.8106630E-02
   12.7500  3.4960783E-02  3.9828779E-02  3.8537168E-02
   13.0000  3.4918673E-02  3.6974609E-02  3.8868131E-02
   13.2500  3.4948232E-02  3.4384062E-02  3.9082395E-02
   13.5000  3.5053835E-02  3.2073028E-02  3.9174989E-02
   13.7500  3.5230722E-02  3.0037357E-02  3.9152830E-02
   14.0000  3.5470870E-02  2.8261184E-02  3.9033253E-02
   14.2500  3.5765969E-02  2.6722720E-02  3.8840724E-02
   14.5000  3.6108116E-02  2.5397841E-02  3.8602504E-02
   14.7500  3.6489537E-02  2.4262351E-02  3.8344690E-02
   15.0000  3.6902047E-02  2.3293374E-02  3.8089266E-02
   15.2500  3.7336556E-02  2.2470124E-02  3.7852235E-02
   15.5000  3.7782828E-02  2.1774245E-02  3.7642767E-02
   15.7500  3.8229556E-02  2.1189873E-02  3.7463275E-02
   16.0000  3.8664760E-02  2.0703534E-02  3.7310276E-02
   16.2500  3.9076407E-02  2.0303957E-02  3.7175846E-02
   16.5000  3.9453157E-02  1.9981846E-02  3.7049437E-02
   16.7500  3.9785099E-02  1.9729629E-02  3.6919758E-02
   17.0000  4.0064374E-02  1.9541207E-02  3.6776452E-02
   17.2500  4.0285622E-02  1.9411698E-02  3.6611368E-02
   17.5000  4.0446209E-02  1.9337198E-02  3.6419290E-02
   17.7500  4.0546248E-02  1.9314552E-02  3.6198155E-02
   18.0000  4.0588422E-02  1.9341154E-02  3.5948817E-02
   18.2500  4.0577643E-02  1.9414774E-02  3.5674520E-02
   18.5000  4.0520578E-02  1.9533430E-02  3.5380210E-02
   18.7500  4.0425070E-02  1.9695297E-02  3.5071817E-02
   19.0000  4.0299510E-02  1.9898674E-02  3.4755586E-02
   19.2500  4.0152174E-02  2.0141985E-02  3.4437498E-02
   19.5000  3.9990607E-02  2.0423814E-02  3.4122817E-02
   19.7500  3.9821108E-02  2.0742888E-02  3.3815791E-02
   20.0000  3.9648421E-02  2.1097923E-02  3.3519599E-02
   21.0000  3.8969374E-02  2.2838354E-02  3.2482155E-02
   22.0000  3.8261546E-02  2.4982230E-02  3.1697258E-02
   23.0000  3.7296121E-02  2.7367189E-02  3.1079175E-02
   24.0000  3.5866234E-02  2.9775768E-02  3.0508560E-02
   25.0000  3.3954542E-02  3.1945273E-02  2.9897639E-02
   26.0000  3.1752482E-02  3.3628491E-02  2.9206371E-02
   27.0000  2.9578246E-02  3.4677444E-02  2.8450966E-02
   28.0000  2.7730922E-02  3.5098081E-02  2.7703482E-02
   29.0000  2.6336486E-02  3.5029254E-02  2.7050469E-02
   30.0000  2.5373290E-02  3.4643964E-02  2.6566304E-02
   31.0000  2.4754482E-02  3.4078937E-02  2.6288614E-02
   32.0000  2.4381245E-02  3.3417208E-02  2.6205305E-02
   33.0000  2.4165475E-02  3.2696076E-02  2.6263442E-02
   34.0000  2.4033091E-02  3.1923294E-02  2.6387525E-02
   35.0000  2.3921981E-02  3.1094175E-02  2.6495592E-02
   36.0000  2.3782420E-02  3.0206353E-02  2.6512003E-02
   37.0000  2.3582447E-02  2.9271528E-02  2.6381134E-02
   38.0000  2.3316882E-02  2.8325550E-02  2.6086166E-02
   39.0000  2.3015379E-02  2.7437943E-02  2.5673148E-02
   40.0000  2.2738765E-02  2.6709565E-02  2.5259748E-02
