    Energy   (100,001)      (010,001)      (001,110)   
  -25.0000  1.7318166E-04  1.7702007E-04  1.7254316E-04
  -24.0000  1.7973690E-04  1.8391652E-04  1.7920721E-04
  -23.0000  1.8675714E-04  1.9131917E-04  1.8635051E-04
  -22.0000  1.9429195E-04  1.9928409E-04  1.9402461E-04
  -21.0000  2.0239800E-04  2.0787583E-04  2.0228857E-04
  -20.0000  2.1114048E-04  2.1716899E-04  2.1121034E-04
  -19.0000  2.2059470E-04  2.2725033E-04  2.2086852E-04
  -18.0000  2.3084809E-04  2.3822124E-04  2.3135445E-04
  -17.0000  2.4200275E-04  2.5020096E-04  2.4277490E-04
  -16.0000  2.5417860E-04  2.6333062E-04  2.5525540E-04
  -15.0000  2.6751743E-04  2.7777847E-04  2.6894456E-04
  -14.0000  2.8218807E-04  2.9374660E-04  2.8401949E-04
  -13.0000  2.9839308E-04  3.1147979E-04  3.0069296E-04
  -12.0000  3.1637757E-04  3.3127728E-04  3.1922271E-04
  -11.0000  3.3644090E-04  3.5350857E-04  3.3992392E-04
  -10.0000  3.5895244E-04  3.7863503E-04  3.6318597E-04
  -9.00000  3.8437323E-04  4.0723998E-04  3.8949545E-04
  -8.00000  4.1328614E-04  4.4007120E-04  4.1946838E-04
  -7.00000  4.4643883E-04  4.7810253E-04  4.5389599E-04
  -6.00000  4.8480643E-04  5.2262509E-04  4.9381164E-04
  -5.00000  5.2968528E-04  5.7538635E-04  5.4059098E-04
  -4.00000  5.8283781E-04  6.3880913E-04  5.9610690E-04
  -3.00000  6.4672479E-04  7.1634996E-04  6.6297807E-04
  -2.00000  7.2489511E-04  8.1311400E-04  7.4498617E-04
  -1.00000  8.2267759E-04  9.3697352E-04  8.4781652E-04
   0.00000  9.4850175E-04  1.1007619E-03  9.8047120E-04
   1.00000  1.1166774E-03  1.3270372E-03  1.1582384E-03
   2.00000  1.3541158E-03  1.6600315E-03  1.4098513E-03
   3.00000  1.7204357E-03  2.2030351E-03  1.7987965E-03
   4.00000  2.3931759E-03  3.2855067E-03  2.5130254E-03
   5.00000  4.1015163E-03  6.3317363E-03  4.3199856E-03
   5.20000  4.6428629E-03  7.2964657E-03  4.8926216E-03
   5.40000  5.2134856E-03  8.2740633E-03  5.4966020E-03
   5.60000  5.8094549E-03  9.2420197E-03  6.1263695E-03
   5.80000  6.4439804E-03  1.0215849E-02  6.7937228E-03
   6.00000  7.1341393E-03  1.1222560E-02  7.5156592E-03
   6.20000  7.8940779E-03  1.2288457E-02  8.3096938E-03
   6.40000  8.7334231E-03  1.3437266E-02  9.1943280E-03
   6.60000  9.6580566E-03  1.4691355E-02  1.0190566E-02
   6.80000  1.0671747E-02  1.6073251E-02  1.1322148E-02
   7.00000  1.1777338E-02  1.7606357E-02  1.2613061E-02
   7.20000  1.2976369E-02  1.9314051E-02  1.4081407E-02
   7.40000  1.4267235E-02  2.1216874E-02  1.5729732E-02
   7.60000  1.5643864E-02  2.3329283E-02  1.7534720E-02
   7.80000  1.7097346E-02  2.5659544E-02  1.9443067E-02
   8.00000  1.8620416E-02  2.8214517E-02  2.1380748E-02
   8.20000  2.0211068E-02  3.1004683E-02  2.3274283E-02
   8.40000  2.1871656E-02  3.4041344E-02  2.5071008E-02
   8.60000  2.3604445E-02  3.7323373E-02  2.6746268E-02
   8.80000  2.5407510E-02  4.0818918E-02  2.8298119E-02
   9.00000  2.7272526E-02  4.4449386E-02  2.9737365E-02
   9.20000  2.9183318E-02  4.8082819E-02  3.1079976E-02
   9.40000  3.1114087E-02  5.1542039E-02  3.2344792E-02
   9.60000  3.3027420E-02  5.4625886E-02  3.3553882E-02
   9.80000  3.4874026E-02  5.7137459E-02  3.4732153E-02
   10.0000  3.6595831E-02  5.8913529E-02  3.5904269E-02
   10.2500  3.8479833E-02  5.9945876E-02  3.7387307E-02
   10.5000  3.9969127E-02  5.9620564E-02  3.8894743E-02
   10.7500  4.1001119E-02  5.8052170E-02  4.0394289E-02
   11.0000  4.1567775E-02  5.5479043E-02  4.1816115E-02
   11.2500  4.1708969E-02  5.2208136E-02  4.3064110E-02
   11.5000  4.1496298E-02  4.8557987E-02  4.4037124E-02
   11.7500  4.1015831E-02  4.4810514E-02  4.4653829E-02
   12.0000  4.0355193E-02  4.1180805E-02  4.4873450E-02
   12.2500  3.9596803E-02  3.7809231E-02  4.4706383E-02
   12.5000  3.8814270E-02  3.4770777E-02  4.4210481E-02
   12.7500  3.8068809E-02  3.2091142E-02  4.3474600E-02
   13.0000  3.7406753E-02  2.9763379E-02  4.2595559E-02
   13.2500  3.6859293E-02  2.7762264E-02  4.1658069E-02
   13.5000  3.6443935E-02  2.6054476E-02  4.0726906E-02
   13.7500  3.6166490E-02  2.4604856E-02  3.9848004E-02
   14.0000  3.6022766E-02  2.3379967E-02  3.9051410E-02
   14.2500  3.5999861E-02  2.2349837E-02  3.8353979E-02
   14.5000  3.6077221E-02  2.1488551E-02  3.7761837E-02
   14.7500  3.6227745E-02  2.0774165E-02  3.7272731E-02
   15.0000  3.6419210E-02  2.0188325E-02  3.6878186E-02
   15.2500  3.6616267E-02  1.9715754E-02  3.6565465E-02
   15.5000  3.6783104E-02  1.9343757E-02  3.6319325E-02
   15.7500  3.6886659E-02  1.9061760E-02  3.6123568E-02
   16.0000  3.6899988E-02  1.8860919E-02  3.5962384E-02
   16.2500  3.6805209E-02  1.8733787E-02  3.5821425E-02
   16.5000  3.6595407E-02  1.8674046E-02  3.5688598E-02
   16.7500  3.6275074E-02  1.8676273E-02  3.5554543E-02
   17.0000  3.5858971E-02  1.8735770E-02  3.5412816E-02
   17.2500  3.5369695E-02  1.8848421E-02  3.5259789E-02
   17.5000  3.4834489E-02  1.9010577E-02  3.5094323E-02
   17.7500  3.4281939E-02  1.9218976E-02  3.4917268E-02
   18.0000  3.3739110E-02  1.9470671E-02  3.4730884E-02
   18.2500  3.3229451E-02  1.9762978E-02  3.4538234E-02
   18.5000  3.2771567E-02  2.0093436E-02  3.4342648E-02
   18.7500  3.2378780E-02  2.0459781E-02  3.4147269E-02
   19.0000  3.2059277E-02  2.0859948E-02  3.3954723E-02
   19.2500  3.1816639E-02  2.1292099E-02  3.3766897E-02
   19.5000  3.1650546E-02  2.1754664E-02  3.3584816E-02
   19.7500  3.1557467E-02  2.2246315E-02  3.3408603E-02
   20.0000  3.1531188E-02  2.2765727E-02  3.3237540E-02
   21.0000  3.1900241E-02  2.5075060E-02  3.2570120E-02
   22.0000  3.2489852E-02  2.7620299E-02  3.1818237E-02
   23.0000  3.2670265E-02  3.0177962E-02  3.0860575E-02
   24.0000  3.2145839E-02  3.2439270E-02  2.9687810E-02
   25.0000  3.1012904E-02  3.4136260E-02  2.8395020E-02
   26.0000  2.9588041E-02  3.5095618E-02  2.7133292E-02
   27.0000  2.8175461E-02  3.5290200E-02  2.6050710E-02
   28.0000  2.6951080E-02  3.4848170E-02  2.5241754E-02
   29.0000  2.5975261E-02  3.3981559E-02  2.4724353E-02
   30.0000  2.5241662E-02  3.2896486E-02  2.4447516E-02
   31.0000  2.4709287E-02  3.1740635E-02  2.4319839E-02
   32.0000  2.4320124E-02  3.0593882E-02  2.4242498E-02
   33.0000  2.4011837E-02  2.9483572E-02  2.4132648E-02
   34.0000  2.3729840E-02  2.8407994E-02  2.3934821E-02
   35.0000  2.3438171E-02  2.7356387E-02  2.3624309E-02
   36.0000  2.3126102E-02  2.6322513E-02  2.3206833E-02
   37.0000  2.2806625E-02  2.5313187E-02  2.2715561E-02
   38.0000  2.2505787E-02  2.4354111E-02  2.2204428E-02
   39.0000  2.2248504E-02  2.3495103E-02  2.1737147E-02
   40.0000  2.2050349E-02  2.2806868E-02  2.1368912E-02
