    Energy   (100,001)      (010,001)      (001,110)   
  -25.0000  1.6679581E-04  1.8552000E-04  1.7399007E-04
  -24.0000  1.7302138E-04  1.9244827E-04  1.8056665E-04
  -23.0000  1.7967749E-04  1.9987085E-04  1.8760805E-04
  -22.0000  1.8680860E-04  2.0784138E-04  1.9516356E-04
  -21.0000  1.9446541E-04  2.1642140E-04  2.0328956E-04
  -20.0000  2.0270591E-04  2.2568193E-04  2.1205082E-04
  -19.0000  2.1159682E-04  2.3570531E-04  2.2152209E-04
  -18.0000  2.2121520E-04  2.4658750E-04  2.3179011E-04
  -17.0000  2.3165056E-04  2.5844106E-04  2.4295609E-04
  -16.0000  2.4300745E-04  2.7139879E-04  2.5513877E-04
  -15.0000  2.5540872E-04  2.8561848E-04  2.6847844E-04
  -14.0000  2.6899969E-04  3.0128903E-04  2.8314194E-04
  -13.0000  2.8395352E-04  3.1863838E-04  2.9932922E-04
  -12.0000  3.0047814E-04  3.3794406E-04  3.1728196E-04
  -11.0000  3.1882548E-04  3.5954729E-04  3.3729490E-04
  -10.0000  3.3930367E-04  3.8387211E-04  3.5973121E-04
  -9.00000  3.6229371E-04  4.1145192E-04  3.8504348E-04
  -8.00000  3.8827237E-04  4.4296664E-04  4.1380291E-04
  -7.00000  4.1784453E-04  4.7929629E-04  4.4674087E-04
  -6.00000  4.5178973E-04  5.2159958E-04  4.8480927E-04
  -5.00000  4.9113092E-04  5.7143283E-04  5.2927080E-04
  -4.00000  5.3723944E-04  6.3093532E-04  5.8183787E-04
  -3.00000  5.9200117E-04  7.0312960E-04  6.4489493E-04
  -2.00000  6.5809175E-04  7.9243071E-04  7.2187020E-04
  -1.00000  7.3945951E-04  9.0556087E-04  8.1789344E-04
   0.00000  8.4223812E-04  1.0533191E-03  9.4104674E-04
   1.00000  9.7665560E-04  1.2543670E-03  1.1049867E-03
   2.00000  1.1616522E-03  1.5445813E-03  1.3352619E-03
   3.00000  1.4388567E-03  2.0058851E-03  1.6881891E-03
   4.00000  1.9334430E-03  2.8935720E-03  2.3313045E-03
   5.00000  3.1654478E-03  5.2938962E-03  3.9468463E-03
   5.20000  3.5439078E-03  6.0475832E-03  4.4443373E-03
   5.40000  3.9296151E-03  6.8141329E-03  4.9548134E-03
   5.60000  4.3164220E-03  7.5777456E-03  5.4731116E-03
   5.80000  4.7130059E-03  8.3513294E-03  6.0136274E-03
   6.00000  5.1326369E-03  9.1563239E-03  6.5978356E-03
   6.20000  5.5877553E-03  1.0013517E-02  7.2487366E-03
   6.40000  6.0883444E-03  1.0941540E-02  7.9898562E-03
   6.60000  6.6418833E-03  1.1957445E-02  8.8452472E-03
   6.80000  7.2540224E-03  1.3077199E-02  9.8391409E-03
   7.00000  7.9296019E-03  1.4315630E-02  1.0994871E-02
   7.20000  8.6736229E-03  1.5685892E-02  1.2332828E-02
   7.40000  9.4917499E-03  1.7198886E-02  1.3866961E-02
   7.60000  1.0389891E-02  1.8863063E-02  1.5599148E-02
   7.80000  1.1372384E-02  2.0684870E-02  1.7510802E-02
   8.00000  1.2438605E-02  2.2670166E-02  1.9552161E-02
   8.20000  1.3578848E-02  2.4826680E-02  2.1633195E-02
   8.40000  1.4772180E-02  2.7166744E-02  2.3625956E-02
   8.60000  1.5990109E-02  2.9708394E-02  2.5390053E-02
   8.80000  1.7207193E-02  3.2472657E-02  2.6819951E-02
   9.00000  1.8413170E-02  3.5476574E-02  2.7888476E-02
   9.20000  1.9617815E-02  3.8722853E-02  2.8654791E-02
   9.40000  2.0845455E-02  4.2187253E-02  2.9232831E-02
   9.60000  2.2124417E-02  4.5805444E-02  2.9746489E-02
   9.80000  2.3478139E-02  4.9462518E-02  3.0297987E-02
   10.0000  2.4919536E-02  5.2988958E-02  3.0955963E-02
   10.2500  2.6839279E-02  5.6878779E-02  3.1978938E-02
   10.5000  2.8845964E-02  5.9751700E-02  3.3227451E-02
   10.7500  3.0854842E-02  6.1201046E-02  3.4653067E-02
   11.0000  3.2758000E-02  6.1020583E-02  3.6168860E-02
   11.2500  3.4447086E-02  5.9284677E-02  3.7668664E-02
   11.5000  3.5837149E-02  5.6322079E-02  3.9048841E-02
   11.7500  3.6881896E-02  5.2595613E-02  4.0222781E-02
   12.0000  3.7576270E-02  4.8560110E-02  4.1126135E-02
   12.2500  3.7950963E-02  4.4568598E-02  4.1721618E-02
   12.5000  3.8062456E-02  4.0844313E-02  4.2003575E-02
   12.7500  3.7980427E-02  3.7497254E-02  4.1998150E-02
   13.0000  3.7775933E-02  3.4558886E-02  4.1757086E-02
   13.2500  3.7512802E-02  3.2015830E-02  4.1345530E-02
   13.5000  3.7242896E-02  2.9833576E-02  4.0829155E-02
   13.7500  3.7004803E-02  2.7970439E-02  4.0266017E-02
   14.0000  3.6824701E-02  2.6384997E-02  3.9703038E-02
   14.2500  3.6718080E-02  2.5039552E-02  3.9174971E-02
   14.5000  3.6691631E-02  2.3901329E-02  3.8704805E-02
   14.7500  3.6745001E-02  2.2942487E-02  3.8305082E-02
   15.0000  3.6872278E-02  2.2139631E-02  3.7979660E-02
   15.2500  3.7063245E-02  2.1473165E-02  3.7725597E-02
   15.5000  3.7304441E-02  2.0926651E-02  3.7534923E-02
   15.7500  3.7580123E-02  2.0486235E-02  3.7396247E-02
   16.0000  3.7873213E-02  2.0140160E-02  3.7296168E-02
   16.2500  3.8166278E-02  1.9878358E-02  3.7220495E-02
   16.5000  3.8442577E-02  1.9692129E-02  3.7155302E-02
   16.7500  3.8687169E-02  1.9573890E-02  3.7087788E-02
   17.0000  3.8888019E-02  1.9516992E-02  3.7006959E-02
   17.2500  3.9036986E-02  1.9515587E-02  3.6904108E-02
   17.5000  3.9130571E-02  1.9564537E-02  3.6773105E-02
   17.7500  3.9170262E-02  1.9659342E-02  3.6610482E-02
   18.0000  3.9162371E-02  1.9796089E-02  3.6415339E-02
   18.2500  3.9117321E-02  1.9971404E-02  3.6189079E-02
   18.5000  3.9048452E-02  2.0182406E-02  3.5935011E-02
   18.7500  3.8970497E-02  2.0426667E-02  3.5657857E-02
   19.0000  3.8897979E-02  2.0702188E-02  3.5363196E-02
   19.2500  3.8843731E-02  2.1007387E-02  3.5056899E-02
   19.5000  3.8817722E-02  2.1341092E-02  3.4744588E-02
   19.7500  3.8826243E-02  2.1702483E-02  3.4431223E-02
   20.0000  3.8871414E-02  2.2090874E-02  3.4120920E-02
   21.0000  3.9322013E-02  2.3888925E-02  3.2970754E-02
   22.0000  3.9696203E-02  2.5995936E-02  3.2021721E-02
   23.0000  3.9210264E-02  2.8267774E-02  3.1205899E-02
   24.0000  3.7467423E-02  3.0493829E-02  3.0400290E-02
   25.0000  3.4752306E-02  3.2417296E-02  2.9530318E-02
   26.0000  3.1765162E-02  3.3814561E-02  2.8605941E-02
   27.0000  2.9076118E-02  3.4618228E-02  2.7686855E-02
   28.0000  2.6940142E-02  3.4872643E-02  2.6852393E-02
   29.0000  2.5377804E-02  3.4679021E-02  2.6171096E-02
   30.0000  2.4298033E-02  3.4168713E-02  2.5673187E-02
   31.0000  2.3581145E-02  3.3468187E-02  2.5342948E-02
   32.0000  2.3115270E-02  3.2671706E-02  2.5130508E-02
   33.0000  2.2806593E-02  3.1834223E-02  2.4971974E-02
   34.0000  2.2579946E-02  3.0979021E-02  2.4806896E-02
   35.0000  2.2377808E-02  3.0110889E-02  2.4588530E-02
   36.0000  2.2160489E-02  2.9229134E-02  2.4288253E-02
   37.0000  2.1907731E-02  2.8338721E-02  2.3897451E-02
   38.0000  2.1621334E-02  2.7461028E-02  2.3431697E-02
   39.0000  2.1327102E-02  2.6646516E-02  2.2940279E-02
   40.0000  2.1069838E-02  2.5978465E-02  2.2507720E-02
