    Energy   (100,001)      (010,001)      (001,110)   
  -25.0000  1.6715820E-04  1.8054324E-04  1.8033363E-04
  -24.0000  1.7304580E-04  1.8759554E-04  1.8678416E-04
  -23.0000  1.7932105E-04  1.9516657E-04  1.9367511E-04
  -22.0000  1.8602233E-04  2.0331385E-04  2.0105231E-04
  -21.0000  1.9319327E-04  2.1210356E-04  2.0896815E-04
  -20.0000  2.0088353E-04  2.2161224E-04  2.1748275E-04
  -19.0000  2.0915000E-04  2.3192881E-04  2.2666552E-04
  -18.0000  2.1805808E-04  2.4315724E-04  2.3659696E-04
  -17.0000  2.2768340E-04  2.5541973E-04  2.4737100E-04
  -16.0000  2.3811384E-04  2.6886091E-04  2.5909794E-04
  -15.0000  2.4945217E-04  2.8365311E-04  2.7190819E-04
  -14.0000  2.6181933E-04  3.0000325E-04  2.8595711E-04
  -13.0000  2.7535868E-04  3.1816186E-04  3.0143133E-04
  -12.0000  2.9024149E-04  3.3843498E-04  3.1855705E-04
  -11.0000  3.0667414E-04  3.6120027E-04  3.3761134E-04
  -10.0000  3.2490774E-04  3.8692886E-04  3.5893740E-04
  -9.00000  3.4525112E-04  4.1621580E-04  3.8296587E-04
  -8.00000  3.6808881E-04  4.4982295E-04  4.1024514E-04
  -7.00000  3.9390633E-04  4.8874099E-04  4.4148535E-04
  -6.00000  4.2332659E-04  5.3428102E-04  4.7762428E-04
  -5.00000  4.5716405E-04  5.8821366E-04  5.1992906E-04
  -4.00000  4.9650757E-04  6.5298726E-04  5.7015933E-04
  -3.00000  5.4285285E-04  7.3208335E-04  6.3084109E-04
  -2.00000  5.9832417E-04  8.3062311E-04  7.0575197E-04
  -1.00000  6.6606994E-04  9.5646316E-04  8.0084189E-04
   0.00000  7.5102684E-04  1.1223280E-03  9.2613623E-04
   1.00000  8.6156573E-04  1.3503954E-03  1.1001404E-03
   2.00000  1.0136277E-03  1.6836691E-03  1.3617358E-03
   3.00000  1.2438485E-03  2.2210994E-03  1.8104152E-03
   4.00000  1.6697815E-03  3.2725140E-03  2.7985830E-03
   5.00000  2.8029262E-03  6.1569969E-03  5.9954431E-03
   5.20000  3.1490336E-03  7.0667832E-03  7.0732243E-03
   5.40000  3.4916311E-03  7.9951768E-03  8.1864343E-03
   5.60000  3.8233638E-03  8.9259113E-03  9.2978750E-03
   5.80000  4.1511794E-03  9.8769301E-03  1.0400472E-02
   6.00000  4.4848662E-03  1.0874613E-02  1.1485494E-02
   6.20000  4.8324195E-03  1.1941543E-02  1.2524145E-02
   6.40000  5.1998493E-03  1.3093935E-02  1.3461377E-02
   6.60000  5.5920118E-03  1.4342888E-02  1.4220785E-02
   6.80000  6.0131781E-03  1.5698337E-02  1.4725071E-02
   7.00000  6.4672843E-03  1.7175538E-02  1.4930960E-02
   7.20000  6.9583158E-03  1.8801471E-02  1.4860877E-02
   7.40000  7.4911122E-03  2.0616190E-02  1.4605187E-02
   7.60000  8.0721430E-03  2.2666835E-02  1.4288705E-02
   7.80000  8.7093629E-03  2.4998287E-02  1.4026385E-02
   8.00000  9.4108028E-03  2.7646021E-02  1.3897081E-02
   8.20000  1.0182321E-02  3.0632406E-02  1.3941623E-02
   8.40000  1.1025079E-02  3.3963972E-02  1.4173558E-02
   8.60000  1.1933048E-02  3.7626825E-02  1.4590408E-02
   8.80000  1.2890881E-02  4.1579049E-02  1.5180461E-02
   9.00000  1.3872960E-02  4.5740899E-02  1.5925332E-02
   9.20000  1.4845150E-02  4.9985405E-02  1.6800470E-02
   9.40000  1.5770605E-02  5.4133716E-02  1.7775704E-02
   9.60000  1.6619182E-02  5.7960609E-02  1.8817061E-02
   9.80000  1.7376938E-02  6.1214182E-02  1.9889889E-02
   10.0000  1.8050583E-02  6.3649206E-02  2.0962400E-02
   10.2500  1.8811710E-02  6.5248538E-02  2.2263784E-02
   10.5000  1.9540758E-02  6.5079301E-02  2.3491287E-02
   10.7500  2.0290152E-02  6.3233751E-02  2.4629275E-02
   11.0000  2.1087526E-02  6.0057106E-02  2.5672114E-02
   11.2500  2.1932891E-02  5.6032103E-02  2.6618249E-02
   11.5000  2.2804673E-02  5.1639118E-02  2.7467999E-02
   11.7500  2.3670886E-02  4.7259099E-02  2.8222703E-02
   12.0000  2.4499250E-02  4.3141084E-02  2.8887253E-02
   12.2500  2.5262471E-02  3.9417214E-02  2.9473247E-02
   12.5000  2.5941398E-02  3.6136442E-02  2.9997048E-02
   12.7500  2.6528048E-02  3.3296169E-02  3.0475932E-02
   13.0000  2.7026863E-02  3.0865576E-02  3.0926107E-02
   13.2500  2.7452895E-02  2.8801215E-02  3.1362241E-02
   13.5000  2.7827194E-02  2.7056416E-02  3.1797718E-02
   13.7500  2.8171864E-02  2.5586505E-02  3.2245468E-02
   14.0000  2.8507285E-02  2.4351519E-02  3.2718595E-02
   14.2500  2.8851013E-02  2.3317151E-02  3.3229766E-02
   14.5000  2.9217185E-02  2.2454604E-02  3.3789654E-02
   14.7500  2.9616158E-02  2.1739986E-02  3.4405227E-02
   15.0000  3.0054502E-02  2.1153594E-02  3.5078261E-02
   15.2500  3.0535338E-02  2.0679217E-02  3.5804186E-02
   15.5000  3.1058950E-02  2.0303516E-02  3.6571367E-02
   15.7500  3.1623551E-02  2.0015491E-02  3.7360987E-02
   16.0000  3.2226048E-02  1.9806035E-02  3.8147722E-02
   16.2500  3.2862701E-02  1.9667561E-02  3.8901375E-02
   16.5000  3.3529590E-02  1.9593707E-02  3.9589447E-02
   16.7500  3.4222862E-02  1.9579095E-02  4.0180427E-02
   17.0000  3.4938774E-02  1.9619134E-02  4.0647292E-02
   17.2500  3.5673594E-02  1.9709874E-02  4.0970565E-02
   17.5000  3.6423422E-02  1.9847874E-02  4.1140328E-02
   17.7500  3.7184023E-02  2.0030108E-02  4.1156788E-02
   18.0000  3.7950704E-02  2.0253883E-02  4.1029410E-02
   18.2500  3.8718275E-02  2.0516768E-02  4.0774921E-02
   18.5000  3.9481091E-02  2.0816538E-02  4.0414742E-02
   18.7500  4.0233174E-02  2.1151135E-02  3.9972348E-02
   19.0000  4.0968381E-02  2.1518647E-02  3.9470976E-02
   19.2500  4.1680619E-02  2.1917322E-02  3.8931869E-02
   19.5000  4.2364060E-02  2.2345589E-02  3.8373113E-02
   19.7500  4.3013234E-02  2.2802033E-02  3.7809092E-02
   20.0000  4.3622787E-02  2.3285150E-02  3.7250646E-02
   21.0000  4.5532609E-02  2.5432316E-02  3.5211097E-02
   22.0000  4.6267403E-02  2.7767003E-02  3.3619507E-02
   23.0000  4.5551307E-02  3.0061198E-02  3.2425305E-02
   24.0000  4.3451219E-02  3.2048653E-02  3.1496226E-02
   25.0000  4.0402883E-02  3.3479818E-02  3.0723627E-02
   26.0000  3.7019854E-02  3.4217198E-02  3.0047300E-02
   27.0000  3.3842887E-02  3.4288985E-02  2.9454562E-02
   28.0000  3.1189777E-02  3.3851638E-02  2.8962683E-02
   29.0000  2.9149748E-02  3.3100667E-02  2.8588136E-02
   30.0000  2.7666808E-02  3.2199165E-02  2.8325637E-02
   31.0000  2.6627422E-02  3.1249818E-02  2.8148521E-02
   32.0000  2.5906170E-02  3.0303591E-02  2.8017562E-02
   33.0000  2.5386297E-02  2.9377812E-02  2.7889752E-02
   34.0000  2.4984819E-02  2.8461645E-02  2.7728185E-02
   35.0000  2.4647952E-02  2.7536179E-02  2.7508663E-02
   36.0000  2.4339471E-02  2.6592486E-02  2.7221866E-02
   37.0000  2.4037122E-02  2.5639905E-02  2.6874295E-02
   38.0000  2.3733224E-02  2.4710636E-02  2.6489779E-02
   39.0000  2.3438591E-02  2.3863421E-02  2.6110839E-02
   40.0000  2.3184475E-02  2.3178728E-02  2.5793267E-02
