    Energy   (100,001)      (010,001)      (001,110)   
  -25.0000  1.6690610E-04  1.8027080E-04  1.7751945E-04
  -24.0000  1.7319695E-04  1.8719734E-04  1.8408944E-04
  -23.0000  1.7992784E-04  1.9462778E-04  1.9112007E-04
  -22.0000  1.8714481E-04  2.0261760E-04  1.9866019E-04
  -21.0000  1.9490043E-04  2.1123059E-04  2.0676574E-04
  -20.0000  2.0325497E-04  2.2054049E-04  2.1550100E-04
  -19.0000  2.1227789E-04  2.3063293E-04  2.2494028E-04
  -18.0000  2.2204960E-04  2.4160793E-04  2.3516988E-04
  -17.0000  2.3266373E-04  2.5358304E-04  2.4629064E-04
  -16.0000  2.4422990E-04  2.6669728E-04  2.5842110E-04
  -15.0000  2.5687734E-04  2.8111621E-04  2.7170153E-04
  -14.0000  2.7075935E-04  2.9703853E-04  2.8629917E-04
  -13.0000  2.8605924E-04  3.1470469E-04  3.0241501E-04
  -12.0000  3.0299799E-04  3.3440832E-04  3.2029269E-04
  -11.0000  3.2184445E-04  3.5651160E-04  3.4023056E-04
  -10.0000  3.4292902E-04  3.8146622E-04  3.6259783E-04
  -9.00000  3.6666239E-04  4.0984251E-04  3.8785715E-04
  -8.00000  3.9356160E-04  4.4237059E-04  4.1659621E-04
  -7.00000  4.2428703E-04  4.7999982E-04  4.4957347E-04
  -6.00000  4.5969635E-04  5.2398667E-04  4.8778577E-04
  -5.00000  5.0092504E-04  5.7602843E-04  5.3257140E-04
  -4.00000  5.4951083E-04  6.3847309E-04  5.8577313E-04
  -3.00000  6.0759349E-04  7.1466181E-04  6.5000716E-04
  -2.00000  6.7825051E-04  8.0951411E-04  7.2913100E-04
  -1.00000  7.6609538E-04  9.3058731E-04  8.2911327E-04
   0.00000  8.7842540E-04  1.0901418E-03  9.5979499E-04
   1.00000  1.0276537E-03  1.3095871E-03  1.1388899E-03
   2.00000  1.2372332E-03  1.6305050E-03  1.4026537E-03
   3.00000  1.5594740E-03  2.1485362E-03  1.8420075E-03
   4.00000  2.1509367E-03  3.1611002E-03  2.7792874E-03
   5.00000  3.6647277E-03  5.9366401E-03  5.7123387E-03
   5.20000  4.1589925E-03  6.8348015E-03  6.6151259E-03
   5.40000  4.6908139E-03  7.7751544E-03  7.4636310E-03
   5.60000  5.2510647E-03  8.7411971E-03  8.2196335E-03
   5.80000  5.8413076E-03  9.7433765E-03  8.8904152E-03
   6.00000  6.4686608E-03  1.0797640E-02  9.4954734E-03
   6.20000  7.1446563E-03  1.1915166E-02  1.0054622E-02
   6.40000  7.8843792E-03  1.3101353E-02  1.0588796E-02
   6.60000  8.7038735E-03  1.4359777E-02  1.1122103E-02
   6.80000  9.6165625E-03  1.5698578E-02  1.1681288E-02
   7.00000  1.0629813E-02  1.7135820E-02  1.2292895E-02
   7.20000  1.1742037E-02  1.8700241E-02  1.2979547E-02
   7.40000  1.2939945E-02  2.0426801E-02  1.3756325E-02
   7.60000  1.4195913E-02  2.2349613E-02  1.4627885E-02
   7.80000  1.5467184E-02  2.4495281E-02  1.5587543E-02
   8.00000  1.6700719E-02  2.6878960E-02  1.6620373E-02
   8.20000  1.7846695E-02  2.9504659E-02  1.7711511E-02
   8.40000  1.8877264E-02  3.2369309E-02  1.8856797E-02
   8.60000  1.9798969E-02  3.5466190E-02  2.0068459E-02
   8.80000  2.0648370E-02  3.8781272E-02  2.1370166E-02
   9.00000  2.1473517E-02  4.2280114E-02  2.2783586E-02
   9.20000  2.2314731E-02  4.5889995E-02  2.4314186E-02
   9.40000  2.3194861E-02  4.9485095E-02  2.5943634E-02
   9.60000  2.4119232E-02  5.2881958E-02  2.7631640E-02
   9.80000  2.5080305E-02  5.5851893E-02  2.9323908E-02
   10.0000  2.6062656E-02  5.8153578E-02  3.0961362E-02
   10.2500  2.7290207E-02  5.9783922E-02  3.2847412E-02
   10.5000  2.8478566E-02  5.9844197E-02  3.4478512E-02
   10.7500  2.9591427E-02  5.8405494E-02  3.5811304E-02
   11.0000  3.0605133E-02  5.5780058E-02  3.6841453E-02
   11.2500  3.1506046E-02  5.2396825E-02  3.7589080E-02
   11.5000  3.2282819E-02  4.8672765E-02  3.8081580E-02
   11.7500  3.2928366E-02  4.4933154E-02  3.8344705E-02
   12.0000  3.3446162E-02  4.1389032E-02  3.8403712E-02
   12.2500  3.3851960E-02  3.8152219E-02  3.8288845E-02
   12.5000  3.4171676E-02  3.5264367E-02  3.8038306E-02
   12.7500  3.4437239E-02  3.2724838E-02  3.7696450E-02
   13.0000  3.4680587E-02  3.0511338E-02  3.7308689E-02
   13.2500  3.4928314E-02  2.8592949E-02  3.6915871E-02
   13.5000  3.5199664E-02  2.6937039E-02  3.6551104E-02
   13.7500  3.5507010E-02  2.5512476E-02  3.6239013E-02
   14.0000  3.5856957E-02  2.4291059E-02  3.5995978E-02
   14.2500  3.6251251E-02  2.3248045E-02  3.5830675E-02
   14.5000  3.6687347E-02  2.2362164E-02  3.5744787E-02
   14.7500  3.7158752E-02  2.1615333E-02  3.5733804E-02
   15.0000  3.7655275E-02  2.0992263E-02  3.5787914E-02
   15.2500  3.8163397E-02  2.0480026E-02  3.5892996E-02
   15.5000  3.8666910E-02  2.0067650E-02  3.6031777E-02
   15.7500  3.9147941E-02  1.9745763E-02  3.6185176E-02
   16.0000  3.9588349E-02  1.9506295E-02  3.6333805E-02
   16.2500  3.9971385E-02  1.9342239E-02  3.6459535E-02
   16.5000  4.0283417E-02  1.9247462E-02  3.6546952E-02
   16.7500  4.0515439E-02  1.9216548E-02  3.6584522E-02
   17.0000  4.0664103E-02  1.9244682E-02  3.6565276E-02
   17.2500  4.0732049E-02  1.9327558E-02  3.6486961E-02
   17.5000  4.0727461E-02  1.9461309E-02  3.6351663E-02
   17.7500  4.0662904E-02  1.9642446E-02  3.6165015E-02
   18.0000  4.0553687E-02  1.9867811E-02  3.5935166E-02
   18.2500  4.0416022E-02  2.0134537E-02  3.5671691E-02
   18.5000  4.0265303E-02  2.0440004E-02  3.5384571E-02
   18.7500  4.0114701E-02  2.0781816E-02  3.5083356E-02
   19.0000  3.9974215E-02  2.1157788E-02  3.4776530E-02
   19.2500  3.9850178E-02  2.1565962E-02  3.4471093E-02
   19.5000  3.9745171E-02  2.2004638E-02  3.4172326E-02
   19.7500  3.9658214E-02  2.2472340E-02  3.3883743E-02
   20.0000  3.9585095E-02  2.2967576E-02  3.3607261E-02
   21.0000  3.9262798E-02  2.5174196E-02  3.2626397E-02
   22.0000  3.8435215E-02  2.7597979E-02  3.1793012E-02
   23.0000  3.6758020E-02  3.0032454E-02  3.0997848E-02
   24.0000  3.4409290E-02  3.2221187E-02  3.0165907E-02
   25.0000  3.1865068E-02  3.3891472E-02  2.9280897E-02
   26.0000  2.9519051E-02  3.4851019E-02  2.8379975E-02
   27.0000  2.7551239E-02  3.5076991E-02  2.7539492E-02
   28.0000  2.6004304E-02  3.4717893E-02  2.6841575E-02
   29.0000  2.4846365E-02  3.3994390E-02  2.6325659E-02
   30.0000  2.4013725E-02  3.3097850E-02  2.5984123E-02
   31.0000  2.3432130E-02  3.2148852E-02  2.5777286E-02
   32.0000  2.3026631E-02  3.1203099E-02  2.5651474E-02
   33.0000  2.2729623E-02  3.0274052E-02  2.5554985E-02
   34.0000  2.2485414E-02  2.9353458E-02  2.5446088E-02
   35.0000  2.2252137E-02  2.8425960E-02  2.5295564E-02
   36.0000  2.2002692E-02  2.7480325E-02  2.5088395E-02
   37.0000  2.1725588E-02  2.6519121E-02  2.4825532E-02
   38.0000  2.1426520E-02  2.5568256E-02  2.4524622E-02
   39.0000  2.1130300E-02  2.4686850E-02  2.4220047E-02
   40.0000  2.0876917E-02  2.3965709E-02  2.3959577E-02
