    Energy   (100,001)      (010,001)      (001,110)   
  -25.0000  1.6386567E-04  1.7918421E-04  1.6693804E-04
  -24.0000  1.7004426E-04  1.8620753E-04  1.7330860E-04
  -23.0000  1.7665226E-04  1.9374999E-04  1.8012871E-04
  -22.0000  1.8373414E-04  2.0186949E-04  1.8744567E-04
  -21.0000  1.9134053E-04  2.1063268E-04  1.9531356E-04
  -20.0000  1.9952943E-04  2.2011671E-04  2.0379437E-04
  -19.0000  2.0836750E-04  2.3041131E-04  2.1295957E-04
  -18.0000  2.1793175E-04  2.4162146E-04  2.2289197E-04
  -17.0000  2.2831161E-04  2.5387071E-04  2.3368795E-04
  -16.0000  2.3961153E-04  2.6730542E-04  2.4546045E-04
  -15.0000  2.5195417E-04  2.8210018E-04  2.5834254E-04
  -14.0000  2.6548461E-04  2.9846493E-04  2.7249213E-04
  -13.0000  2.8037562E-04  3.1665415E-04  2.8809798E-04
  -12.0000  2.9683452E-04  3.3697918E-04  3.0538757E-04
  -11.0000  3.1511233E-04  3.5982482E-04  3.2463744E-04
  -10.0000  3.3551575E-04  3.8567193E-04  3.4618718E-04
  -9.00000  3.5842356E-04  4.1512893E-04  3.7045830E-04
  -8.00000  3.8430905E-04  4.4897636E-04  3.9798052E-04
  -7.00000  4.1377160E-04  4.8823133E-04  4.2942886E-04
  -6.00000  4.4758190E-04  5.3424291E-04  4.6567725E-04
  -5.00000  4.8674849E-04  5.8883742E-04  5.0787812E-04
  -4.00000  5.3261876E-04  6.5454653E-04  5.5758420E-04
  -3.00000  5.8703774E-04  7.3497951E-04  6.1694210E-04
  -2.00000  6.5260925E-04  8.3545866E-04  6.8901407E-04
  -1.00000  7.3315024E-04  9.6416707E-04  7.7834409E-04
   0.00000  8.3454134E-04  1.1343766E-03  8.9203036E-04
   1.00000  9.6648729E-04  1.3692112E-03  1.0419699E-03
   2.00000  1.1467274E-03  1.7133254E-03  1.2502741E-03
   3.00000  1.4136225E-03  2.2682225E-03  1.5655053E-03
   4.00000  1.8802019E-03  3.3429596E-03  2.1318574E-03
   5.00000  3.0142905E-03  6.2274851E-03  3.5445061E-03
   5.20000  3.3685213E-03  7.1596185E-03  3.9928917E-03
   5.40000  3.7372054E-03  8.1449332E-03  4.4692531E-03
   5.60000  4.1123379E-03  9.1720192E-03  4.9727171E-03
   5.80000  4.4960991E-03  1.0256153E-02  5.5155572E-03
   6.00000  4.8941264E-03  1.1419144E-02  6.1097365E-03
   6.20000  5.3126864E-03  1.2681494E-02  6.7582372E-03
   6.40000  5.7584376E-03  1.4061700E-02  7.4515359E-03
   6.60000  6.2386850E-03  1.5576000E-02  8.1687837E-03
   6.80000  6.7613668E-03  1.7237763E-02  8.8849797E-03
   7.00000  7.3347069E-03  1.9058934E-02  9.5840959E-03
   7.20000  7.9665842E-03  2.1054167E-02  1.0272252E-02
   7.40000  8.6635176E-03  2.3243587E-02  1.0979842E-02
   7.60000  9.4292338E-03  2.5649336E-02  1.1746976E-02
   7.80000  1.0263291E-02  2.8287363E-02  1.2601050E-02
   8.00000  1.1160975E-02  3.1162030E-02  1.3543083E-02
   8.20000  1.2116022E-02  3.4269949E-02  1.4553814E-02
   8.40000  1.3126402E-02  3.7611014E-02  1.5617198E-02
   8.60000  1.4200110E-02  4.1193805E-02  1.6744906E-02
   8.80000  1.5356372E-02  4.5021454E-02  1.7982294E-02
   9.00000  1.6621153E-02  4.9058149E-02  1.9391735E-02
   9.20000  1.8020445E-02  5.3191529E-02  2.1027534E-02
   9.40000  1.9574973E-02  5.7209347E-02  2.2917768E-02
   9.60000  2.1296911E-02  6.0805010E-02  2.5057284E-02
   9.80000  2.3187274E-02  6.3621979E-02  2.7408660E-02
   10.0000  2.5232668E-02  6.5335213E-02  2.9908264E-02
   10.2500  2.7956963E-02  6.5635928E-02  3.3118409E-02
   10.5000  3.0763698E-02  6.3926401E-02  3.6268604E-02
   10.7500  3.3498537E-02  6.0628530E-02  3.9204642E-02
   11.0000  3.5984249E-02  5.6360428E-02  4.1791544E-02
   11.2500  3.8057216E-02  5.1709157E-02  4.3910937E-02
   11.5000  3.9604829E-02  4.7106750E-02  4.5464046E-02
   11.7500  4.0590225E-02  4.2811737E-02  4.6387614E-02
   12.0000  4.1055286E-02  3.8945572E-02  4.6673953E-02
   12.2500  4.1100827E-02  3.5541239E-02  4.6380356E-02
   12.5000  4.0854659E-02  3.2583407E-02  4.5619252E-02
   12.7500  4.0442753E-02  3.0034651E-02  4.4534486E-02
   13.0000  3.9971837E-02  2.7849914E-02  4.3275229E-02
   13.2500  3.9521945E-02  2.5984225E-02  4.1972399E-02
   13.5000  3.9145513E-02  2.4396692E-02  4.0723414E-02
   13.7500  3.8871202E-02  2.3051695E-02  3.9590775E-02
   14.0000  3.8709564E-02  2.1918618E-02  3.8609248E-02
   14.2500  3.8658152E-02  2.0971302E-02  3.7793996E-02
   14.5000  3.8705360E-02  2.0187535E-02  3.7146882E-02
   14.7500  3.8833181E-02  1.9548548E-02  3.6660853E-02
   15.0000  3.9019204E-02  1.9038517E-02  3.6322856E-02
   15.2500  3.9238171E-02  1.8644077E-02  3.6115720E-02
   15.5000  3.9463406E-02  1.8353890E-02  3.6019382E-02
   15.7500  3.9668318E-02  1.8158255E-02  3.6011813E-02
   16.0000  3.9828095E-02  1.8048784E-02  3.6069877E-02
   16.2500  3.9921531E-02  1.8018137E-02  3.6170297E-02
   16.5000  3.9932791E-02  1.8059813E-02  3.6290740E-02
   16.7500  3.9852841E-02  1.8167982E-02  3.6410970E-02
   17.0000  3.9680257E-02  1.8337354E-02  3.6513893E-02
   17.2500  3.9421205E-02  1.8563079E-02  3.6586369E-02
   17.5000  3.9088567E-02  1.8840665E-02  3.6619615E-02
   17.7500  3.8700327E-02  1.9165921E-02  3.6609178E-02
   18.0000  3.8277500E-02  1.9534913E-02  3.6554494E-02
   18.2500  3.7841949E-02  1.9943934E-02  3.6458133E-02
   18.5000  3.7414399E-02  2.0389500E-02  3.6324886E-02
   18.7500  3.7012894E-02  2.0868352E-02  3.6160827E-02
   19.0000  3.6651789E-02  2.1377492E-02  3.5972467E-02
   19.2500  3.6341266E-02  2.1914238E-02  3.5766051E-02
   19.5000  3.6087273E-02  2.2476287E-02  3.5547049E-02
   19.7500  3.5891741E-02  2.3061678E-02  3.5319831E-02
   20.0000  3.5752950E-02  2.3668483E-02  3.5087615E-02
   21.0000  3.5634987E-02  2.6246183E-02  3.4143991E-02
   22.0000  3.5755802E-02  2.8870009E-02  3.3187375E-02
   23.0000  3.5478793E-02  3.1259884E-02  3.2167297E-02
   24.0000  3.4450192E-02  3.3120567E-02  3.1067374E-02
   25.0000  3.2783146E-02  3.4230989E-02  2.9942411E-02
   26.0000  3.0872845E-02  3.4557174E-02  2.8867302E-02
   27.0000  2.9093888E-02  3.4214339E-02  2.7912158E-02
   28.0000  2.7636047E-02  3.3398417E-02  2.7127775E-02
   29.0000  2.6521787E-02  3.2323615E-02  2.6530926E-02
   30.0000  2.5693122E-02  3.1164987E-02  2.6097863E-02
   31.0000  2.5073428E-02  3.0033114E-02  2.5770314E-02
   32.0000  2.4590334E-02  2.8980574E-02  2.5474602E-02
   33.0000  2.4179482E-02  2.8020194E-02  2.5143688E-02
   34.0000  2.3784076E-02  2.7141368E-02  2.4731080E-02
   35.0000  2.3356274E-02  2.6322036E-02  2.4215051E-02
   36.0000  2.2863192E-02  2.5537847E-02  2.3597488E-02
   37.0000  2.2297235E-02  2.4771706E-02  2.2902116E-02
   38.0000  2.1685618E-02  2.4026651E-02  2.2176188E-02
   39.0000  2.1091090E-02  2.3338871E-02  2.1492878E-02
   40.0000  2.0595621E-02  2.2775450E-02  2.0937282E-02
