    Energy   (100,001)      (010,001)      (001,110)   
  -25.0000  1.7833797E-04  1.8869774E-04  1.8092022E-04
  -24.0000  1.8489346E-04  1.9574161E-04  1.8771086E-04
  -23.0000  1.9190363E-04  2.0329137E-04  1.9498347E-04
  -22.0000  1.9941607E-04  2.1140244E-04  2.0278973E-04
  -21.0000  2.0748513E-04  2.2013854E-04  2.1118884E-04
  -20.0000  2.1617316E-04  2.2957333E-04  2.2024896E-04
  -19.0000  2.2555206E-04  2.3979231E-04  2.3004896E-04
  -18.0000  2.3570513E-04  2.5089537E-04  2.4068057E-04
  -17.0000  2.4672942E-04  2.6299987E-04  2.5225108E-04
  -16.0000  2.5873868E-04  2.7624461E-04  2.6488682E-04
  -15.0000  2.7186706E-04  2.9079489E-04  2.7873744E-04
  -14.0000  2.8627393E-04  3.0684910E-04  2.9398164E-04
  -13.0000  3.0214999E-04  3.2464731E-04  3.1083442E-04
  -12.0000  3.1972540E-04  3.4448270E-04  3.2955677E-04
  -11.0000  3.3928050E-04  3.6671695E-04  3.5046860E-04
  -10.0000  3.6116021E-04  3.9180119E-04  3.7396628E-04
  -9.00000  3.8579381E-04  4.2030513E-04  4.0054682E-04
  -8.00000  4.1372244E-04  4.5295827E-04  4.3084192E-04
  -7.00000  4.4563819E-04  4.9070941E-04  4.6566681E-04
  -6.00000  4.8244108E-04  5.3481471E-04  5.0609222E-04
  -5.00000  5.2532424E-04  5.8697173E-04  5.5355329E-04
  -4.00000  5.7590574E-04  6.4952993E-04  6.1001992E-04
  -3.00000  6.3644014E-04  7.2583454E-04  6.7827419E-04
  -2.00000  7.1017508E-04  8.2081469E-04  7.6238363E-04
  -1.00000  8.0198836E-04  9.4204943E-04  8.6855869E-04
   0.00000  9.1961766E-04  1.1018492E-03  1.0068284E-03
   1.00000  1.0762943E-03  1.3217472E-03  1.1946655E-03
   2.00000  1.2972870E-03  1.6436681E-03  1.4660348E-03
   3.00000  1.6402972E-03  2.1644312E-03  1.8994089E-03
   4.00000  2.2869638E-03  3.1872889E-03  2.7403837E-03
   5.00000  4.0162606E-03  6.0077836E-03  5.0494395E-03
   5.20000  4.5510993E-03  6.9110730E-03  5.8078770E-03
   5.40000  5.0866111E-03  7.8456695E-03  6.6096064E-03
   5.60000  5.6104311E-03  8.7947209E-03  7.4368147E-03
   5.80000  6.1327477E-03  9.7714929E-03  8.2921610E-03
   6.00000  6.6713503E-03  1.0796861E-02  9.1847181E-03
   6.20000  7.2449332E-03  1.1889799E-02  1.0124011E-02
   6.40000  7.8718440E-03  1.3066812E-02  1.1119623E-02
   6.60000  8.5699901E-03  1.4343654E-02  1.2181702E-02
   6.80000  9.3563065E-03  1.5736705E-02  1.3320438E-02
   7.00000  1.0245345E-02  1.7263428E-02  1.4544222E-02
   7.20000  1.1246882E-02  1.8942075E-02  1.5857111E-02
   7.40000  1.2362788E-02  2.0790782E-02  1.7256816E-02
   7.60000  1.3583845E-02  2.2825779E-02  1.8734548E-02
   7.80000  1.4887638E-02  2.5058316E-02  2.0277264E-02
   8.00000  1.6239025E-02  2.7490865E-02  2.1871247E-02
   8.20000  1.7595249E-02  3.0114618E-02  2.3504993E-02
   8.40000  1.8917445E-02  3.2910526E-02  2.5170073E-02
   8.60000  2.0186283E-02  3.5853591E-02  2.6859923E-02
   8.80000  2.1413381E-02  3.8916127E-02  2.8566780E-02
   9.00000  2.2639421E-02  4.2064306E-02  3.0276811E-02
   9.20000  2.3918615E-02  4.5246728E-02  3.1964428E-02
   9.40000  2.5298585E-02  4.8380795E-02  3.3588640E-02
   9.60000  2.6805446E-02  5.1345242E-02  3.5094856E-02
   9.80000  2.8437822E-02  5.3983699E-02  3.6422779E-02
   10.0000  3.0167647E-02  5.6121247E-02  3.7517502E-02
   10.2500  3.2388010E-02  5.7842108E-02  3.8501039E-02
   10.5000  3.4547670E-02  5.8313274E-02  3.9040543E-02
   10.7500  3.6501857E-02  5.7505474E-02  3.9187731E-02
   11.0000  3.8120470E-02  5.5576972E-02  3.9054831E-02
   11.2500  3.9309451E-02  5.2813022E-02  3.8773371E-02
   11.5000  4.0026301E-02  4.9539228E-02  3.8451974E-02
   11.7500  4.0285365E-02  4.6050032E-02  3.8155602E-02
   12.0000  4.0150237E-02  4.2572903E-02  3.7905944E-02
   12.2500  3.9716060E-02  3.9263328E-02  3.7692766E-02
   12.5000  3.9088926E-02  3.6216230E-02  3.7489121E-02
   12.7500  3.8369388E-02  3.3480985E-02  3.7267098E-02
   13.0000  3.7642364E-02  3.1073790E-02  3.7008964E-02
   13.2500  3.6972700E-02  2.8987587E-02  3.6711320E-02
   13.5000  3.6404610E-02  2.7200715E-02  3.6384132E-02
   13.7500  3.5963509E-02  2.5684033E-02  3.6046882E-02
   14.0000  3.5659428E-02  2.4405911E-02  3.5723431E-02
   14.2500  3.5490781E-02  2.3335336E-02  3.5437181E-02
   14.5000  3.5447527E-02  2.2443684E-02  3.5207502E-02
   14.7500  3.5513529E-02  2.1705576E-02  3.5047556E-02
   15.0000  3.5668266E-02  2.1099118E-02  3.4963249E-02
   15.2500  3.5888185E-02  2.0605776E-02  3.4953041E-02
   15.5000  3.6147908E-02  2.0210068E-02  3.5008398E-02
   15.7500  3.6421431E-02  1.9899181E-02  3.5114764E-02
   16.0000  3.6683396E-02  1.9662599E-02  3.5252970E-02
   16.2500  3.6910407E-02  1.9491749E-02  3.5401012E-02
   16.5000  3.7082300E-02  1.9379688E-02  3.5536096E-02
   16.7500  3.7183285E-02  1.9320821E-02  3.5636783E-02
   17.0000  3.7202830E-02  1.9310645E-02  3.5685025E-02
   17.2500  3.7136229E-02  1.9345517E-02  3.5667805E-02
   17.5000  3.6984766E-02  1.9422450E-02  3.5578167E-02
   17.7500  3.6755440E-02  1.9538932E-02  3.5415465E-02
   18.0000  3.6460224E-02  1.9692782E-02  3.5184840E-02
   18.2500  3.6114924E-02  1.9882045E-02  3.4896061E-02
   18.5000  3.5737730E-02  2.0104918E-02  3.4561985E-02
   18.7500  3.5347651E-02  2.0359727E-02  3.4196917E-02
   19.0000  3.4963014E-02  2.0644925E-02  3.3815111E-02
   19.2500  3.4600174E-02  2.0959133E-02  3.3429572E-02
   19.5000  3.4272562E-02  2.1301178E-02  3.3051214E-02
   19.7500  3.3990117E-02  2.1670087E-02  3.2688430E-02
   20.0000  3.3759153E-02  2.2064900E-02  3.2347103E-02
   21.0000  3.3375547E-02  2.3869428E-02  3.1253707E-02
   22.0000  3.3687461E-02  2.5933197E-02  3.0592598E-02
   23.0000  3.4197501E-02  2.8100370E-02  3.0200627E-02
   24.0000  3.4302520E-02  3.0163476E-02  2.9867380E-02
   25.0000  3.3599267E-02  3.1894000E-02  2.9440065E-02
   26.0000  3.2124606E-02  3.3119374E-02  2.8875128E-02
   27.0000  3.0292258E-02  3.3781973E-02  2.8239426E-02
   28.0000  2.8567513E-02  3.3935616E-02  2.7646776E-02
   29.0000  2.7201784E-02  3.3702192E-02  2.7170523E-02
   30.0000  2.6240913E-02  3.3213745E-02  2.6833328E-02
   31.0000  2.5620243E-02  3.2579954E-02  2.6623736E-02
   32.0000  2.5236499E-02  3.1876139E-02  2.6504474E-02
   33.0000  2.4991091E-02  3.1144019E-02  2.6422783E-02
   34.0000  2.4809404E-02  3.0402145E-02  2.6323633E-02
   35.0000  2.4645036E-02  2.9658985E-02  2.6160528E-02
   36.0000  2.4476976E-02  2.8923343E-02  2.5902724E-02
   37.0000  2.4302633E-02  2.8209753E-02  2.5540987E-02
   38.0000  2.4129024E-02  2.7540231E-02  2.5094166E-02
   39.0000  2.3966890E-02  2.6947045E-02  2.4616632E-02
   40.0000  2.3830785E-02  2.6474895E-02  2.4195862E-02
