    Energy   (100,001)      (010,001)      (001,110)   
  -25.0000  1.7291942E-04  1.8730011E-04  1.7933493E-04
  -24.0000  1.7940962E-04  1.9419031E-04  1.8625839E-04
  -23.0000  1.8635693E-04  2.0156821E-04  1.9368640E-04
  -22.0000  1.9380975E-04  2.0948649E-04  2.0167445E-04
  -21.0000  2.0182346E-04  2.1800564E-04  2.1028638E-04
  -20.0000  2.1046170E-04  2.2719539E-04  2.1959593E-04
  -19.0000  2.1979794E-04  2.3713660E-04  2.2968877E-04
  -18.0000  2.2991746E-04  2.4792349E-04  2.4066495E-04
  -17.0000  2.4091978E-04  2.5966653E-04  2.5264209E-04
  -16.0000  2.5292174E-04  2.7249606E-04  2.6575930E-04
  -15.0000  2.6606143E-04  2.8656691E-04  2.8018237E-04
  -14.0000  2.8050321E-04  3.0206440E-04  2.9611040E-04
  -13.0000  2.9644425E-04  3.1921215E-04  3.1378455E-04
  -12.0000  3.1412306E-04  3.3828238E-04  3.3349975E-04
  -11.0000  3.3383094E-04  3.5960978E-04  3.5562047E-04
  -10.0000  3.5592738E-04  3.8361031E-04  3.8060245E-04
  -9.00000  3.8086125E-04  4.1080717E-04  4.0902306E-04
  -8.00000  4.0920043E-04  4.4186740E-04  4.4162480E-04
  -7.00000  4.4167420E-04  4.7765448E-04  4.7937879E-04
  -6.00000  4.7923540E-04  5.1930567E-04  5.2358031E-04
  -5.00000  5.2315396E-04  5.6834903E-04  5.7599687E-04
  -4.00000  5.7516285E-04  6.2688606E-04  6.3910619E-04
  -3.00000  6.3769479E-04  6.9788778E-04  7.1649598E-04
  -2.00000  7.1428567E-04  7.8569759E-04  8.1357144E-04
  -1.00000  8.1030615E-04  8.9693548E-04  9.3889222E-04
   0.00000  9.3439974E-04  1.0422500E-03  1.1069182E-03
   1.00000  1.1016358E-03  1.2400716E-03  1.3443033E-03
   2.00000  1.3415865E-03  1.5258955E-03  1.7066954E-03
   3.00000  1.7245174E-03  1.9809020E-03  2.3348431E-03
   4.00000  2.4846033E-03  2.8580649E-03  3.7201376E-03
   5.00000  4.6618889E-03  5.2416009E-03  8.1885006E-03
   5.20000  5.3213973E-03  6.0019730E-03  9.6976078E-03
   5.40000  5.9508414E-03  6.7825940E-03  1.1222861E-02
   5.60000  6.5310614E-03  7.5609840E-03  1.2661091E-02
   5.80000  7.0773743E-03  8.3407728E-03  1.3972373E-02
   6.00000  7.6148681E-03  9.1368826E-03  1.5171837E-02
   6.20000  8.1674074E-03  9.9686227E-03  1.6313978E-02
   6.40000  8.7557371E-03  1.0857366E-02  1.7469666E-02
   6.60000  9.3979339E-03  1.1825079E-02  1.8700751E-02
   6.80000  1.0109838E-02  1.2893144E-02  2.0039030E-02
   7.00000  1.0905079E-02  1.4081424E-02  2.1472707E-02
   7.20000  1.1794784E-02  1.5407273E-02  2.2942873E-02
   7.40000  1.2787219E-02  1.6884544E-02  2.4354328E-02
   7.60000  1.3887676E-02  1.8523336E-02  2.5603265E-02
   7.80000  1.5098769E-02  2.0331499E-02  2.6614833E-02
   8.00000  1.6421028E-02  2.2318079E-02  2.7372217E-02
   8.20000  1.7853491E-02  2.4497046E-02  2.7919260E-02
   8.40000  1.9394323E-02  2.6888651E-02  2.8335779E-02
   8.60000  2.1041597E-02  2.9516450E-02  2.8703233E-02
   8.80000  2.2793927E-02  3.2399898E-02  2.9080999E-02
   9.00000  2.4649736E-02  3.5543662E-02  2.9501111E-02
   9.20000  2.6603948E-02  3.8925429E-02  2.9975924E-02
   9.40000  2.8642285E-02  4.2484234E-02  3.0508516E-02
   9.60000  3.0734883E-02  4.6110992E-02  3.1098851E-02
   9.80000  3.2831637E-02  4.9643608E-02  3.1744558E-02
   10.0000  3.4861327E-02  5.2871519E-02  3.2438641E-02
   10.2500  3.7168913E-02  5.6114133E-02  3.3351162E-02
   10.5000  3.9051125E-02  5.8079332E-02  3.4267269E-02
   10.7500  4.0359620E-02  5.8516448E-02  3.5120415E-02
   11.0000  4.1024490E-02  5.7445395E-02  3.5839410E-02
   11.2500  4.1072435E-02  5.5134235E-02  3.6369809E-02
   11.5000  4.0611801E-02  5.1989582E-02  3.6691854E-02
   11.7500  3.9794679E-02  4.8428885E-02  3.6822232E-02
   12.0000  3.8776859E-02  4.4792142E-02  3.6800833E-02
   12.2500  3.7690430E-02  4.1310015E-02  3.6673805E-02
   12.5000  3.6632693E-02  3.8112556E-02  3.6481637E-02
   12.7500  3.5668024E-02  3.5256386E-02  3.6255941E-02
   13.0000  3.4834989E-02  3.2753080E-02  3.6021956E-02
   13.2500  3.4152638E-02  3.0589133E-02  3.5800467E-02
   13.5000  3.3625647E-02  2.8737697E-02  3.5608133E-02
   13.7500  3.3248798E-02  2.7165747E-02  3.5457715E-02
   14.0000  3.3010409E-02  2.5838709E-02  3.5358422E-02
   14.2500  3.2894664E-02  2.4723305E-02  3.5316068E-02
   14.5000  3.2883161E-02  2.3789127E-02  3.5332902E-02
   14.7500  3.2956033E-02  2.3009372E-02  3.5407210E-02
   15.0000  3.3092904E-02  2.2361041E-02  3.5532874E-02
   15.2500  3.3273815E-02  2.1824829E-02  3.5699132E-02
   15.5000  3.3480171E-02  2.1384838E-02  3.5890754E-02
   15.7500  3.3695687E-02  2.1028205E-02  3.6088793E-02
   16.0000  3.3907260E-02  2.0744699E-02  3.6271972E-02
   16.2500  3.4105668E-02  2.0526304E-02  3.6418640E-02
   16.5000  3.4285965E-02  2.0366820E-02  3.6509069E-02
   16.7500  3.4447482E-02  2.0261472E-02  3.6527727E-02
   17.0000  3.4593352E-02  2.0206540E-02  3.6465084E-02
   17.2500  3.4729618E-02  2.0199030E-02  3.6318573E-02
   17.5000  3.4864010E-02  2.0236398E-02  3.6092490E-02
   17.7500  3.5004599E-02  2.0316330E-02  3.5796923E-02
   18.0000  3.5158515E-02  2.0436610E-02  3.5445990E-02
   18.2500  3.5330927E-02  2.0595034E-02  3.5055823E-02
   18.5000  3.5524375E-02  2.0789396E-02  3.4642684E-02
   18.7500  3.5738491E-02  2.1017496E-02  3.4221489E-02
   19.0000  3.5970087E-02  2.1277199E-02  3.3804832E-02
   19.2500  3.6213533E-02  2.1566501E-02  3.3402492E-02
   19.5000  3.6461340E-02  2.1883608E-02  3.3021319E-02
   19.7500  3.6704778E-02  2.2226946E-02  3.2665407E-02
   20.0000  3.6934305E-02  2.2595017E-02  3.2336507E-02
   21.0000  3.7503864E-02  2.4272945E-02  3.1278786E-02
   22.0000  3.7124098E-02  2.6169494E-02  3.0528105E-02
   23.0000  3.5697842E-02  2.8137132E-02  2.9895716E-02
   24.0000  3.3603524E-02  3.0009233E-02  2.9234230E-02
   25.0000  3.1398586E-02  3.1604864E-02  2.8487402E-02
   26.0000  2.9471455E-02  3.2770992E-02  2.7685402E-02
   27.0000  2.7883083E-02  3.3475891E-02  2.6892873E-02
   28.0000  2.6551989E-02  3.3771138E-02  2.6174753E-02
   29.0000  2.5443427E-02  3.3739602E-02  2.5583467E-02
   30.0000  2.4568016E-02  3.3466588E-02  2.5145807E-02
   31.0000  2.3922002E-02  3.3019481E-02  2.4852235E-02
   32.0000  2.3471825E-02  3.2442884E-02  2.4661763E-02
   33.0000  2.3168182E-02  3.1767044E-02  2.4518564E-02
   34.0000  2.2961085E-02  3.1019557E-02  2.4368658E-02
   35.0000  2.2808455E-02  3.0232482E-02  2.4172333E-02
   36.0000  2.2679048E-02  2.9441375E-02  2.3912679E-02
   37.0000  2.2552273E-02  2.8677931E-02  2.3598996E-02
   38.0000  2.2418476E-02  2.7965845E-02  2.3263046E-02
   39.0000  2.2281183E-02  2.7331515E-02  2.2948728E-02
   40.0000  2.2157740E-02  2.6820864E-02  2.2697019E-02
