    Energy   (100,001)      (010,001)      (001,110)   
  -25.0000  1.6621834E-04  1.9121159E-04  1.8146213E-04
  -24.0000  1.7214508E-04  1.9817935E-04  1.8789598E-04
  -23.0000  1.7846366E-04  2.0563636E-04  1.9476272E-04
  -22.0000  1.8521283E-04  2.1363515E-04  2.0210648E-04
  -21.0000  1.9243656E-04  2.2223591E-04  2.0997752E-04
  -20.0000  2.0018489E-04  2.3150806E-04  2.1843332E-04
  -19.0000  2.0851509E-04  2.4153197E-04  2.2753997E-04
  -18.0000  2.1749292E-04  2.5240124E-04  2.3737377E-04
  -17.0000  2.2719431E-04  2.6422551E-04  2.4802332E-04
  -16.0000  2.3770740E-04  2.7713404E-04  2.5959208E-04
  -15.0000  2.4913507E-04  2.9128021E-04  2.7220164E-04
  -14.0000  2.6159818E-04  3.0684746E-04  2.8599583E-04
  -13.0000  2.7523971E-04  3.2405690E-04  3.0114606E-04
  -12.0000  2.9023005E-04  3.4317745E-04  3.1785831E-04
  -11.0000  3.0677396E-04  3.6453941E-04  3.3638232E-04
  -10.0000  3.2511985E-04  3.8855286E-04  3.5702389E-04
  -9.00000  3.4557215E-04  4.1573313E-04  3.8016171E-04
  -8.00000  3.6850842E-04  4.4673662E-04  4.0627069E-04
  -7.00000  3.9440322E-04  4.8241237E-04  4.3595495E-04
  -6.00000  4.2386233E-04  5.2387794E-04  4.6999581E-04
  -5.00000  4.5767328E-04  5.7263439E-04  5.0942337E-04
  -4.00000  4.9688223E-04  6.3074629E-04  5.5562696E-04
  -3.00000  5.4291602E-04  7.0113469E-04  6.1053262E-04
  -2.00000  5.9778575E-04  7.8807762E-04  6.7690236E-04
  -1.00000  6.6444846E-04  8.9811757E-04  7.5887126E-04
   0.00000  7.4750557E-04  1.0418408E-03  8.6299165E-04
   1.00000  8.5471143E-04  1.2377519E-03  1.0004949E-03
   2.00000  1.0007939E-03  1.5220706E-03  1.1929993E-03
   3.00000  1.2197228E-03  1.9798137E-03  1.4906268E-03
   4.00000  1.6217154E-03  2.8863124E-03  2.0544975E-03
   5.00000  2.6987097E-03  5.4537868E-03  3.5990899E-03
   5.20000  3.0353706E-03  6.2680157E-03  4.0943762E-03
   5.40000  3.3717359E-03  7.0882812E-03  4.6007118E-03
   5.60000  3.6946426E-03  7.8896832E-03  5.0999403E-03
   5.80000  4.0025713E-03  8.6778332E-03  5.5891779E-03
   6.00000  4.2978850E-03  9.4677373E-03  6.0707946E-03
   6.20000  4.5842134E-03  1.0274923E-02  6.5487227E-03
   6.40000  4.8666568E-03  1.1114392E-02  7.0286167E-03
   6.60000  5.1518993E-03  1.2001051E-02  7.5181661E-03
   6.80000  5.4475609E-03  1.2949727E-02  8.0264685E-03
   7.00000  5.7612067E-03  1.3974858E-02  8.5628438E-03
   7.20000  6.0994900E-03  1.5090138E-02  9.1357807E-03
   7.40000  6.4676643E-03  1.6308210E-02  9.7525145E-03
   7.60000  6.8695012E-03  1.7640369E-02  1.0419376E-02
   7.80000  7.3075522E-03  1.9096368E-02  1.1142629E-02
   8.00000  7.7836983E-03  2.0684480E-02  1.1929147E-02
   8.20000  8.2998732E-03  2.2412086E-02  1.2786300E-02
   8.40000  8.8587139E-03  2.4286650E-02  1.3721152E-02
   8.60000  9.4639278E-03  2.6316123E-02  1.4739450E-02
   8.80000  1.0120313E-02  2.8508007E-02  1.5844578E-02
   9.00000  1.0833453E-02  3.0866830E-02  1.7036422E-02
   9.20000  1.1609118E-02  3.3390137E-02  1.8310177E-02
   9.40000  1.2452476E-02  3.6063457E-02  1.9655201E-02
   9.60000  1.3367188E-02  3.8854910E-02  2.1054229E-02
   9.80000  1.4354472E-02  4.1710329E-02  2.2483371E-02
   10.0000  1.5412153E-02  4.4550005E-02  2.3913187E-02
   10.2500  1.6823042E-02  4.7915198E-02  2.5651889E-02
   10.5000  1.8311374E-02  5.0847447E-02  2.7281381E-02
   10.7500  1.9846272E-02  5.3109268E-02  2.8759965E-02
   11.0000  2.1391810E-02  5.4528293E-02  3.0072226E-02
   11.2500  2.2911173E-02  5.5034756E-02  3.1226562E-02
   11.5000  2.4369761E-02  5.4659846E-02  3.2244190E-02
   11.7500  2.5736244E-02  5.3508020E-02  3.3145896E-02
   12.0000  2.6982685E-02  5.1723164E-02  3.3943088E-02
   12.2500  2.8085698E-02  4.9463249E-02  3.4637111E-02
   12.5000  2.9029686E-02  4.6885464E-02  3.5223612E-02
   12.7500  2.9811070E-02  4.4136820E-02  3.5697635E-02
   13.0000  3.0440963E-02  4.1346999E-02  3.6058209E-02
   13.2500  3.0944606E-02  3.8622894E-02  3.6312291E-02
   13.5000  3.1357665E-02  3.6045275E-02  3.6476418E-02
   13.7500  3.1720724E-02  3.3668080E-02  3.6574650E-02
   14.0000  3.2073489E-02  3.1520702E-02  3.6634486E-02
   14.2500  3.2450103E-02  2.9612655E-02  3.6683023E-02
   14.5000  3.2876346E-02  2.7939186E-02  3.6744094E-02
   14.7500  3.3368702E-02  2.6486544E-02  3.6836440E-02
   15.0000  3.3934786E-02  2.5236217E-02  3.6972739E-02
   15.2500  3.4574511E-02  2.4167973E-02  3.7159364E-02
   15.5000  3.5281529E-02  2.3261812E-02  3.7396668E-02
   15.7500  3.6044674E-02  2.2499094E-02  3.7679647E-02
   16.0000  3.6849282E-02  2.1863065E-02  3.7998848E-02
   16.2500  3.7678381E-02  2.1339028E-02  3.8341414E-02
   16.5000  3.8513774E-02  2.0914267E-02  3.8692196E-02
   16.7500  3.9337047E-02  2.0577869E-02  3.9034872E-02
   17.0000  4.0130501E-02  2.0320484E-02  3.9353050E-02
   17.2500  4.0878016E-02  2.0134080E-02  3.9631318E-02
   17.5000  4.1565818E-02  2.0011724E-02  3.9856201E-02
   17.7500  4.2183122E-02  1.9947387E-02  4.0016970E-02
   18.0000  4.2722596E-02  1.9935802E-02  4.0106254E-02
   18.2500  4.3180624E-02  1.9972348E-02  4.0120361E-02
   18.5000  4.3557290E-02  2.0052975E-02  4.0059295E-02
   18.7500  4.3856091E-02  2.0174153E-02  3.9926444E-02
   19.0000  4.4083378E-02  2.0332859E-02  3.9727970E-02
   19.2500  4.4247570E-02  2.0526575E-02  3.9471985E-02
   19.5000  4.4358240E-02  2.0753299E-02  3.9167612E-02
   19.7500  4.4425191E-02  2.1011514E-02  3.8824148E-02
   20.0000  4.4457700E-02  2.1300039E-02  3.8450577E-02
   21.0000  4.4388892E-02  2.2732823E-02  3.6822805E-02
   22.0000  4.4150686E-02  2.4562396E-02  3.5263206E-02
   23.0000  4.3610369E-02  2.6721657E-02  3.3914666E-02
   24.0000  4.2448667E-02  2.9074252E-02  3.2772686E-02
   25.0000  4.0436172E-02  3.1387104E-02  3.1787532E-02
   26.0000  3.7632578E-02  3.3372818E-02  3.0903410E-02
   27.0000  3.4447495E-02  3.4781465E-02  3.0085181E-02
   28.0000  3.1446606E-02  3.5500751E-02  2.9335512E-02
   29.0000  2.8969464E-02  3.5602830E-02  2.8672337E-02
   30.0000  2.7104515E-02  3.5262254E-02  2.8118975E-02
   31.0000  2.5801435E-02  3.4660328E-02  2.7692505E-02
   32.0000  2.4947903E-02  3.3935680E-02  2.7391045E-02
   33.0000  2.4416868E-02  3.3171646E-02  2.7191663E-02
   34.0000  2.4088870E-02  3.2404390E-02  2.7056963E-02
   35.0000  2.3860452E-02  3.1638950E-02  2.6944546E-02
   36.0000  2.3648942E-02  3.0866638E-02  2.6815732E-02
   37.0000  2.3398591E-02  3.0081581E-02  2.6642914E-02
   38.0000  2.3088768E-02  2.9296274E-02  2.6416806E-02
   39.0000  2.2741834E-02  2.8556490E-02  2.6155679E-02
   40.0000  2.2420822E-02  2.7944459E-02  2.5911005E-02
