    Energy   (100,001)      (010,001)      (001,110)   
  -25.0000  1.7216515E-04  1.8747800E-04  1.7653856E-04
  -24.0000  1.7842804E-04  1.9438483E-04  1.8304712E-04
  -23.0000  1.8511974E-04  2.0177986E-04  1.9000955E-04
  -22.0000  1.9228453E-04  2.0971566E-04  1.9747366E-04
  -21.0000  1.9997286E-04  2.1825258E-04  2.0549410E-04
  -20.0000  2.0824256E-04  2.2746015E-04  2.1413368E-04
  -19.0000  2.1716013E-04  2.3741894E-04  2.2346486E-04
  -18.0000  2.2680253E-04  2.4822280E-04  2.3357170E-04
  -17.0000  2.3725919E-04  2.5998167E-04  2.4455228E-04
  -16.0000  2.4863472E-04  2.7282521E-04  2.5652170E-04
  -15.0000  2.6105226E-04  2.8690729E-04  2.6961592E-04
  -14.0000  2.7465767E-04  3.0241194E-04  2.8399673E-04
  -13.0000  2.8962515E-04  3.1956102E-04  2.9985809E-04
  -12.0000  3.0616435E-04  3.3862436E-04  3.1743457E-04
  -11.0000  3.2452995E-04  3.5993336E-04  3.3701252E-04
  -10.0000  3.4503450E-04  3.8389939E-04  3.5894517E-04
  -9.00000  3.6806583E-04  4.1103926E-04  3.8367341E-04
  -8.00000  3.9411144E-04  4.4201094E-04  4.1175480E-04
  -7.00000  4.2379303E-04  4.7766491E-04  4.4390506E-04
  -6.00000  4.5791671E-04  5.1911954E-04  4.8105896E-04
  -5.00000  4.9754818E-04  5.6787489E-04  5.2446185E-04
  -4.00000  5.4412893E-04  6.2599022E-04  5.7581249E-04
  -3.00000  5.9966307E-04  6.9637138E-04  6.3749451E-04
  -2.00000  6.6703269E-04  7.8325864E-04  7.1297060E-04
  -1.00000  7.5056349E-04  8.9310434E-04  8.0749636E-04
   0.00000  8.5712172E-04  1.0362767E-03  9.2952000E-04
   1.00000  9.9847847E-04  1.2307271E-03  1.0937388E-03
   2.00000  1.1972231E-03  1.5111472E-03  1.3288765E-03
   3.00000  1.5052704E-03  1.9576828E-03  1.7026387E-03
   4.00000  2.0865027E-03  2.8259283E-03  2.4373998E-03
   5.00000  3.6625361E-03  5.2214235E-03  4.5248271E-03
   5.20000  4.1767359E-03  5.9612159E-03  5.1719528E-03
   5.40000  4.7106648E-03  6.6916293E-03  5.7938506E-03
   5.60000  5.2425869E-03  7.3918233E-03  6.3585693E-03
   5.80000  5.7660249E-03  8.0754085E-03  6.8762800E-03
   6.00000  6.2829889E-03  8.7683880E-03  7.3822692E-03
   6.20000  6.8003109E-03  9.4973877E-03  7.9195322E-03
   6.40000  7.3284518E-03  1.0285771E-02  8.5264922E-03
   6.60000  7.8807768E-03  1.1153070E-02  9.2310994E-03
   6.80000  8.4724935E-03  1.2115979E-02  1.0050536E-02
   7.00000  9.1192149E-03  1.3189927E-02  1.0993968E-02
   7.20000  9.8354454E-03  1.4390485E-02  1.2065635E-02
   7.40000  1.0633151E-02  1.5734235E-02  1.3266529E-02
   7.60000  1.1520364E-02  1.7238985E-02  1.4593968E-02
   7.80000  1.2499505E-02  1.8923184E-02  1.6039175E-02
   8.00000  1.3565051E-02  2.0804538E-02  1.7583545E-02
   8.20000  1.4700910E-02  2.2898085E-02  1.9195130E-02
   8.40000  1.5879526E-02  2.5214419E-02  2.0827999E-02
   8.60000  1.7065816E-02  2.7758851E-02  2.2427448E-02
   8.80000  1.8227123E-02  3.0531411E-02  2.3941520E-02
   9.00000  1.9345085E-02  3.3525892E-02  2.5334103E-02
   9.20000  2.0421837E-02  3.6725236E-02  2.6592003E-02
   9.40000  2.1476558E-02  4.0092481E-02  2.7722632E-02
   9.60000  2.2535695E-02  4.3559860E-02  2.8746144E-02
   9.80000  2.3623040E-02  4.7020718E-02  2.9687749E-02
   10.0000  2.4752924E-02  5.0328485E-02  3.0572282E-02
   10.2500  2.6225745E-02  5.3975734E-02  3.1628009E-02
   10.5000  2.7739282E-02  5.6743475E-02  3.2648169E-02
   10.7500  2.9240670E-02  5.8339100E-02  3.3632842E-02
   11.0000  3.0660349E-02  5.8624582E-02  3.4563033E-02
   11.2500  3.1923726E-02  5.7652751E-02  3.5408864E-02
   11.5000  3.2965998E-02  5.5638258E-02  3.6139491E-02
   11.7500  3.3746401E-02  5.2883277E-02  3.6730114E-02
   12.0000  3.4257674E-02  4.9698343E-02  3.7165293E-02
   12.2500  3.4525012E-02  4.6348115E-02  3.7440674E-02
   12.5000  3.4596250E-02  4.3029063E-02  3.7563224E-02
   12.7500  3.4531623E-02  3.9870284E-02  3.7548986E-02
   13.0000  3.4394952E-02  3.6945669E-02  3.7419752E-02
   13.2500  3.4244622E-02  3.4289952E-02  3.7200110E-02
   13.5000  3.4126387E-02  3.1913545E-02  3.6916100E-02
   13.7500  3.4071242E-02  2.9812491E-02  3.6595278E-02
   14.0000  3.4097357E-02  2.7973893E-02  3.6266001E-02
   14.2500  3.4213043E-02  2.6379278E-02  3.5955587E-02
   14.5000  3.4419174E-02  2.5007243E-02  3.5688369E-02
   14.7500  3.4710906E-02  2.3835530E-02  3.5484138E-02
   15.0000  3.5078845E-02  2.2842495E-02  3.5357048E-02
   15.2500  3.5509855E-02  2.2008028E-02  3.5314900E-02
   15.5000  3.5987651E-02  2.1314026E-02  3.5358761E-02
   15.7500  3.6493304E-02  2.0744569E-02  3.5482883E-02
   16.0000  3.7005854E-02  2.0285897E-02  3.5674967E-02
   16.2500  3.7503179E-02  1.9926276E-02  3.5916871E-02
   16.5000  3.7963242E-02  1.9655793E-02  3.6185879E-02
   16.7500  3.8365712E-02  1.9466132E-02  3.6456562E-02
   17.0000  3.8693790E-02  1.9350324E-02  3.6703142E-02
   17.2500  3.8935942E-02  1.9302501E-02  3.6902079E-02
   17.5000  3.9087148E-02  1.9317655E-02  3.7034464E-02
   17.7500  3.9149349E-02  1.9391401E-02  3.7087776E-02
   18.0000  3.9130943E-02  1.9519779E-02  3.7056676E-02
   18.2500  3.9045407E-02  1.9699092E-02  3.6942751E-02
   18.5000  3.8909350E-02  1.9925785E-02  3.6753361E-02
   18.7500  3.8740392E-02  2.0196396E-02  3.6499939E-02
   19.0000  3.8555223E-02  2.0507551E-02  3.6196104E-02
   19.2500  3.8368114E-02  2.0856036E-02  3.5855920E-02
   19.5000  3.8189970E-02  2.1238887E-02  3.5492486E-02
   19.7500  3.8027914E-02  2.1653433E-02  3.5117010E-02
   20.0000  3.7885321E-02  2.2097144E-02  3.4738488E-02
   21.0000  3.7475522E-02  2.4101602E-02  3.3315679E-02
   22.0000  3.7067065E-02  2.6328827E-02  3.2164831E-02
   23.0000  3.6270377E-02  2.8618891E-02  3.1249274E-02
   24.0000  3.4893654E-02  3.0798388E-02  3.0459257E-02
   25.0000  3.3028257E-02  3.2659305E-02  2.9709436E-02
   26.0000  3.0943757E-02  3.4005516E-02  2.8957134E-02
   27.0000  2.8935668E-02  3.4734917E-02  2.8191701E-02
   28.0000  2.7221504E-02  3.4877182E-02  2.7423413E-02
   29.0000  2.5907376E-02  3.4568148E-02  2.6689324E-02
   30.0000  2.4998231E-02  3.3988622E-02  2.6050334E-02
   31.0000  2.4424934E-02  3.3285526E-02  2.5549334E-02
   32.0000  2.4091679E-02  3.2547846E-02  2.5191708E-02
   33.0000  2.3907245E-02  3.1814351E-02  2.4949013E-02
   34.0000  2.3796559E-02  3.1088778E-02  2.4774357E-02
   35.0000  2.3705004E-02  3.0358744E-02  2.4621245E-02
   36.0000  2.3600453E-02  2.9612221E-02  2.4457297E-02
   37.0000  2.3473558E-02  2.8848361E-02  2.4270239E-02
   38.0000  2.3334160E-02  2.8085232E-02  2.4066947E-02
   39.0000  2.3202046E-02  2.7369204E-02  2.3868195E-02
   40.0000  2.3094780E-02  2.6777928E-02  2.3701271E-02
