    Energy   (100,001)      (010,001)      (001,110)   
  -25.0000  1.7087395E-04  1.8421121E-04  1.7440526E-04
  -24.0000  1.7671798E-04  1.9114342E-04  1.8041842E-04
  -23.0000  1.8294020E-04  1.9857243E-04  1.8682581E-04
  -22.0000  1.8957769E-04  2.0655229E-04  1.9366674E-04
  -21.0000  1.9667250E-04  2.1514506E-04  2.0098586E-04
  -20.0000  2.0427250E-04  2.2442235E-04  2.0883416E-04
  -19.0000  2.1243245E-04  2.3446723E-04  2.1727007E-04
  -18.0000  2.2121526E-04  2.4537657E-04  2.2636095E-04
  -17.0000  2.3069355E-04  2.5726402E-04  2.3618480E-04
  -16.0000  2.4095167E-04  2.7026376E-04  2.4683249E-04
  -15.0000  2.5208810E-04  2.8453532E-04  2.5841052E-04
  -14.0000  2.6421864E-04  3.0026980E-04  2.7104459E-04
  -13.0000  2.7748032E-04  3.1769798E-04  2.8488415E-04
  -12.0000  2.9203663E-04  3.3710117E-04  3.0010829E-04
  -11.0000  3.0808429E-04  3.5882559E-04  3.1693368E-04
  -10.0000  3.2586227E-04  3.8330214E-04  3.3562500E-04
  -9.00000  3.4566395E-04  4.1107375E-04  3.5650932E-04
  -8.00000  3.6785399E-04  4.4283395E-04  3.7999600E-04
  -7.00000  3.9289193E-04  4.7948271E-04  4.0660499E-04
  -6.00000  4.2136625E-04  5.2220890E-04  4.3700793E-04
  -5.00000  4.5404498E-04  5.7261598E-04  4.7208979E-04
  -4.00000  4.9195336E-04  6.3291994E-04  5.1304458E-04
  -3.00000  5.3649824E-04  7.0627376E-04  5.6152986E-04
  -2.00000  5.8967814E-04  7.9732659E-04  6.1993005E-04
  -1.00000  6.5446204E-04  9.1324847E-04  6.9183416E-04
   0.00000  7.3553466E-04  1.0657661E-03  7.8297923E-04
   1.00000  8.4094644E-04  1.2756713E-03  9.0333572E-04
   2.00000  9.8642626E-04  1.5844712E-03  1.0725164E-03
   3.00000  1.2098074E-03  2.0924056E-03  1.3376023E-03
   4.00000  1.6414342E-03  3.1375969E-03  1.8584581E-03
   5.00000  2.8786354E-03  6.2412077E-03  3.3609487E-03
   5.20000  3.2498499E-03  7.2030513E-03  3.8191289E-03
   5.40000  3.5959861E-03  8.1326049E-03  4.2525546E-03
   5.60000  3.9015449E-03  8.9972353E-03  4.6381851E-03
   5.80000  4.1705566E-03  9.8120320E-03  4.9759863E-03
   6.00000  4.4126197E-03  1.0606893E-02  5.2787316E-03
   6.20000  4.6372920E-03  1.1409862E-02  5.5687246E-03
   6.40000  4.8536868E-03  1.2242057E-02  5.8746684E-03
   6.60000  5.0708806E-03  1.3117495E-02  6.2255135E-03
   6.80000  5.2978569E-03  1.4045612E-02  6.6445316E-03
   7.00000  5.5431876E-03  1.5034904E-02  7.1465342E-03
   7.20000  5.8147651E-03  1.6096236E-02  7.7379603E-03
   7.40000  6.1196653E-03  1.7245014E-02  8.4180962E-03
   7.60000  6.4641064E-03  1.8501982E-02  9.1802556E-03
   7.80000  6.8535149E-03  1.9892939E-02  1.0012754E-02
   8.00000  7.2927249E-03  2.1447615E-02  1.0900039E-02
   8.20000  7.7862797E-03  2.3197683E-02  1.1824290E-02
   8.40000  8.3387497E-03  2.5174285E-02  1.2767327E-02
   8.60000  8.9549335E-03  2.7405387E-02  1.3712362E-02
   8.80000  9.6398049E-03  2.9912786E-02  1.4645116E-02
   9.00000  1.0398143E-02  3.2708197E-02  1.5554202E-02
   9.20000  1.1233873E-02  3.5787787E-02  1.6430972E-02
   9.40000  1.2149224E-02  3.9124726E-02  1.7269167E-02
   9.60000  1.3143790E-02  4.2660022E-02  1.8064589E-02
   9.80000  1.4213646E-02  4.6293043E-02  1.8814867E-02
   10.0000  1.5350571E-02  4.9874457E-02  1.9519344E-02
   10.2500  1.6845740E-02  5.3973253E-02  2.0337268E-02
   10.5000  1.8389904E-02  5.7227097E-02  2.1090902E-02
   10.7500  1.9941005E-02  5.9213610E-02  2.1788342E-02
   11.0000  2.1454972E-02  5.9678955E-02  2.2437436E-02
   11.2500  2.2890461E-02  5.8632679E-02  2.3042728E-02
   11.5000  2.4213118E-02  5.6336826E-02  2.3603803E-02
   11.7500  2.5399141E-02  5.3195947E-02  2.4116797E-02
   12.0000  2.6437663E-02  4.9623075E-02  2.4579244E-02
   12.2500  2.7330654E-02  4.5953340E-02  2.4994468E-02
   12.5000  2.8090490E-02  4.2417243E-02  2.5371654E-02
   12.7500  2.8736154E-02  3.9150401E-02  2.5723277E-02
   13.0000  2.9289340E-02  3.6216956E-02  2.6063057E-02
   13.2500  2.9771586E-02  3.3633529E-02  2.6405078E-02
   13.5000  3.0202829E-02  3.1388384E-02  2.6763343E-02
   13.7500  3.0601060E-02  2.9454859E-02  2.7151231E-02
   14.0000  3.0982331E-02  2.7800047E-02  2.7581050E-02
   14.2500  3.1360427E-02  2.6390160E-02  2.8064138E-02
   14.5000  3.1746334E-02  2.5193601E-02  2.8611128E-02
   14.7500  3.2148029E-02  2.4182376E-02  2.9231657E-02
   15.0000  3.2570474E-02  2.3332465E-02  2.9933560E-02
   15.2500  3.3015318E-02  2.2623622E-02  3.0721978E-02
   15.5000  3.3480242E-02  2.2038874E-02  3.1598495E-02
   15.7500  3.3958632E-02  2.1563926E-02  3.2560334E-02
   16.0000  3.4440228E-02  2.1186687E-02  3.3599614E-02
   16.2500  3.4912511E-02  2.0896900E-02  3.4702709E-02
   16.5000  3.5362251E-02  2.0685833E-02  3.5849792E-02
   16.7500  3.5776957E-02  2.0546007E-02  3.7014774E-02
   17.0000  3.6146099E-02  2.0470949E-02  3.8165890E-02
   17.2500  3.6462055E-02  2.0455004E-02  3.9267147E-02
   17.5000  3.6720700E-02  2.0493185E-02  4.0280700E-02
   17.7500  3.6921578E-02  2.0581074E-02  4.1170029E-02
   18.0000  3.7067677E-02  2.0714750E-02  4.1903510E-02
   18.2500  3.7164873E-02  2.0890756E-02  4.2457781E-02
   18.5000  3.7221146E-02  2.1106071E-02  4.2820202E-02
   18.7500  3.7245708E-02  2.1358112E-02  4.2989875E-02
   19.0000  3.7248169E-02  2.1644729E-02  4.2976991E-02
   19.2500  3.7237801E-02  2.1964217E-02  4.2800660E-02
   19.5000  3.7222970E-02  2.2315310E-02  4.2485746E-02
   19.7500  3.7210742E-02  2.2697101E-02  4.2059526E-02
   20.0000  3.7206685E-02  2.3108775E-02  4.1549134E-02
   21.0000  3.7335901E-02  2.5021924E-02  3.9149253E-02
   22.0000  3.7710457E-02  2.7246411E-02  3.6921308E-02
   23.0000  3.8144977E-02  2.9571074E-02  3.5180262E-02
   24.0000  3.8332625E-02  3.1716951E-02  3.3874477E-02
   25.0000  3.7993769E-02  3.3409160E-02  3.2873798E-02
   26.0000  3.6994007E-02  3.4463892E-02  3.2048923E-02
   27.0000  3.5414605E-02  3.4841495E-02  3.1298759E-02
   28.0000  3.3523647E-02  3.4636735E-02  3.0574009E-02
   29.0000  3.1636785E-02  3.4018920E-02  2.9881938E-02
   30.0000  2.9977391E-02  3.3165268E-02  2.9260095E-02
   31.0000  2.8637235E-02  3.2217745E-02  2.8739813E-02
   32.0000  2.7614452E-02  3.1267617E-02  2.8325868E-02
   33.0000  2.6862478E-02  3.0359086E-02  2.7997606E-02
   34.0000  2.6321560E-02  2.9501373E-02  2.7720255E-02
   35.0000  2.5934481E-02  2.8682650E-02  2.7456044E-02
   36.0000  2.5653463E-02  2.7884842E-02  2.7173118E-02
   37.0000  2.5442839E-02  2.7103014E-02  2.6856040E-02
   38.0000  2.5279524E-02  2.6356716E-02  2.6513778E-02
   39.0000  2.5151155E-02  2.5682766E-02  2.6177222E-02
   40.0000  2.5051911E-02  2.5137597E-02  2.5893118E-02
