    Energy   (100,001)      (010,001)      (001,110)   
  -25.0000  1.7939127E-04  1.7979694E-04  1.8538915E-04
  -24.0000  1.8539469E-04  1.8698505E-04  1.9169069E-04
  -23.0000  1.9177999E-04  1.9471137E-04  1.9840238E-04
  -22.0000  1.9858412E-04  2.0303647E-04  2.0556497E-04
  -21.0000  2.0584891E-04  2.1203018E-04  2.1322476E-04
  -20.0000  2.1362193E-04  2.2177338E-04  2.2143458E-04
  -19.0000  2.2195752E-04  2.3236028E-04  2.3025500E-04
  -18.0000  2.3091802E-04  2.4390121E-04  2.3975582E-04
  -17.0000  2.4057531E-04  2.5652617E-04  2.5001785E-04
  -16.0000  2.5101275E-04  2.7038940E-04  2.6113526E-04
  -15.0000  2.6232754E-04  2.8567514E-04  2.7321840E-04
  -14.0000  2.7463380E-04  3.0260528E-04  2.8639756E-04
  -13.0000  2.8806641E-04  3.2144925E-04  3.0082763E-04
  -12.0000  3.0278606E-04  3.4253730E-04  3.1669436E-04
  -11.0000  3.1898583E-04  3.6627843E-04  3.3422257E-04
  -10.0000  3.3689995E-04  3.9318497E-04  3.5368715E-04
  -9.00000  3.5681570E-04  4.2390679E-04  3.7542817E-04
  -8.00000  3.7908968E-04  4.5928011E-04  3.9987202E-04
  -7.00000  4.0417088E-04  5.0039832E-04  4.2756152E-04
  -6.00000  4.3263379E-04  5.4871747E-04  4.5920017E-04
  -5.00000  4.6522777E-04  6.0621799E-04  4.9571920E-04
  -4.00000  5.0295283E-04  6.7566087E-04  5.3838301E-04
  -3.00000  5.4718115E-04  7.6100982E-04  5.8896283E-04
  -2.00000  5.9986228E-04  8.6816108E-04  6.5003919E-04
  -1.00000  6.6389269E-04  1.0062822E-03  7.2556783E-04
   0.00000  7.4383999E-04  1.1904630E-03  8.2204001E-04
   1.00000  8.4753192E-04  1.4475285E-03  9.5117282E-04
   2.00000  9.9014238E-04  1.8307711E-03  1.1373062E-03
   3.00000  1.2074961E-03  2.4664537E-03  1.4435086E-03
   4.00000  1.6186046E-03  3.7627997E-03  2.1059322E-03
   5.00000  2.7571798E-03  7.5049094E-03  4.2499106E-03
   5.20000  3.1094743E-03  8.7051968E-03  4.8693485E-03
   5.40000  3.4563552E-03  9.9272045E-03  5.3890007E-03
   5.60000  3.7873190E-03  1.1140608E-02  5.7741727E-03
   5.80000  4.1066790E-03  1.2362328E-02  6.0463867E-03
   6.00000  4.4222773E-03  1.3625332E-02  6.2493818E-03
   6.20000  4.7406225E-03  1.4963089E-02  6.4268610E-03
   6.40000  5.0662448E-03  1.6405322E-02  6.6131457E-03
   6.60000  5.4021420E-03  1.7977194E-02  6.8312793E-03
   6.80000  5.7503089E-03  1.9699108E-02  7.0947255E-03
   7.00000  6.1121528E-03  2.1586566E-02  7.4100537E-03
   7.20000  6.4888003E-03  2.3650204E-02  7.7792215E-03
   7.40000  6.8813678E-03  2.5896449E-02  8.2011121E-03
   7.60000  7.2911867E-03  2.8329516E-02  8.6725844E-03
   7.80000  7.7199148E-03  3.0954723E-02  9.1894250E-03
   8.00000  8.1694754E-03  3.3781000E-02  9.7473466E-03
   8.20000  8.6418243E-03  3.6818703E-02  1.0342798E-02
   8.40000  9.1386070E-03  4.0069402E-02  1.0973194E-02
   8.60000  9.6608212E-03  4.3508461E-02  1.1636464E-02
   8.80000  1.0208617E-02  4.7066769E-02  1.2330294E-02
   9.00000  1.0781331E-02  5.0620932E-02  1.3051608E-02
   9.20000  1.1377743E-02  5.3999000E-02  1.3796487E-02
   9.40000  1.1996421E-02  5.7002566E-02  1.4560291E-02
   9.60000  1.2636006E-02  5.9439025E-02  1.5337670E-02
   9.80000  1.3295340E-02  6.1153598E-02  1.6122449E-02
   10.0000  1.3973420E-02  6.2051432E-02  1.6907702E-02
   10.2500  1.4845779E-02  6.1989796E-02  1.7879262E-02
   10.5000  1.5743329E-02  6.0695668E-02  1.8830165E-02
   10.7500  1.6663126E-02  5.8367063E-02  1.9758563E-02
   11.0000  1.7601478E-02  5.5274262E-02  2.0673838E-02
   11.2500  1.8553429E-02  5.1713362E-02  2.1594645E-02
   11.5000  1.9512512E-02  4.7963876E-02  2.2543162E-02
   11.7500  2.0471294E-02  4.4257998E-02  2.3537787E-02
   12.0000  2.1423094E-02  4.0764049E-02  2.4587549E-02
   12.2500  2.2363872E-02  3.7584092E-02  2.5690013E-02
   12.5000  2.3292681E-02  3.4764107E-02  2.6832001E-02
   12.7500  2.4210865E-02  3.2309986E-02  2.7992208E-02
   13.0000  2.5121051E-02  3.0202619E-02  2.9145606E-02
   13.2500  2.6026547E-02  2.8409474E-02  3.0268343E-02
   13.5000  2.6930847E-02  2.6892454E-02  3.1341702E-02
   13.7500  2.7836356E-02  2.5613018E-02  3.2355124E-02
   14.0000  2.8743117E-02  2.4535498E-02  3.3307637E-02
   14.2500  2.9649056E-02  2.3629040E-02  3.4206584E-02
   14.5000  3.0551130E-02  2.2868330E-02  3.5064584E-02
   14.7500  3.1446126E-02  2.2233239E-02  3.5896409E-02
   15.0000  3.2330804E-02  2.1707886E-02  3.6716185E-02
   15.2500  3.3201621E-02  2.1279694E-02  3.7534823E-02
   15.5000  3.4054280E-02  2.0938606E-02  3.8357822E-02
   15.7500  3.4883301E-02  2.0676466E-02  3.9183768E-02
   16.0000  3.5681777E-02  2.0486549E-02  4.0003684E-02
   16.2500  3.6441436E-02  2.0363197E-02  4.0801358E-02
   16.5000  3.7153069E-02  2.0301550E-02  4.1554675E-02
   16.7500  3.7807276E-02  2.0297344E-02  4.2237912E-02
   17.0000  3.8395416E-02  2.0346768E-02  4.2824761E-02
   17.2500  3.8910571E-02  2.0446347E-02  4.3291678E-02
   17.5000  3.9348324E-02  2.0592863E-02  4.3620954E-02
   17.7500  3.9707225E-02  2.0783293E-02  4.3802942E-02
   18.0000  3.9988865E-02  2.1014764E-02  4.3836981E-02
   18.2500  4.0197619E-02  2.1284520E-02  4.3730932E-02
   18.5000  4.0340146E-02  2.1589898E-02  4.3499541E-02
   18.7500  4.0424789E-02  2.1928321E-02  4.3162110E-02
   19.0000  4.0460941E-02  2.2297312E-02  4.2740000E-02
   19.2500  4.0458461E-02  2.2694538E-02  4.2254376E-02
   19.5000  4.0427124E-02  2.3117858E-02  4.1724481E-02
   19.7500  4.0376182E-02  2.3565315E-02  4.1166602E-02
   20.0000  4.0314102E-02  2.4034911E-02  4.0593907E-02
   21.0000  4.0095840E-02  2.6074099E-02  3.8346703E-02
   22.0000  4.0119779E-02  2.8199201E-02  3.6422009E-02
   23.0000  4.0351829E-02  3.0181187E-02  3.4876097E-02
   24.0000  4.0493509E-02  3.1795352E-02  3.3618732E-02
   25.0000  4.0146553E-02  3.2876729E-02  3.2537264E-02
   26.0000  3.9036158E-02  3.3369443E-02  3.1561334E-02
   27.0000  3.7208475E-02  3.3329011E-02  3.0688817E-02
   28.0000  3.5019516E-02  3.2883282E-02  2.9967890E-02
   29.0000  3.2902889E-02  3.2177643E-02  2.9450294E-02
   30.0000  3.1149423E-02  3.1330943E-02  2.9151886E-02
   31.0000  2.9855040E-02  3.0417696E-02  2.9043260E-02
   32.0000  2.8983378E-02  2.9473080E-02  2.9064376E-02
   33.0000  2.8442710E-02  2.8507629E-02  2.9145450E-02
   34.0000  2.8133421E-02  2.7525474E-02  2.9223388E-02
   35.0000  2.7968052E-02  2.6534722E-02  2.9250963E-02
   36.0000  2.7875727E-02  2.5541810E-02  2.9198133E-02
   37.0000  2.7798345E-02  2.4559681E-02  2.9054303E-02
   38.0000  2.7692920E-02  2.3618694E-02  2.8832253E-02
   39.0000  2.7546045E-02  2.2772853E-02  2.8571301E-02
   40.0000  2.7387979E-02  2.2095183E-02  2.8332986E-02
