    Energy   (100,001)      (010,001)      (001,110)   
  -25.0000  1.6605717E-04  1.7481103E-04  1.7455878E-04
  -24.0000  1.7211660E-04  1.8176050E-04  1.8092953E-04
  -23.0000  1.7858472E-04  1.8922675E-04  1.8773650E-04
  -22.0000  1.8550270E-04  1.9726753E-04  1.9502468E-04
  -21.0000  1.9291726E-04  2.0594934E-04  2.0284536E-04
  -20.0000  2.0088173E-04  2.1534918E-04  2.1125726E-04
  -19.0000  2.0945721E-04  2.2555658E-04  2.2032799E-04
  -18.0000  2.1871403E-04  2.3667631E-04  2.3013567E-04
  -17.0000  2.2873353E-04  2.4883168E-04  2.4077118E-04
  -16.0000  2.3961033E-04  2.6216878E-04  2.5234078E-04
  -15.0000  2.5145512E-04  2.7686188E-04  2.6496952E-04
  -14.0000  2.6439816E-04  2.9312054E-04  2.7880560E-04
  -13.0000  2.7859390E-04  3.1119880E-04  2.9402601E-04
  -12.0000  2.9422674E-04  3.3140749E-04  3.1084385E-04
  -11.0000  3.1151876E-04  3.5413080E-04  3.2951812E-04
  -10.0000  3.3073980E-04  3.7984884E-04  3.5036691E-04
  -9.00000  3.5222116E-04  4.0916917E-04  3.7378540E-04
  -8.00000  3.7637429E-04  4.4287131E-04  4.0027117E-04
  -7.00000  4.0371685E-04  4.8197119E-04  4.3046026E-04
  -6.00000  4.3490996E-04  5.2781666E-04  4.6518022E-04
  -5.00000  4.7081270E-04  5.8223289E-04  5.0553043E-04
  -4.00000  5.1256459E-04  6.4775109E-04  5.5300835E-04
  -3.00000  5.6171481E-04  7.2798205E-04  6.0971695E-04
  -2.00000  6.2043467E-04  8.2825499E-04  6.7872516E-04
  -1.00000  6.9188806E-04  9.5677413E-04  7.6473931E-04
   0.00000  7.8092926E-04  1.1268715E-03  8.7547286E-04
   1.00000  8.9556584E-04  1.3618475E-03  1.0248001E-03
   2.00000  1.0505341E-03  1.7069298E-03  1.2413471E-03
   3.00000  1.2783484E-03  2.2658896E-03  1.5984087E-03
   4.00000  1.6788856E-03  3.3603001E-03  2.3649582E-03
   5.00000  2.6783826E-03  6.3480525E-03  4.8420494E-03
   5.20000  2.9839827E-03  7.2983374E-03  5.6120340E-03
   5.40000  3.2912516E-03  8.2767555E-03  6.3113692E-03
   5.60000  3.5923969E-03  9.2649510E-03  6.8723055E-03
   5.80000  3.8911052E-03  1.0281153E-02  7.2740523E-03
   6.00000  4.1939236E-03  1.1358385E-02  7.5335761E-03
   6.20000  4.5062621E-03  1.2532905E-02  7.6980735E-03
   6.40000  4.8321077E-03  1.3839382E-02  7.8301173E-03
   6.60000  5.1749608E-03  1.5308471E-02  7.9884492E-03
   6.80000  5.5387341E-03  1.6965891E-02  8.2150593E-03
   7.00000  5.9282894E-03  1.8832435E-02  8.5318327E-03
   7.20000  6.3496427E-03  2.0923987E-02  8.9427845E-03
   7.40000  6.8098934E-03  2.3250852E-02  9.4377443E-03
   7.60000  7.3168626E-03  2.5816709E-02  9.9964427E-03
   7.80000  7.8784008E-03  2.8618337E-02  1.0593934E-02
   8.00000  8.5014161E-03  3.1646715E-02  1.1207889E-02
   8.20000  9.1908269E-03  3.4888424E-02  1.1826118E-02
   8.40000  9.9487590E-03  3.8324796E-02  1.2450921E-02
   8.60000  1.0774411E-02  4.1926810E-02  1.3097796E-02
   8.80000  1.1665120E-02  4.5646080E-02  1.3789397E-02
   9.00000  1.2618883E-02  4.9403756E-02  1.4548441E-02
   9.20000  1.3637483E-02  5.3078787E-02  1.5393096E-02
   9.40000  1.4728246E-02  5.6498509E-02  1.6335638E-02
   9.60000  1.5902928E-02  5.9440143E-02  1.7382588E-02
   9.80000  1.7174221E-02  6.1655781E-02  1.8535663E-02
   10.0000  1.8551571E-02  6.2924039E-02  1.9794266E-02
   10.2500  2.0425577E-02  6.2984818E-02  2.1515604E-02
   10.5000  2.2453687E-02  6.1387244E-02  2.3403275E-02
   10.7500  2.4596189E-02  5.8449274E-02  2.5457224E-02
   11.0000  2.6788452E-02  5.4651368E-02  2.7665484E-02
   11.2500  2.8943666E-02  5.0475199E-02  2.9993119E-02
   11.5000  3.0962243E-02  4.6299337E-02  3.2375878E-02
   11.7500  3.2749715E-02  4.2368113E-02  3.4722852E-02
   12.0000  3.4237676E-02  3.8808477E-02  3.6928642E-02
   12.2500  3.5398757E-02  3.5664928E-02  3.8892305E-02
   12.5000  3.6248619E-02  3.2932961E-02  4.0537513E-02
   12.7500  3.6835358E-02  3.0583137E-02  4.1825524E-02
   13.0000  3.7223631E-02  2.8575452E-02  4.2755729E-02
   13.2500  3.7480205E-02  2.6867211E-02  4.3357480E-02
   13.5000  3.7663010E-02  2.5417534E-02  4.3679421E-02
   13.7500  3.7814332E-02  2.4189845E-02  4.3779033E-02
   14.0000  3.7959622E-02  2.3152707E-02  4.3713862E-02
   14.2500  3.8111008E-02  2.2279645E-02  4.3535980E-02
   14.5000  3.8271966E-02  2.1548591E-02  4.3289266E-02
   14.7500  3.8440791E-02  2.0941282E-02  4.3008159E-02
   15.0000  3.8612659E-02  2.0442676E-02  4.2717204E-02
   15.2500  3.8780852E-02  2.0040411E-02  4.2431227E-02
   15.5000  3.8937634E-02  1.9724333E-02  4.2156137E-02
   15.7500  3.9075061E-02  1.9486098E-02  4.1890312E-02
   16.0000  3.9185819E-02  1.9318838E-02  4.1626489E-02
   16.2500  3.9264097E-02  1.9216889E-02  4.1354020E-02
   16.5000  3.9306424E-02  1.9175551E-02  4.1061292E-02
   16.7500  3.9312331E-02  1.9190892E-02  4.0738001E-02
   17.0000  3.9284717E-02  1.9259565E-02  4.0376990E-02
   17.2500  3.9229804E-02  1.9378653E-02  3.9975371E-02
   17.5000  3.9156655E-02  1.9545533E-02  3.9534812E-02
   17.7500  3.9076313E-02  1.9757767E-02  3.9061047E-02
   18.0000  3.9000706E-02  2.0013015E-02  3.8562817E-02
   18.2500  3.8941498E-02  2.0308987E-02  3.8050548E-02
   18.5000  3.8909052E-02  2.0643414E-02  3.7535049E-02
   18.7500  3.8911659E-02  2.1014057E-02  3.7026433E-02
   19.0000  3.8955059E-02  2.1418743E-02  3.6533361E-02
   19.2500  3.9042279E-02  2.1855437E-02  3.6062597E-02
   19.5000  3.9173704E-02  2.2322337E-02  3.5618838E-02
   19.7500  3.9347244E-02  2.2817877E-02  3.5204780E-02
   20.0000  3.9558421E-02  2.3340523E-02  3.4821421E-02
   21.0000  4.0611989E-02  2.5652402E-02  3.3584902E-02
   22.0000  4.1486773E-02  2.8173376E-02  3.2748386E-02
   23.0000  4.1522105E-02  3.0677763E-02  3.2157708E-02
   24.0000  4.0325598E-02  3.2848079E-02  3.1649338E-02
   25.0000  3.7977985E-02  3.4335888E-02  3.1086989E-02
   26.0000  3.4985793E-02  3.4934438E-02  3.0403109E-02
   27.0000  3.2005808E-02  3.4697732E-02  2.9636270E-02
   28.0000  2.9531178E-02  3.3876357E-02  2.8906529E-02
   29.0000  2.7709709E-02  3.2746338E-02  2.8318893E-02
   30.0000  2.6465105E-02  3.1511351E-02  2.7913138E-02
   31.0000  2.5650757E-02  3.0287205E-02  2.7663076E-02
   32.0000  2.5121854E-02  2.9120328E-02  2.7501955E-02
   33.0000  2.4759504E-02  2.8014191E-02  2.7354262E-02
   34.0000  2.4471077E-02  2.6952806E-02  2.7156007E-02
   35.0000  2.4183467E-02  2.5918506E-02  2.6861710E-02
   36.0000  2.3840557E-02  2.4903904E-02  2.6445677E-02
   37.0000  2.3409944E-02  2.3918313E-02  2.5904715E-02
   38.0000  2.2896453E-02  2.2990328E-02  2.5265931E-02
   39.0000  2.2353688E-02  2.2168975E-02  2.4599207E-02
   40.0000  2.1875903E-02  2.1517103E-02  2.4017629E-02
