    Energy   (100,001)      (010,001)      (001,110)   
  -25.0000  1.7489551E-04  1.7840293E-04  1.7308510E-04
  -24.0000  1.8144855E-04  1.8530766E-04  1.7961369E-04
  -23.0000  1.8846341E-04  1.9271722E-04  1.8660325E-04
  -22.0000  1.9598913E-04  2.0068735E-04  1.9410261E-04
  -21.0000  2.0408181E-04  2.0928214E-04  2.0216760E-04
  -20.0000  2.1280595E-04  2.1857568E-04  2.1086234E-04
  -19.0000  2.2223607E-04  2.2865402E-04  2.2026086E-04
  -18.0000  2.3245868E-04  2.3961767E-04  2.3044898E-04
  -17.0000  2.4357482E-04  2.5158475E-04  2.4152682E-04
  -16.0000  2.5570318E-04  2.6469494E-04  2.5361181E-04
  -15.0000  2.6898411E-04  2.7911457E-04  2.6684258E-04
  -14.0000  2.8358481E-04  2.9504321E-04  2.8138392E-04
  -13.0000  2.9970594E-04  3.1272230E-04  2.9743319E-04
  -12.0000  3.1759048E-04  3.3244654E-04  3.1522872E-04
  -11.0000  3.3753539E-04  3.5457921E-04  3.3506087E-04
  -10.0000  3.5990745E-04  3.7957308E-04  3.5728702E-04
  -9.00000  3.8516500E-04  4.0799927E-04  3.8235188E-04
  -8.00000  4.1388837E-04  4.4058804E-04  4.1081578E-04
  -7.00000  4.4682346E-04  4.7828751E-04  4.4339470E-04
  -6.00000  4.8494536E-04  5.2235009E-04  4.8101823E-04
  -5.00000  5.2955435E-04  5.7446342E-04  5.2491573E-04
  -4.00000  5.8242497E-04  6.3695489E-04  5.7674838E-04
  -3.00000  6.4604710E-04  7.1312300E-04  6.3881889E-04
  -2.00000  7.2403425E-04  8.0779922E-04  7.1441974E-04
  -1.00000  8.2185702E-04  9.2835510E-04  8.0844411E-04
   0.00000  9.4826370E-04  1.0866422E-03  9.2853693E-04
   1.00000  1.1183243E-03  1.3031101E-03  1.0874841E-03
   2.00000  1.3609546E-03  1.6168573E-03  1.3089127E-03
   3.00000  1.7420183E-03  2.1160886E-03  1.6441692E-03
   4.00000  2.4649707E-03  3.0700006E-03  2.2436576E-03
   5.00000  4.3950919E-03  5.6009236E-03  3.7223910E-03
   5.20000  5.0171885E-03  6.3920270E-03  4.1859977E-03
   5.40000  5.6711088E-03  7.1991823E-03  4.6686273E-03
   5.60000  6.3458334E-03  8.0074149E-03  5.1598468E-03
   5.80000  7.0457972E-03  8.8320707E-03  5.6645754E-03
   6.00000  7.7772966E-03  9.6985921E-03  6.1951836E-03
   6.20000  8.5455121E-03  1.0633357E-02  6.7672185E-03
   6.40000  9.3579596E-03  1.1662367E-02  7.3976213E-03
   6.60000  1.0228337E-02  1.2812243E-02  8.1035646E-03
   6.80000  1.1178046E-02  1.4111432E-02  8.9013629E-03
   7.00000  1.2234336E-02  1.5591155E-02  9.8053488E-03
   7.20000  1.3424701E-02  1.7286072E-02  1.0826735E-02
   7.40000  1.4767886E-02  1.9234404E-02  1.1972655E-02
   7.60000  1.6262970E-02  2.1476915E-02  1.3245933E-02
   7.80000  1.7880274E-02  2.4053868E-02  1.4646524E-02
   8.00000  1.9560948E-02  2.6999296E-02  1.6174880E-02
   8.20000  2.1230999E-02  3.0332552E-02  1.7835137E-02
   8.40000  2.2825917E-02  3.4047928E-02  1.9634068E-02
   8.60000  2.4311187E-02  3.8103801E-02  2.1574312E-02
   8.80000  2.5685852E-02  4.2412742E-02  2.3645685E-02
   9.00000  2.6970565E-02  4.6834654E-02  2.5820449E-02
   9.20000  2.8191727E-02  5.1176876E-02  2.8055082E-02
   9.40000  2.9370801E-02  5.5206101E-02  3.0296598E-02
   9.60000  3.0520495E-02  5.8674218E-02  3.2489632E-02
   9.80000  3.1645210E-02  6.1354330E-02  3.4581486E-02
   10.0000  3.2742589E-02  6.3077254E-02  3.6524394E-02
   10.2500  3.4062550E-02  6.3762732E-02  3.8679863E-02
   10.5000  3.5298419E-02  6.2857920E-02  4.0470134E-02
   10.7500  3.6413528E-02  6.0591657E-02  4.1852795E-02
   11.0000  3.7365297E-02  5.7319055E-02  4.2817046E-02
   11.2500  3.8110572E-02  5.3433662E-02  4.3384190E-02
   11.5000  3.8616786E-02  4.9292884E-02  4.3599023E-02
   11.7500  3.8871082E-02  4.5175303E-02  4.3518218E-02
   12.0000  3.8883471E-02  4.1270281E-02  4.3201925E-02
   12.2500  3.8685644E-02  3.7688707E-02  4.2706544E-02
   12.5000  3.8325638E-02  3.4482739E-02  4.2079420E-02
   12.7500  3.7860467E-02  3.1665435E-02  4.1360595E-02
   13.0000  3.7348242E-02  2.9226048E-02  4.0587918E-02
   13.2500  3.6841241E-02  2.7140311E-02  3.9798490E-02
   13.5000  3.6381247E-02  2.5376885E-02  3.9026877E-02
   13.7500  3.5997231E-02  2.3901614E-02  3.8303943E-02
   14.0000  3.5705071E-02  2.2680354E-02  3.7656099E-02
   14.2500  3.5508838E-02  2.1680719E-02  3.7103726E-02
   14.5000  3.5402858E-02  2.0873061E-02  3.6659436E-02
   14.7500  3.5373958E-02  2.0230957E-02  3.6327105E-02
   15.0000  3.5403622E-02  1.9731370E-02  3.6102013E-02
   15.2500  3.5469979E-02  1.9354589E-02  3.5971878E-02
   15.5000  3.5549690E-02  1.9084015E-02  3.5918504E-02
   15.7500  3.5619752E-02  1.8905871E-02  3.5919781E-02
   16.0000  3.5659245E-02  1.8808869E-02  3.5951897E-02
   16.2500  3.5650935E-02  1.8783859E-02  3.5991598E-02
   16.5000  3.5582599E-02  1.8823475E-02  3.6018292E-02
   16.7500  3.5447894E-02  1.8921778E-02  3.6015735E-02
   17.0000  3.5246626E-02  1.9073903E-02  3.5973036E-02
   17.2500  3.4984371E-02  1.9275725E-02  3.5884874E-02
   17.5000  3.4671515E-02  1.9523571E-02  3.5750936E-02
   17.7500  3.4321884E-02  1.9813979E-02  3.5574823E-02
   18.0000  3.3951199E-02  2.0143535E-02  3.5362693E-02
   18.2500  3.3575565E-02  2.0508783E-02  3.5121951E-02
   18.5000  3.3210167E-02  2.0906207E-02  3.4860178E-02
   18.7500  3.2868271E-02  2.1332274E-02  3.4584389E-02
   19.0000  3.2560556E-02  2.1783542E-02  3.4300605E-02
   19.2500  3.2294772E-02  2.2256801E-02  3.4013665E-02
   19.5000  3.2075669E-02  2.2749240E-02  3.3727208E-02
   19.7500  3.1905123E-02  2.3258531E-02  3.3443775E-02
   20.0000  3.1782415E-02  2.3782672E-02  3.3165047E-02
   21.0000  3.1691355E-02  2.5979160E-02  3.2118918E-02
   22.0000  3.1966344E-02  2.8220469E-02  3.1199725E-02
   23.0000  3.2223119E-02  3.0361931E-02  3.0365651E-02
   24.0000  3.2148785E-02  3.2200848E-02  2.9543741E-02
   25.0000  3.1595427E-02  3.3500346E-02  2.8689351E-02
   26.0000  3.0644889E-02  3.4100199E-02  2.7830350E-02
   27.0000  2.9543530E-02  3.4011248E-02  2.7056074E-02
   28.0000  2.8514754E-02  3.3400857E-02  2.6446300E-02
   29.0000  2.7659284E-02  3.2485128E-02  2.6030201E-02
   30.0000  2.6980119E-02  3.1447261E-02  2.5777382E-02
   31.0000  2.6440338E-02  3.0408516E-02  2.5614179E-02
   32.0000  2.5995377E-02  2.9428253E-02  2.5456817E-02
   33.0000  2.5603073E-02  2.8518901E-02  2.5240361E-02
   34.0000  2.5228085E-02  2.7665572E-02  2.4931442E-02
   35.0000  2.4845715E-02  2.6844262E-02  2.4527946E-02
   36.0000  2.4444711E-02  2.6035801E-02  2.4053439E-02
   37.0000  2.4028418E-02  2.5235045E-02  2.3549435E-02
   38.0000  2.3614579E-02  2.4457798E-02  2.3065195E-02
   39.0000  2.3234125E-02  2.3747210E-02  2.2646657E-02
   40.0000  2.2925575E-02  2.3170324E-02  2.2326281E-02
