    Energy   (100,001)      (010,001)      (001,110)   
  -25.0000  1.7192771E-04  1.8715810E-04  1.7526392E-04
  -24.0000  1.7814960E-04  1.9410969E-04  1.8159906E-04
  -23.0000  1.8479304E-04  2.0155560E-04  1.8836335E-04
  -22.0000  1.9190105E-04  2.0954934E-04  1.9560050E-04
  -21.0000  1.9952261E-04  2.1815232E-04  2.0336026E-04
  -20.0000  2.0771375E-04  2.2743541E-04  2.1169951E-04
  -19.0000  2.1653887E-04  2.3748073E-04  2.2068355E-04
  -18.0000  2.2607234E-04  2.4838404E-04  2.3038776E-04
  -17.0000  2.3640049E-04  2.6025758E-04  2.4089954E-04
  -16.0000  2.4762416E-04  2.7323385E-04  2.5232087E-04
  -15.0000  2.5986183E-04  2.8747024E-04  2.6477143E-04
  -14.0000  2.7325371E-04  3.0315521E-04  2.7839261E-04
  -13.0000  2.8796694E-04  3.2051621E-04  2.9335268E-04
  -12.0000  3.0420244E-04  3.3983023E-04  3.0985352E-04
  -11.0000  3.2220394E-04  3.6143797E-04  3.2813944E-04
  -10.0000  3.4227016E-04  3.8576310E-04  3.4850909E-04
  -9.00000  3.6477144E-04  4.1333891E-04  3.7133154E-04
  -8.00000  3.9017293E-04  4.4484590E-04  3.9706863E-04
  -7.00000  4.1906760E-04  4.8116607E-04  4.2630662E-04
  -6.00000  4.5222456E-04  5.2346291E-04  4.5980204E-04
  -5.00000  4.9066171E-04  5.7330302E-04  4.9855024E-04
  -4.00000  5.3575918E-04  6.3284707E-04  5.4389129E-04
  -3.00000  5.8944379E-04  7.0516169E-04  5.9768065E-04
  -2.00000  6.5450557E-04  7.9475430E-04  6.6257887E-04
  -1.00000  7.3517739E-04  9.0854742E-04  7.4257651E-04
   0.00000  8.3829111E-04  1.0577989E-03  8.4403014E-04
   1.00000  9.7586155E-04  1.2623099E-03  9.7795756E-04
   2.00000  1.1718600E-03  1.5611524E-03  1.1660221E-03
   3.00000  1.4846984E-03  2.0470600E-03  1.4604146E-03
   4.00000  2.1147768E-03  3.0252035E-03  2.0398563E-03
   5.00000  3.9803163E-03  5.8461319E-03  3.7223417E-03
   5.20000  4.5635498E-03  6.7265277E-03  4.2359890E-03
   5.40000  5.1311257E-03  7.5944703E-03  4.7221138E-03
   5.60000  5.6616663E-03  8.4244813E-03  5.1580750E-03
   5.80000  6.1601382E-03  9.2306490E-03  5.5476589E-03
   6.00000  6.6385304E-03  1.0038581E-02  5.9037275E-03
   6.20000  7.1070034E-03  1.0872331E-02  6.2402178E-03
   6.40000  7.5723054E-03  1.1751864E-02  6.5705180E-03
   6.60000  8.0382858E-03  1.2693452E-02  6.9074765E-03
   6.80000  8.5068183E-03  1.3710212E-02  7.2634495E-03
   7.00000  8.9790199E-03  1.4812516E-02  7.6502344E-03
   7.20000  9.4567160E-03  1.6008717E-02  8.0790407E-03
   7.40000  9.9436765E-03  1.7306501E-02  8.5605395E-03
   7.60000  1.0446047E-02  1.8714613E-02  9.1048659E-03
   7.80000  1.0971838E-02  2.0244284E-02  9.7213892E-03
   8.00000  1.1529886E-02  2.1909826E-02  1.0418078E-02
   8.20000  1.2128794E-02  2.3728354E-02  1.1200367E-02
   8.40000  1.2776140E-02  2.5718842E-02  1.2069680E-02
   8.60000  1.3477928E-02  2.7900593E-02  1.3022029E-02
   8.80000  1.4238237E-02  3.0290802E-02  1.4047386E-02
   9.00000  1.5059108E-02  3.2900576E-02  1.5130484E-02
   9.20000  1.5940787E-02  3.5728971E-02  1.6253311E-02
   9.40000  1.6882282E-02  3.8755107E-02  1.7398682E-02
   9.60000  1.7881911E-02  4.1929145E-02  1.8553572E-02
   9.80000  1.8937404E-02  4.5163516E-02  1.9710761E-02
   10.0000  2.0045577E-02  4.8327718E-02  2.0868227E-02
   10.2500  2.1496310E-02  5.1923400E-02  2.2316759E-02
   10.5000  2.2997328E-02  5.4773724E-02  2.3768366E-02
   10.7500  2.4504479E-02  5.6556975E-02  2.5219894E-02
   11.0000  2.5961988E-02  5.7093256E-02  2.6662845E-02
   11.2500  2.7321435E-02  5.6392926E-02  2.8085665E-02
   11.5000  2.8553244E-02  5.4639191E-02  2.9476430E-02
   11.7500  2.9649131E-02  5.2117155E-02  3.0823193E-02
   12.0000  3.0620683E-02  4.9132245E-02  3.2114560E-02
   12.2500  3.1493921E-02  4.5952354E-02  3.3341113E-02
   12.5000  3.2300672E-02  4.2781547E-02  3.4495130E-02
   12.7500  3.3070530E-02  3.9757881E-02  3.5569477E-02
   13.0000  3.3826343E-02  3.6963910E-02  3.6558394E-02
   13.2500  3.4582723E-02  3.4440798E-02  3.7459450E-02
   13.5000  3.5345991E-02  3.2201319E-02  3.8274802E-02
   13.7500  3.6114877E-02  3.0240173E-02  3.9011283E-02
   14.0000  3.6881726E-02  2.8541524E-02  3.9679479E-02
   14.2500  3.7634049E-02  2.7084199E-02  4.0292152E-02
   14.5000  3.8356231E-02  2.5845065E-02  4.0862324E-02
   14.7500  3.9031229E-02  2.4801101E-02  4.1401351E-02
   15.0000  3.9642090E-02  2.3930548E-02  4.1917227E-02
   15.2500  4.0173150E-02  2.3213445E-02  4.2413311E-02
   15.5000  4.0610869E-02  2.2631796E-02  4.2887622E-02
   15.7500  4.0944329E-02  2.2169526E-02  4.3332822E-02
   16.0000  4.1165515E-02  2.1812347E-02  4.3736943E-02
   16.2500  4.1269530E-02  2.1547588E-02  4.4084837E-02
   16.5000  4.1254845E-02  2.1364030E-02  4.4360167E-02
   16.7500  4.1123630E-02  2.1251762E-02  4.4547673E-02
   17.0000  4.0882056E-02  2.1202048E-02  4.4635327E-02
   17.2500  4.0540418E-02  2.1207219E-02  4.4615993E-02
   17.5000  4.0112918E-02  2.1260579E-02  4.4488331E-02
   17.7500  3.9617017E-02  2.1356317E-02  4.4256822E-02
   18.0000  3.9072393E-02  2.1489426E-02  4.3931000E-02
   18.2500  3.8499650E-02  2.1655625E-02  4.3524142E-02
   18.5000  3.7918965E-02  2.1851284E-02  4.3051700E-02
   18.7500  3.7348885E-02  2.2073351E-02  4.2529784E-02
   19.0000  3.6805394E-02  2.2319297E-02  4.1973860E-02
   19.2500  3.6301305E-02  2.2587068E-02  4.1397773E-02
   19.5000  3.5845978E-02  2.2875057E-02  4.0813111E-02
   19.7500  3.5445345E-02  2.3182031E-02  4.0228951E-02
   20.0000  3.5102246E-02  2.3506923E-02  3.9652097E-02
   21.0000  3.4293532E-02  2.4955273E-02  3.7512497E-02
   22.0000  3.4242257E-02  2.6558530E-02  3.5756331E-02
   23.0000  3.4655605E-02  2.8208818E-02  3.4367749E-02
   24.0000  3.5214611E-02  2.9791957E-02  3.3224268E-02
   25.0000  3.5590670E-02  3.1191884E-02  3.2161273E-02
   26.0000  3.5487822E-02  3.2297258E-02  3.1056401E-02
   27.0000  3.4756597E-02  3.3032583E-02  2.9900597E-02
   28.0000  3.3462240E-02  3.3400706E-02  2.8765280E-02
   29.0000  3.1859021E-02  3.3462761E-02  2.7748304E-02
   30.0000  3.0245705E-02  3.3299993E-02  2.6918224E-02
   31.0000  2.8828430E-02  3.2985012E-02  2.6288979E-02
   32.0000  2.7685671E-02  3.2565287E-02  2.5833820E-02
   33.0000  2.6804725E-02  3.2060429E-02  2.5508982E-02
   34.0000  2.6129325E-02  3.1469391E-02  2.5268186E-02
   35.0000  2.5591339E-02  3.0782671E-02  2.5068011E-02
   36.0000  2.5126581E-02  2.9995810E-02  2.4869890E-02
   37.0000  2.4683655E-02  2.9122236E-02  2.4643693E-02
   38.0000  2.4234021E-02  2.8204580E-02  2.4375376E-02
   39.0000  2.3786462E-02  2.7323863E-02  2.4079176E-02
   40.0000  2.3394250E-02  2.6593989E-02  2.3805462E-02
