    Energy   (100,001)      (010,001)      (001,110)   
  -25.0000  1.7538351E-04  1.9098006E-04  1.8254475E-04
  -24.0000  1.8139492E-04  1.9809770E-04  1.8895692E-04
  -23.0000  1.8779783E-04  2.0572423E-04  1.9579856E-04
  -22.0000  1.9463096E-04  2.1391509E-04  2.0311340E-04
  -21.0000  2.0193828E-04  2.2273398E-04  2.1095124E-04
  -20.0000  2.0976993E-04  2.3225444E-04  2.1936910E-04
  -19.0000  2.1818329E-04  2.4256180E-04  2.2843248E-04
  -18.0000  2.2724446E-04  2.5375566E-04  2.3821710E-04
  -17.0000  2.3702984E-04  2.6595289E-04  2.4881088E-04
  -16.0000  2.4762834E-04  2.7929162E-04  2.6031656E-04
  -15.0000  2.5914401E-04  2.9393617E-04  2.7285493E-04
  -14.0000  2.7169947E-04  3.1008352E-04  2.8656899E-04
  -13.0000  2.8544024E-04  3.2797178E-04  3.0162932E-04
  -12.0000  3.0054045E-04  3.4789144E-04  3.1824107E-04
  -11.0000  3.1721033E-04  3.7020037E-04  3.3665326E-04
  -10.0000  3.3570628E-04  3.9534446E-04  3.5717127E-04
  -9.00000  3.5634451E-04  4.2388613E-04  3.8017385E-04
  -8.00000  3.7952008E-04  4.5654469E-04  4.0613687E-04
  -7.00000  4.0573389E-04  4.9425473E-04  4.3566705E-04
  -6.00000  4.3563202E-04  5.3825252E-04  4.6955119E-04
  -5.00000  4.7006488E-04  5.9020774E-04  5.0882994E-04
  -4.00000  5.1017941E-04  6.5243109E-04  5.5491239E-04
  -3.00000  5.5756932E-04  7.2821493E-04  6.0976129E-04
  -2.00000  6.1453352E-04  8.2242005E-04  6.7620821E-04
  -1.00000  6.8455287E-04  9.4255097E-04  7.5852506E-04
   0.00000  7.7325155E-04  1.1008893E-03  8.6355043E-04
   1.00000  8.9058307E-04  1.3192076E-03  1.0031748E-03
   2.00000  1.0567052E-03  1.6409053E-03  1.2007757E-03
   3.00000  1.3221618E-03  2.1703848E-03  1.5124079E-03
   4.00000  1.8686037E-03  3.2571717E-03  2.1282114E-03
   5.00000  3.5461633E-03  6.4743537E-03  3.9154490E-03
   5.20000  4.0495432E-03  7.4866001E-03  4.4664333E-03
   5.40000  4.5098276E-03  8.4796618E-03  4.9930321E-03
   5.60000  4.9061021E-03  9.4122024E-03  5.4658306E-03
   5.80000  5.2460002E-03  1.0283862E-02  5.8773167E-03
   6.00000  5.5433998E-03  1.1109869E-02  6.2303754E-03
   6.20000  5.8094588E-03  1.1914690E-02  6.5400528E-03
   6.40000  6.0527331E-03  1.2731664E-02  6.8358537E-03
   6.60000  6.2814492E-03  1.3597379E-02  7.1549347E-03
   6.80000  6.5048609E-03  1.4544592E-02  7.5317658E-03
   7.00000  6.7332679E-03  1.5599785E-02  7.9927376E-03
   7.20000  6.9773439E-03  1.6785143E-02  8.5566364E-03
   7.40000  7.2474030E-03  1.8121639E-02  9.2373758E-03
   7.60000  7.5529124E-03  1.9631126E-02  1.0046204E-02
   7.80000  7.9023333E-03  2.1336978E-02  1.0992470E-02
   8.00000  8.3032020E-03  2.3263402E-02  1.2082962E-02
   8.20000  8.7622643E-03  2.5433391E-02  1.3320094E-02
   8.40000  9.2855444E-03  2.7865173E-02  1.4699343E-02
   8.60000  9.8783008E-03  3.0567378E-02  1.6206303E-02
   8.80000  1.0544844E-02  3.3533705E-02  1.7813898E-02
   9.00000  1.1288198E-02  3.6737836E-02  1.9481074E-02
   9.20000  1.2109639E-02  4.0129460E-02  2.1154604E-02
   9.40000  1.3008117E-02  4.3632144E-02  2.2774829E-02
   9.60000  1.3979605E-02  4.7142942E-02  2.4284384E-02
   9.80000  1.5016558E-02  5.0532849E-02  2.5637098E-02
   10.0000  1.6107740E-02  5.3647974E-02  2.6803540E-02
   10.2500  1.7525165E-02  5.6889153E-02  2.7982320E-02
   10.5000  1.8969010E-02  5.9082566E-02  2.8858146E-02
   10.7500  2.0400668E-02  5.9960978E-02  2.9462387E-02
   11.0000  2.1781979E-02  5.9435951E-02  2.9843717E-02
   11.2500  2.3079435E-02  5.7639843E-02  3.0060537E-02
   11.5000  2.4267457E-02  5.4879845E-02  3.0171693E-02
   11.7500  2.5330763E-02  5.1533207E-02  3.0226931E-02
   12.0000  2.6266184E-02  4.7946858E-02  3.0262687E-02
   12.2500  2.7081845E-02  4.4383750E-02  3.0304171E-02
   12.5000  2.7792969E-02  4.1014002E-02  3.0369277E-02
   12.7500  2.8417845E-02  3.7930385E-02  3.0471989E-02
   13.0000  2.8975640E-02  3.5171009E-02  3.0624687E-02
   13.2500  2.9485379E-02  3.2739575E-02  3.0838750E-02
   13.5000  2.9965252E-02  3.0620234E-02  3.1123911E-02
   13.7500  3.0431862E-02  2.8787516E-02  3.1487126E-02
   14.0000  3.0899435E-02  2.7212454E-02  3.1931469E-02
   14.2500  3.1379068E-02  2.5866040E-02  3.2455558E-02
   14.5000  3.1878145E-02  2.4720992E-02  3.3053771E-02
   14.7500  3.2400100E-02  2.3752580E-02  3.3716895E-02
   15.0000  3.2944509E-02  2.2938915E-02  3.4432644E-02
   15.2500  3.3507445E-02  2.2260921E-02  3.5185895E-02
   15.5000  3.4082003E-02  2.1702134E-02  3.5958870E-02
   15.7500  3.4658953E-02  2.1248438E-02  3.6731482E-02
   16.0000  3.5227519E-02  2.0887759E-02  3.7482008E-02
   16.2500  3.5776253E-02  2.0609788E-02  3.8188117E-02
   16.5000  3.6293982E-02  2.0405712E-02  3.8828206E-02
   16.7500  3.6770762E-02  2.0267991E-02  3.9382888E-02
   17.0000  3.7198770E-02  2.0190162E-02  3.9836435E-02
   17.2500  3.7573020E-02  2.0166680E-02  4.0177926E-02
   17.5000  3.7891813E-02  2.0192789E-02  4.0401941E-02
   17.7500  3.8156838E-02  2.0264405E-02  4.0508691E-02
   18.0000  3.8372910E-02  2.0378030E-02  4.0503601E-02
   18.2500  3.8547383E-02  2.0530664E-02  4.0396457E-02
   18.5000  3.8689323E-02  2.0719740E-02  4.0200260E-02
   18.7500  3.8808567E-02  2.0943059E-02  3.9929976E-02
   19.0000  3.8914795E-02  2.1198753E-02  3.9601292E-02
   19.2500  3.9016724E-02  2.1485263E-02  3.9229506E-02
   19.5000  3.9121476E-02  2.1801330E-02  3.8828597E-02
   19.7500  3.9234154E-02  2.2145936E-02  3.8410606E-02
   20.0000  3.9357562E-02  2.2518101E-02  3.7985490E-02
   21.0000  3.9936895E-02  2.4249126E-02  3.6362344E-02
   22.0000  4.0442892E-02  2.6272680E-02  3.5050148E-02
   23.0000  4.0501571E-02  2.8452008E-02  3.4051069E-02
   24.0000  3.9832231E-02  3.0603142E-02  3.3241830E-02
   25.0000  3.8375894E-02  3.2489220E-02  3.2490880E-02
   26.0000  3.6309640E-02  3.3877148E-02  3.1709535E-02
   27.0000  3.3966729E-02  3.4638875E-02  3.0873965E-02
   28.0000  3.1688391E-02  3.4807750E-02  3.0021728E-02
   29.0000  2.9702709E-02  3.4537816E-02  2.9223816E-02
   30.0000  2.8101234E-02  3.4013616E-02  2.8547043E-02
   31.0000  2.6884633E-02  3.3380873E-02  2.8027840E-02
   32.0000  2.6013790E-02  3.2721464E-02  2.7666601E-02
   33.0000  2.5437667E-02  3.2060445E-02  2.7435831E-02
   34.0000  2.5099495E-02  3.1392778E-02  2.7291034E-02
   35.0000  2.4940824E-02  3.0705820E-02  2.7182622E-02
   36.0000  2.4915828E-02  2.9979125E-02  2.7071231E-02
   37.0000  2.4988086E-02  2.9203014E-02  2.6935047E-02
   38.0000  2.5122391E-02  2.8397697E-02  2.6771273E-02
   39.0000  2.5279697E-02  2.7623129E-02  2.6595558E-02
   40.0000  2.5417027E-02  2.6976481E-02  2.6438559E-02
