    Energy   (100,001)      (010,001)      (001,110)   
  -25.0000  1.7482941E-04  1.8725742E-04  1.8549346E-04
  -24.0000  1.8095608E-04  1.9431656E-04  1.9193527E-04
  -23.0000  1.8748674E-04  2.0188392E-04  1.9880688E-04
  -22.0000  1.9446156E-04  2.1001506E-04  2.0615216E-04
  -21.0000  2.0192621E-04  2.1877389E-04  2.1402111E-04
  -20.0000  2.0993270E-04  2.2823418E-04  2.2247104E-04
  -19.0000  2.1854065E-04  2.3848155E-04  2.3156788E-04
  -18.0000  2.2781861E-04  2.4961594E-04  2.4138796E-04
  -17.0000  2.3784589E-04  2.6175470E-04  2.5202005E-04
  -16.0000  2.4871469E-04  2.7503648E-04  2.6356814E-04
  -15.0000  2.6053286E-04  2.8962625E-04  2.7615474E-04
  -14.0000  2.7342736E-04  3.0572180E-04  2.8992537E-04
  -13.0000  2.8754870E-04  3.2356219E-04  3.0505418E-04
  -12.0000  3.0307670E-04  3.4343901E-04  3.2175150E-04
  -11.0000  3.2022798E-04  3.6571142E-04  3.4027393E-04
  -10.0000  3.3926604E-04  3.9082669E-04  3.6093797E-04
  -9.00000  3.6051472E-04  4.1934865E-04  3.8413905E-04
  -8.00000  3.8437681E-04  4.5199778E-04  4.1037834E-04
  -7.00000  4.1136002E-04  4.8970902E-04  4.4030174E-04
  -6.00000  4.4211429E-04  5.3371706E-04  4.7475803E-04
  -5.00000  4.7748669E-04  5.8568560E-04  5.1488855E-04
  -4.00000  5.1860481E-04  6.4790995E-04  5.6227110E-04
  -3.00000  5.6700827E-04  7.2364663E-04  6.1916212E-04
  -2.00000  6.2486617E-04  8.1767531E-04  6.8892848E-04
  -1.00000  6.9535811E-04  9.3731454E-04  7.7687587E-04
   0.00000  7.8339527E-04  1.0944010E-03  8.9199356E-04
   1.00000  8.9713524E-04  1.3095600E-03  1.0511150E-03
   2.00000  1.0516790E-03  1.6228610E-03  1.2906985E-03
   3.00000  1.2804214E-03  2.1270392E-03  1.7097246E-03
   4.00000  1.6854057E-03  3.1158778E-03  2.6980148E-03
   5.00000  2.6985661E-03  5.8556192E-03  6.0780236E-03
   5.20000  3.0100880E-03  6.7203871E-03  6.9507947E-03
   5.40000  3.3261080E-03  7.5984732E-03  7.5941853E-03
   5.60000  3.6393662E-03  8.4711221E-03  8.0229247E-03
   5.80000  3.9530955E-03  9.3509231E-03  8.3450195E-03
   6.00000  4.2729908E-03  1.0256389E-02  8.6591090E-03
   6.20000  4.6043961E-03  1.1201614E-02  9.0177044E-03
   6.40000  4.9531767E-03  1.2197749E-02  9.4339303E-03
   6.60000  5.3271559E-03  1.3258030E-02  9.8990354E-03
   6.80000  5.7362567E-03  1.4400675E-02  1.0395437E-02
   7.00000  6.1912111E-03  1.5648084E-02  1.0901538E-02
   7.20000  6.7019093E-03  1.7024499E-02  1.1391813E-02
   7.40000  7.2763384E-03  1.8554640E-02  1.1838080E-02
   7.60000  7.9203170E-03  2.0263834E-02  1.2215411E-02
   7.80000  8.6377871E-03  2.2178734E-02  1.2511516E-02
   8.00000  9.4313248E-03  2.4327459E-02  1.2734446E-02
   8.20000  1.0302479E-02  2.6738378E-02  1.2912953E-02
   8.40000  1.1251398E-02  2.9436980E-02  1.3088249E-02
   8.60000  1.2275346E-02  3.2440500E-02  1.3301855E-02
   8.80000  1.3366393E-02  3.5750524E-02  1.3586093E-02
   9.00000  1.4509185E-02  3.9344562E-02  1.3960525E-02
   9.20000  1.5679979E-02  4.3168019E-02  1.4433442E-02
   9.40000  1.6848146E-02  4.7127599E-02  1.5005789E-02
   9.60000  1.7980707E-02  5.1086351E-02  1.5675335E-02
   9.80000  1.9049292E-02  5.4862465E-02  1.6439495E-02
   10.0000  2.0037222E-02  5.8235833E-02  1.7295605E-02
   10.2500  2.1158528E-02  6.1519275E-02  1.8487533E-02
   10.5000  2.2181749E-02  6.3363166E-02  1.9796987E-02
   10.7500  2.3154219E-02  6.3500730E-02  2.1193959E-02
   11.0000  2.4121799E-02  6.1946363E-02  2.2640960E-02
   11.2500  2.5114231E-02  5.9004057E-02  2.4100768E-02
   11.5000  2.6139819E-02  5.5156445E-02  2.5543256E-02
   11.7500  2.7186666E-02  5.0905248E-02  2.6947603E-02
   12.0000  2.8228056E-02  4.6652287E-02  2.8300529E-02
   12.2500  2.9230567E-02  4.2658002E-02  2.9593019E-02
   12.5000  3.0163543E-02  3.9057303E-02  3.0817654E-02
   12.7500  3.1006784E-02  3.5895905E-02  3.1967436E-02
   13.0000  3.1752098E-02  3.3165301E-02  3.3035378E-02
   13.2500  3.2401242E-02  3.0829099E-02  3.4014246E-02
   13.5000  3.2964919E-02  2.8840004E-02  3.4897446E-02
   13.7500  3.3460616E-02  2.7149691E-02  3.5681739E-02
   14.0000  3.3908000E-02  2.5713900E-02  3.6370051E-02
   14.2500  3.4324869E-02  2.4494332E-02  3.6972012E-02
   14.5000  3.4725318E-02  2.3458778E-02  3.7501865E-02
   14.7500  3.5119225E-02  2.2580570E-02  3.7975433E-02
   15.0000  3.5512060E-02  2.1837881E-02  3.8407460E-02
   15.2500  3.5904954E-02  2.1213036E-02  3.8809596E-02
   15.5000  3.6295137E-02  2.0691828E-02  3.9188950E-02
   15.7500  3.6676730E-02  2.0262876E-02  3.9547219E-02
   16.0000  3.7041761E-02  1.9917027E-02  3.9880469E-02
   16.2500  3.7381254E-02  1.9646835E-02  4.0179630E-02
   16.5000  3.7686278E-02  1.9446122E-02  4.0431693E-02
   16.7500  3.7948877E-02  1.9309631E-02  4.0621495E-02
   17.0000  3.8162842E-02  1.9232759E-02  4.0733895E-02
   17.2500  3.8324313E-02  1.9211362E-02  4.0756060E-02
   17.5000  3.8432201E-02  1.9241637E-02  4.0679516E-02
   17.7500  3.8488397E-02  1.9320051E-02  4.0501615E-02
   18.0000  3.8497751E-02  1.9443314E-02  4.0226156E-02
   18.2500  3.8467783E-02  1.9608378E-02  3.9863058E-02
   18.5000  3.8408155E-02  1.9812456E-02  3.9427189E-02
   18.7500  3.8329937E-02  2.0053045E-02  3.8936636E-02
   19.0000  3.8244764E-02  2.0327953E-02  3.8410743E-02
   19.2500  3.8163977E-02  2.0635342E-02  3.7868255E-02
   19.5000  3.8097838E-02  2.0973757E-02  3.7325804E-02
   19.7500  3.8054894E-02  2.1342094E-02  3.6796923E-02
   20.0000  3.8041583E-02  2.1739400E-02  3.6291791E-02
   21.0000  3.8341470E-02  2.3588347E-02  3.4626969E-02
   22.0000  3.9136482E-02  2.5767418E-02  3.3594970E-02
   23.0000  4.0034148E-02  2.8139269E-02  3.3015209E-02
   24.0000  4.0455834E-02  3.0491880E-02  3.2614275E-02
   25.0000  3.9912713E-02  3.2556244E-02  3.2173941E-02
   26.0000  3.8274770E-02  3.4091009E-02  3.1586895E-02
   27.0000  3.5848136E-02  3.4970292E-02  3.0858211E-02
   28.0000  3.3178612E-02  3.5207338E-02  3.0070683E-02
   29.0000  3.0754212E-02  3.4914332E-02  2.9332874E-02
   30.0000  2.8838527E-02  3.4247025E-02  2.8731629E-02
   31.0000  2.7480696E-02  3.3369079E-02  2.8308760E-02
   32.0000  2.6602242E-02  3.2421197E-02  2.8058956E-02
   33.0000  2.6078060E-02  3.1480617E-02  2.7939176E-02
   34.0000  2.5785115E-02  3.0571210E-02  2.7895974E-02
   35.0000  2.5618426E-02  2.9690261E-02  2.7883828E-02
   36.0000  2.5494450E-02  2.8827332E-02  2.7868929E-02
   37.0000  2.5354968E-02  2.7978597E-02  2.7828535E-02
   38.0000  2.5172683E-02  2.7158138E-02  2.7751795E-02
   39.0000  2.4956397E-02  2.6407884E-02  2.7644821E-02
   40.0000  2.4748858E-02  2.5797997E-02  2.7535459E-02
