    Energy   (100,001)      (010,001)      (001,110)   
  -25.0000  1.7268367E-04  1.8342797E-04  1.7904742E-04
  -24.0000  1.7887262E-04  1.9036138E-04  1.8554016E-04
  -23.0000  1.8547826E-04  1.9779288E-04  1.9247953E-04
  -22.0000  1.9254284E-04  2.0577671E-04  1.9991205E-04
  -21.0000  2.0011448E-04  2.1437516E-04  2.0789087E-04
  -20.0000  2.0824814E-04  2.2366011E-04  2.1647694E-04
  -19.0000  2.1700692E-04  2.3371492E-04  2.2574054E-04
  -18.0000  2.2646363E-04  2.4463679E-04  2.3576309E-04
  -17.0000  2.3670265E-04  2.5653976E-04  2.4663944E-04
  -16.0000  2.4782242E-04  2.6955842E-04  2.5848078E-04
  -15.0000  2.5993837E-04  2.8385274E-04  2.7141828E-04
  -14.0000  2.7318684E-04  2.9961427E-04  2.8560778E-04
  -13.0000  2.8772998E-04  3.1707425E-04  3.0123586E-04
  -12.0000  3.0376216E-04  3.3651430E-04  3.1852787E-04
  -11.0000  3.2151841E-04  3.5828078E-04  3.3775849E-04
  -10.0000  3.4128569E-04  3.8280426E-04  3.5926610E-04
  -9.00000  3.6341807E-04  4.1062650E-04  3.8347249E-04
  -8.00000  3.8835778E-04  4.4243833E-04  4.1091040E-04
  -7.00000  4.1666465E-04  4.7913409E-04  4.4226299E-04
  -6.00000  4.4905858E-04  5.2189178E-04  4.7842172E-04
  -5.00000  4.8648207E-04  5.7229406E-04  5.2057373E-04
  -4.00000  5.3019546E-04  6.3251708E-04  5.7033852E-04
  -3.00000  5.8192723E-04  7.0563647E-04  6.2999057E-04
  -2.00000  6.4412222E-04  7.9614638E-04  7.0284106E-04
  -1.00000  7.2037531E-04  9.1089255E-04  7.9393546E-04
   0.00000  8.1624699E-04  1.0608791E-03  9.1143814E-04
   1.00000  9.4095749E-04  1.2651407E-03  1.0697037E-03
   2.00000  1.1114465E-03  1.5603325E-03  1.2972450E-03
   3.00000  1.3644910E-03  2.0304100E-03  1.6628632E-03
   4.00000  1.8084197E-03  2.9383321E-03  2.3992787E-03
   5.00000  2.8890086E-03  5.4091234E-03  4.5559970E-03
   5.20000  3.2271383E-03  6.1868383E-03  5.2241035E-03
   5.40000  3.5813315E-03  6.9781823E-03  5.8743461E-03
   5.60000  3.9461531E-03  7.7662529E-03  6.4879568E-03
   5.80000  4.3255609E-03  8.5622905E-03  7.0764939E-03
   6.00000  4.7259705E-03  9.3842231E-03  7.6562489E-03
   6.20000  5.1532169E-03  1.0247197E-02  8.2365359E-03
   6.40000  5.6120785E-03  1.1162768E-02  8.8192700E-03
   6.60000  6.1068450E-03  1.2141014E-02  9.4038634E-03
   6.80000  6.6424633E-03  1.3193142E-02  9.9937177E-03
   7.00000  7.2257158E-03  1.4333644E-02  1.0601327E-02
   7.20000  7.8656966E-03  1.5581503E-02  1.1249737E-02
   7.40000  8.5731259E-03  1.6960242E-02  1.1969717E-02
   7.60000  9.3586129E-03  1.8497222E-02  1.2793861E-02
   7.80000  1.0230261E-02  2.0222721E-02  1.3749356E-02
   8.00000  1.1190944E-02  2.2168963E-02  1.4850587E-02
   8.20000  1.2235685E-02  2.4368946E-02  1.6092415E-02
   8.40000  1.3349952E-02  2.6854700E-02  1.7445611E-02
   8.60000  1.4510395E-02  2.9654415E-02  1.8857337E-02
   8.80000  1.5689659E-02  3.2787633E-02  2.0260133E-02
   9.00000  1.6865477E-02  3.6257643E-02  2.1590115E-02
   9.20000  1.8030766E-02  4.0040541E-02  2.2808177E-02
   9.40000  1.9198848E-02  4.4071643E-02  2.3912413E-02
   9.60000  2.0399604E-02  4.8232412E-02  2.4933497E-02
   9.80000  2.1667899E-02  5.2343703E-02  2.5916343E-02
   10.0000  2.3030178E-02  5.6171269E-02  2.6899823E-02
   10.2500  2.4875307E-02  6.0148336E-02  2.8159180E-02
   10.5000  2.6843807E-02  6.2766701E-02  2.9446841E-02
   10.7500  2.8850124E-02  6.3695269E-02  3.0730330E-02
   11.0000  3.0773953E-02  6.2878234E-02  3.1971607E-02
   11.2500  3.2483453E-02  6.0543473E-02  3.3136341E-02
   11.5000  3.3863850E-02  5.7111772E-02  3.4190927E-02
   11.7500  3.4847349E-02  5.3062242E-02  3.5104027E-02
   12.0000  3.5428039E-02  4.8818392E-02  3.5852987E-02
   12.2500  3.5653636E-02  4.4689290E-02  3.6427967E-02
   12.5000  3.5603079E-02  4.0863332E-02  3.6831216E-02
   12.7500  3.5363783E-02  3.7432240E-02  3.7074791E-02
   13.0000  3.5016363E-02  3.4422377E-02  3.7179523E-02
   13.2500  3.4627269E-02  3.1820935E-02  3.7173838E-02
   13.5000  3.4247092E-02  2.9594535E-02  3.7091126E-02
   13.7500  3.3912014E-02  2.7701388E-02  3.6966162E-02
   14.0000  3.3646299E-02  2.6098556E-02  3.6831552E-02
   14.2500  3.3464632E-02  2.4745795E-02  3.6714925E-02
   14.5000  3.3373923E-02  2.3607262E-02  3.6637168E-02
   14.7500  3.3374596E-02  2.2651979E-02  3.6611720E-02
   15.0000  3.3461543E-02  2.1853677E-02  3.6644685E-02
   15.2500  3.3624899E-02  2.1190336E-02  3.6735500E-02
   15.5000  3.3850814E-02  2.0643640E-02  3.6877891E-02
   15.7500  3.4122355E-02  2.0198433E-02  3.7060962E-02
   16.0000  3.4420650E-02  1.9842229E-02  3.7270353E-02
   16.2500  3.4726313E-02  1.9564788E-02  3.7489463E-02
   16.5000  3.5021095E-02  1.9357770E-02  3.7700762E-02
   16.7500  3.5289590E-02  1.9214425E-02  3.7887183E-02
   17.0000  3.5520751E-02  1.9129335E-02  3.8033492E-02
   17.2500  3.5708921E-02  1.9098170E-02  3.8127496E-02
   17.5000  3.5854167E-02  1.9117461E-02  3.8160883E-02
   17.7500  3.5961833E-02  1.9184394E-02  3.8129578E-02
   18.0000  3.6041418E-02  1.9296630E-02  3.8033573E-02
   18.2500  3.6105022E-02  1.9452160E-02  3.7876329E-02
   18.5000  3.6165688E-02  1.9649193E-02  3.7663901E-02
   18.7500  3.6235890E-02  1.9886096E-02  3.7403973E-02
   19.0000  3.6326382E-02  2.0161374E-02  3.7104945E-02
   19.2500  3.6445450E-02  2.0473690E-02  3.6775157E-02
   19.5000  3.6598541E-02  2.0821911E-02  3.6422289E-02
   19.7500  3.6788131E-02  2.1205104E-02  3.6053009E-02
   20.0000  3.7013645E-02  2.1622361E-02  3.5672966E-02
   21.0000  3.8163068E-02  2.3600068E-02  3.4140256E-02
   22.0000  3.9257368E-02  2.5980169E-02  3.2741218E-02
   23.0000  3.9628375E-02  2.8611735E-02  3.1553396E-02
   24.0000  3.8857764E-02  3.1239974E-02  3.0574289E-02
   25.0000  3.7032963E-02  3.3515064E-02  2.9762999E-02
   26.0000  3.4639933E-02  3.5111797E-02  2.9062879E-02
   27.0000  3.2227267E-02  3.5873603E-02  2.8432026E-02
   28.0000  3.0159398E-02  3.5864317E-02  2.7866788E-02
   29.0000  2.8544590E-02  3.5297203E-02  2.7388064E-02
   30.0000  2.7359013E-02  3.4407055E-02  2.7026904E-02
   31.0000  2.6538985E-02  3.3373400E-02  2.6798359E-02
   32.0000  2.6004530E-02  3.2304791E-02  2.6683422E-02
   33.0000  2.5668955E-02  3.1251812E-02  2.6635222E-02
   34.0000  2.5447335E-02  3.0228133E-02  2.6596465E-02
   35.0000  2.5264349E-02  2.9230697E-02  2.6514368E-02
   36.0000  2.5062047E-02  2.8255779E-02  2.6350668E-02
   37.0000  2.4806946E-02  2.7309546E-02  2.6089106E-02
   38.0000  2.4495327E-02  2.6414096E-02  2.5742350E-02
   39.0000  2.4157073E-02  2.5612783E-02  2.5358030E-02
   40.0000  2.3852450E-02  2.4970231E-02  2.5014171E-02
