    Energy   (100,001)      (010,001)      (001,110)   
  -25.0000  1.7322962E-04  1.8510822E-04  1.7928460E-04
  -24.0000  1.7930178E-04  1.9212220E-04  1.8561431E-04
  -23.0000  1.8577463E-04  1.9964297E-04  1.9236716E-04
  -22.0000  1.9268809E-04  2.0772608E-04  1.9958596E-04
  -21.0000  2.0008751E-04  2.1643539E-04  2.0731943E-04
  -20.0000  2.0802460E-04  2.2584468E-04  2.1562323E-04
  -19.0000  2.1655863E-04  2.3603958E-04  2.2456129E-04
  -18.0000  2.2575781E-04  2.4712008E-04  2.3420734E-04
  -17.0000  2.3570109E-04  2.5920357E-04  2.4464690E-04
  -16.0000  2.4648032E-04  2.7242884E-04  2.5597970E-04
  -15.0000  2.5820304E-04  2.8696106E-04  2.6832277E-04
  -14.0000  2.7099601E-04  3.0299830E-04  2.8181437E-04
  -13.0000  2.8500966E-04  3.2078007E-04  2.9661905E-04
  -12.0000  3.0042406E-04  3.4059858E-04  3.1293419E-04
  -11.0000  3.1745660E-04  3.6281397E-04  3.3099868E-04
  -10.0000  3.3637236E-04  3.8787493E-04  3.5110454E-04
  -9.00000  3.5749828E-04  4.1634742E-04  3.7361269E-04
  -8.00000  3.8124266E-04  4.4895515E-04  3.9897476E-04
  -7.00000  4.0812303E-04  4.8663806E-04  4.2776403E-04
  -6.00000  4.3880657E-04  5.3063866E-04  4.6072017E-04
  -5.00000  4.7417094E-04  5.8263335E-04  4.9881593E-04
  -4.00000  5.1539890E-04  6.4493852E-04  5.4335991E-04
  -3.00000  5.6413242E-04  7.2084693E-04  5.9616125E-04
  -2.00000  6.2273764E-04  8.1520347E-04  6.5980732E-04
  -1.00000  6.9479325E-04  9.3545021E-04  7.3816172E-04
   0.00000  7.8607509E-04  1.0936743E-03  8.3733358E-04
   1.00000  9.0679455E-04  1.3110565E-03  9.6778469E-04
   2.00000  1.0776120E-03  1.6290674E-03  1.1496901E-03
   3.00000  1.3502650E-03  2.1447574E-03  1.4302300E-03
   4.00000  1.9101363E-03  3.1705289E-03  1.9645969E-03
   5.00000  3.6359934E-03  6.0619470E-03  3.4413688E-03
   5.20000  4.1679244E-03  6.9627024E-03  3.8890666E-03
   5.40000  4.6599798E-03  7.8592264E-03  4.3178683E-03
   5.60000  5.0781070E-03  8.7315177E-03  4.7135068E-03
   5.80000  5.4202549E-03  9.6001065E-03  5.0876282E-03
   6.00000  5.7014168E-03  1.0497238E-02  5.4600320E-03
   6.20000  5.9429187E-03  1.1452707E-02  5.8473233E-03
   6.40000  6.1656563E-03  1.2490474E-02  6.2594572E-03
   6.60000  6.3865121E-03  1.3628828E-02  6.7012284E-03
   6.80000  6.6176023E-03  1.4881221E-02  7.1760262E-03
   7.00000  6.8670813E-03  1.6257143E-02  7.6896188E-03
   7.20000  7.1403466E-03  1.7763120E-02  8.2521867E-03
   7.40000  7.4411380E-03  1.9404179E-02  8.8778664E-03
   7.60000  7.7724153E-03  2.1185995E-02  9.5824749E-03
   7.80000  8.1370158E-03  2.3117485E-02  1.0380780E-02
   8.00000  8.5380929E-03  2.5213187E-02  1.1284133E-02
   8.20000  8.9793271E-03  2.7494491E-02  1.2298259E-02
   8.40000  9.4649410E-03  2.9988563E-02  1.3420467E-02
   8.60000  9.9995824E-03  3.2724025E-02  1.4635950E-02
   8.80000  1.0588153E-02  3.5722971E-02  1.5914025E-02
   9.00000  1.1235649E-02  3.8989400E-02  1.7206787E-02
   9.20000  1.1947064E-02  4.2494919E-02  1.8453544E-02
   9.40000  1.2727335E-02  4.6163812E-02  1.9592980E-02
   9.60000  1.3581268E-02  4.9861572E-02  2.0580492E-02
   9.80000  1.4513266E-02  5.3393212E-02  2.1402946E-02
   10.0000  1.5526674E-02  5.6518039E-02  2.2082502E-02
   10.2500  1.6909075E-02  5.9468415E-02  2.2806520E-02
   10.5000  1.8412372E-02  6.0981016E-02  2.3501277E-02
   10.7500  2.0014646E-02  6.0867989E-02  2.4273246E-02
   11.0000  2.1678967E-02  5.9233364E-02  2.5193684E-02
   11.2500  2.3356242E-02  5.6421809E-02  2.6290263E-02
   11.5000  2.4989481E-02  5.2882217E-02  2.7549415E-02
   11.7500  2.6519960E-02  4.9035315E-02  2.8923614E-02
   12.0000  2.7896777E-02  4.5201383E-02  3.0342994E-02
   12.2500  2.9087083E-02  4.1587373E-02  3.1729975E-02
   12.5000  3.0082073E-02  3.8304700E-02  3.3011832E-02
   12.7500  3.0895714E-02  3.5396155E-02  3.4128963E-02
   13.0000  3.1557575E-02  3.2861879E-02  3.5042134E-02
   13.2500  3.2104808E-02  3.0678982E-02  3.5738623E-02
   13.5000  3.2576392E-02  2.8813979E-02  3.6232757E-02
   13.7500  3.3009162E-02  2.7230107E-02  3.6559893E-02
   14.0000  3.3434893E-02  2.5891493E-02  3.6767153E-02
   14.2500  3.3878484E-02  2.4765331E-02  3.6904455E-02
   14.5000  3.4357258E-02  2.3822786E-02  3.7017832E-02
   14.7500  3.4881088E-02  2.3039149E-02  3.7145426E-02
   15.0000  3.5453037E-02  2.2393583E-02  3.7315708E-02
   15.2500  3.6070261E-02  2.1868684E-02  3.7547117E-02
   15.5000  3.6725040E-02  2.1449993E-02  3.7848484E-02
   15.7500  3.7405857E-02  2.1125502E-02  3.8219789E-02
   16.0000  3.8098493E-02  2.0885206E-02  3.8653091E-02
   16.2500  3.8787101E-02  2.0720721E-02  3.9133638E-02
   16.5000  3.9455224E-02  2.0624958E-02  3.9641215E-02
   16.7500  4.0086727E-02  2.0591871E-02  4.0151818E-02
   17.0000  4.0666629E-02  2.0616241E-02  4.0639618E-02
   17.2500  4.1181839E-02  2.0693517E-02  4.1079124E-02
   17.5000  4.1621813E-02  2.0819665E-02  4.1447343E-02
   17.7500  4.1979122E-02  2.0991053E-02  4.1725665E-02
   18.0000  4.2249905E-02  2.1204334E-02  4.1901228E-02
   18.2500  4.2434140E-02  2.1456352E-02  4.1967579E-02
   18.5000  4.2535637E-02  2.1744046E-02  4.1924602E-02
   18.7500  4.2561693E-02  2.2064385E-02  4.1777762E-02
   19.0000  4.2522374E-02  2.2414337E-02  4.1536865E-02
   19.2500  4.2429463E-02  2.2790889E-02  4.1214537E-02
   19.5000  4.2295233E-02  2.3191113E-02  4.0824659E-02
   19.7500  4.2131226E-02  2.3612177E-02  4.0381052E-02
   20.0000  4.1947365E-02  2.4051181E-02  3.9896757E-02
   21.0000  4.1142096E-02  2.5910221E-02  3.7786638E-02
   22.0000  4.0289176E-02  2.7748614E-02  3.5783955E-02
   23.0000  3.9194448E-02  2.9387604E-02  3.4087724E-02
   24.0000  3.7672403E-02  3.0728352E-02  3.2703993E-02
   25.0000  3.5747846E-02  3.1733435E-02  3.1571421E-02
   26.0000  3.3632617E-02  3.2389221E-02  3.0614557E-02
   27.0000  3.1605832E-02  3.2686148E-02  2.9780824E-02
   28.0000  2.9879308E-02  3.2633833E-02  2.9061278E-02
   29.0000  2.8530330E-02  3.2281925E-02  2.8479427E-02
   30.0000  2.7536978E-02  3.1721379E-02  2.8058703E-02
   31.0000  2.6841972E-02  3.1054904E-02  2.7795187E-02
   32.0000  2.6380093E-02  3.0350006E-02  2.7651521E-02
   33.0000  2.6088939E-02  2.9638063E-02  2.7576295E-02
   34.0000  2.5910157E-02  2.8931789E-02  2.7519193E-02
   35.0000  2.5787276E-02  2.8236304E-02  2.7434503E-02
   36.0000  2.5666361E-02  2.7553644E-02  2.7282411E-02
   37.0000  2.5501546E-02  2.6883911E-02  2.7034310E-02
   38.0000  2.5267150E-02  2.6230956E-02  2.6684795E-02
   39.0000  2.4975965E-02  2.5619282E-02  2.6270254E-02
   40.0000  2.4690670E-02  2.5108902E-02  2.5879696E-02
