    Energy   (100,001)      (010,001)      (001,110)   
  -25.0000  1.7535428E-04  1.8958885E-04  1.7868236E-04
  -24.0000  1.8161883E-04  1.9653959E-04  1.8514642E-04
  -23.0000  1.8830553E-04  2.0398076E-04  1.9205305E-04
  -22.0000  1.9545735E-04  2.1196520E-04  1.9944806E-04
  -21.0000  2.0312320E-04  2.2055349E-04  2.0738375E-04
  -20.0000  2.1135904E-04  2.2981550E-04  2.1592006E-04
  -19.0000  2.2022915E-04  2.3983216E-04  2.2512602E-04
  -18.0000  2.2980774E-04  2.5069774E-04  2.3508151E-04
  -17.0000  2.4018095E-04  2.6252272E-04  2.4587951E-04
  -16.0000  2.5144931E-04  2.7543734E-04  2.5762886E-04
  -15.0000  2.6373090E-04  2.8959625E-04  2.7045780E-04
  -14.0000  2.7716537E-04  3.0518437E-04  2.8451847E-04
  -13.0000  2.9191907E-04  3.2242470E-04  2.9999274E-04
  -12.0000  3.0819177E-04  3.4158849E-04  3.1709987E-04
  -11.0000  3.2622557E-04  3.6300889E-04  3.3610662E-04
  -10.0000  3.4631676E-04  3.8709956E-04  3.5734095E-04
  -9.00000  3.6883208E-04  4.1438028E-04  3.8121062E-04
  -8.00000  3.9423117E-04  4.4551298E-04  4.0822936E-04
  -7.00000  4.2309849E-04  4.8135349E-04  4.3905393E-04
  -6.00000  4.5618954E-04  5.2302764E-04  4.7453840E-04
  -5.00000  4.9450001E-04  5.7204622E-04  5.1581566E-04
  -4.00000  5.3937243E-04  6.3048451E-04  5.6442406E-04
  -3.00000  5.9266774E-04  7.0127342E-04  6.2251256E-04
  -2.00000  6.5705500E-04  7.8869477E-04  6.9318992E-04
  -1.00000  7.3653221E-04  8.9927491E-04  7.8115799E-04
   0.00000  8.3744165E-04  1.0435266E-03  8.9395962E-04
   1.00000  9.7067685E-04  1.2397184E-03  1.0447284E-03
   2.00000  1.1572787E-03  1.5233541E-03  1.2592949E-03
   3.00000  1.4463101E-03  1.9771576E-03  1.5995265E-03
   4.00000  1.9969235E-03  2.8680105E-03  2.2747446E-03
   5.00000  3.5116517E-03  5.3646205E-03  4.2400284E-03
   5.20000  3.9893043E-03  6.1422532E-03  4.8456060E-03
   5.40000  4.4750294E-03  6.9119201E-03  5.4187841E-03
   5.60000  4.9596425E-03  7.6481344E-03  5.9250588E-03
   5.80000  5.4474299E-03  8.3577571E-03  6.3630333E-03
   6.00000  5.9390822E-03  9.0584864E-03  6.7490106E-03
   6.20000  6.4270832E-03  9.7703005E-03  7.1077726E-03
   6.40000  6.9019732E-03  1.0514742E-02  7.4679528E-03
   6.60000  7.3613993E-03  1.1314658E-02  7.8589097E-03
   6.80000  7.8140695E-03  1.2192728E-02  8.3087367E-03
   7.00000  8.2766618E-03  1.3170314E-02  8.8435204E-03
   7.20000  8.7679899E-03  1.4267741E-02  9.4874333E-03
   7.40000  9.3049280E-03  1.5505541E-02  1.0262958E-02
   7.60000  9.9010647E-03  1.6905676E-02  1.1190519E-02
   7.80000  1.0566858E-02  1.8492056E-02  1.2286979E-02
   8.00000  1.1310020E-02  2.0290032E-02  1.3562655E-02
   8.20000  1.2135508E-02  2.2324611E-02  1.5016877E-02
   8.40000  1.3045065E-02  2.4617201E-02  1.6632738E-02
   8.60000  1.4036608E-02  2.7180968E-02  1.8372883E-02
   8.80000  1.5104016E-02  3.0015474E-02  2.0179406E-02
   9.00000  1.6237886E-02  3.3101904E-02  2.1981065E-02
   9.20000  1.7427461E-02  3.6400466E-02  2.3708229E-02
   9.40000  1.8663066E-02  3.9850498E-02  2.5310560E-02
   9.60000  1.9937591E-02  4.3371549E-02  2.6768426E-02
   9.80000  2.1245647E-02  4.6862811E-02  2.8091180E-02
   10.0000  2.2580688E-02  5.0200853E-02  2.9303281E-02
   10.2500  2.4270042E-02  5.3933074E-02  3.0694526E-02
   10.5000  2.5947980E-02  5.6880709E-02  3.1953352E-02
   10.7500  2.7563319E-02  5.8753069E-02  3.3045977E-02
   11.0000  2.9054661E-02  5.9362075E-02  3.3918077E-02
   11.2500  3.0359724E-02  5.8682781E-02  3.4524546E-02
   11.5000  3.1428793E-02  5.6863779E-02  3.4851663E-02
   11.7500  3.2239007E-02  5.4180694E-02  3.4923393E-02
   12.0000  3.2802160E-02  5.0958665E-02  3.4793511E-02
   12.2500  3.3160463E-02  4.7500846E-02  3.4531136E-02
   12.5000  3.3373791E-02  4.4045818E-02  3.4206635E-02
   12.7500  3.3506239E-02  4.0756008E-02  3.3881811E-02
   13.0000  3.3615489E-02  3.7725824E-02  3.3604443E-02
   13.2500  3.3746012E-02  3.4997665E-02  3.3406008E-02
   13.5000  3.3926949E-02  3.2579026E-02  3.3302415E-02
   13.7500  3.4173357E-02  3.0457019E-02  3.3297331E-02
   14.0000  3.4488864E-02  2.8608764E-02  3.3386247E-02
   14.2500  3.4868922E-02  2.7007784E-02  3.3559947E-02
   14.5000  3.5303917E-02  2.5627501E-02  3.3807063E-02
   14.7500  3.5781569E-02  2.4442990E-02  3.4115787E-02
   15.0000  3.6288520E-02  2.3431719E-02  3.4474821E-02
   15.2500  3.6811259E-02  2.2573737E-02  3.4873704E-02
   15.5000  3.7336575E-02  2.1851572E-02  3.5302682E-02
   15.7500  3.7851704E-02  2.1249998E-02  3.5752295E-02
   16.0000  3.8344289E-02  2.0755779E-02  3.6212914E-02
   16.2500  3.8802299E-02  2.0357410E-02  3.6674368E-02
   16.5000  3.9214004E-02  2.0044899E-02  3.7125827E-02
   16.7500  3.9568065E-02  1.9809576E-02  3.7555969E-02
   17.0000  3.9853809E-02  1.9643933E-02  3.7953438E-02
   17.2500  4.0061670E-02  1.9541482E-02  3.8307519E-02
   17.5000  4.0183780E-02  1.9496639E-02  3.8608881E-02
   17.7500  4.0214661E-02  1.9504606E-02  3.8850267E-02
   18.0000  4.0151891E-02  1.9561278E-02  3.9026974E-02
   18.2500  3.9996648E-02  1.9663140E-02  3.9137070E-02
   18.5000  3.9753990E-02  1.9807180E-02  3.9181299E-02
   18.7500  3.9432781E-02  1.9990799E-02  3.9162731E-02
   19.0000  3.9045191E-02  2.0211745E-02  3.9086222E-02
   19.2500  3.8605807E-02  2.0468077E-02  3.8957776E-02
   19.5000  3.8130448E-02  2.0758133E-02  3.8783907E-02
   19.7500  3.7634963E-02  2.1080470E-02  3.8571113E-02
   20.0000  3.7134437E-02  2.1433669E-02  3.8325626E-02
   21.0000  3.5351367E-02  2.3113640E-02  3.7133749E-02
   22.0000  3.4320862E-02  2.5114066E-02  3.5810793E-02
   23.0000  3.4072574E-02  2.7302784E-02  3.4485202E-02
   24.0000  3.4234396E-02  2.9524513E-02  3.3191081E-02
   25.0000  3.4287512E-02  3.1583415E-02  3.1929934E-02
   26.0000  3.3835102E-02  3.3267138E-02  3.0703523E-02
   27.0000  3.2814351E-02  3.4407763E-02  2.9534868E-02
   28.0000  3.1454776E-02  3.4943567E-02  2.8468599E-02
   29.0000  3.0036682E-02  3.4933834E-02  2.7551655E-02
   30.0000  2.8741102E-02  3.4514074E-02  2.6814986E-02
   31.0000  2.7652843E-02  3.3842244E-02  2.6267981E-02
   32.0000  2.6794682E-02  3.3058613E-02  2.5897535E-02
   33.0000  2.6151548E-02  3.2242845E-02  2.5668363E-02
   34.0000  2.5685788E-02  3.1429015E-02  2.5533825E-02
   35.0000  2.5349492E-02  3.0631499E-02  2.5445456E-02
   36.0000  2.5094697E-02  2.9856888E-02  2.5358233E-02
   37.0000  2.4880682E-02  2.9111706E-02  2.5236516E-02
   38.0000  2.4679817E-02  2.8409404E-02  2.5063088E-02
   39.0000  2.4484520E-02  2.7779439E-02  2.4850447E-02
   40.0000  2.4311768E-02  2.7272450E-02  2.4644973E-02
