    Energy   (100,001)      (010,001)      (001,110)   
  -25.0000  1.6381188E-04  1.7719825E-04  1.7482832E-04
  -24.0000  1.6973382E-04  1.8427563E-04  1.8107228E-04
  -23.0000  1.7605107E-04  1.9188326E-04  1.8773565E-04
  -22.0000  1.8280303E-04  2.0008090E-04  1.9486088E-04
  -21.0000  1.9003443E-04  2.0893746E-04  2.0249628E-04
  -20.0000  1.9779621E-04  2.1853282E-04  2.1069706E-04
  -19.0000  2.0614672E-04  2.2896001E-04  2.1952657E-04
  -18.0000  2.1515301E-04  2.4032805E-04  2.2905790E-04
  -17.0000  2.2489257E-04  2.5276545E-04  2.3937574E-04
  -16.0000  2.3545542E-04  2.6642476E-04  2.5057887E-04
  -15.0000  2.4694676E-04  2.8148829E-04  2.6278313E-04
  -14.0000  2.5949028E-04  2.9817574E-04  2.7612533E-04
  -13.0000  2.7323244E-04  3.1675409E-04  2.9076816E-04
  -12.0000  2.8834797E-04  3.3755083E-04  3.0690672E-04
  -11.0000  3.0504711E-04  3.6097191E-04  3.2477697E-04
  -10.0000  3.2358516E-04  3.8752635E-04  3.4466717E-04
  -9.00000  3.4427544E-04  4.1786060E-04  3.6693333E-04
  -8.00000  3.6750706E-04  4.5280759E-04  3.9202071E-04
  -7.00000  3.9376980E-04  4.9345813E-04  4.2049409E-04
  -6.00000  4.2368996E-04  5.4126753E-04  4.5308187E-04
  -5.00000  4.5808327E-04  5.9821956E-04  4.9074169E-04
  -4.00000  4.9803588E-04  6.6708717E-04  5.3476193E-04
  -3.00000  5.4503332E-04  7.5186411E-04  5.8692509E-04
  -2.00000  6.0117706E-04  8.5851521E-04  6.4978493E-04
  -1.00000  6.6957229E-04  9.9636259E-04  7.2716791E-04
   0.00000  7.5508460E-04  1.1808549E-03  8.2516131E-04
   1.00000  8.6599758E-04  1.4397121E-03  9.5429646E-04
   2.00000  1.0182876E-03  1.8287419E-03  1.1352172E-03
   3.00000  1.2496646E-03  2.4827974E-03  1.4173800E-03
   4.00000  1.6864883E-03  3.8505014E-03  1.9683322E-03
   5.00000  2.9047498E-03  7.9448256E-03  3.5600687E-03
   5.20000  3.2829817E-03  9.2597167E-03  4.0621318E-03
   5.40000  3.6512930E-03  1.0573552E-02  4.5517788E-03
   5.60000  3.9916376E-03  1.1834075E-02  5.0000492E-03
   5.80000  4.3020925E-03  1.3043511E-02  5.3975995E-03
   6.00000  4.5878379E-03  1.4226735E-02  5.7450611E-03
   6.20000  4.8566830E-03  1.5416557E-02  6.0509158E-03
   6.40000  5.1171449E-03  1.6651122E-02  6.3325001E-03
   6.60000  5.3773306E-03  1.7973172E-02  6.6143546E-03
   6.80000  5.6444458E-03  1.9427592E-02  6.9233811E-03
   7.00000  5.9247339E-03  2.1057873E-02  7.2835895E-03
   7.20000  6.2236046E-03  2.2903326E-02  7.7126424E-03
   7.40000  6.5458738E-03  2.4998121E-02  8.2204394E-03
   7.60000  6.8960956E-03  2.7371272E-02  8.8091937E-03
   7.80000  7.2789512E-03  3.0045525E-02  9.4747983E-03
   8.00000  7.6996283E-03  3.3033406E-02  1.0209414E-02
   8.20000  8.1640803E-03  3.6330072E-02  1.1004576E-02
   8.40000  8.6790471E-03  3.9904218E-02  1.1853560E-02
   8.60000  9.2517903E-03  4.3689456E-02  1.2752139E-02
   8.80000  9.8896078E-03  4.7578845E-02  1.3697894E-02
   9.00000  1.0599288E-02  5.1424246E-02  1.4688689E-02
   9.20000  1.1386675E-02  5.5040637E-02  1.5720629E-02
   9.40000  1.2256405E-02  5.8215554E-02  1.6785718E-02
   9.60000  1.3211651E-02  6.0726548E-02  1.7870139E-02
   9.80000  1.4253625E-02  6.2370978E-02  1.8955143E-02
   10.0000  1.5380658E-02  6.3006480E-02  2.0021855E-02
   10.2500  1.6899396E-02  6.2325130E-02  2.1310885E-02
   10.5000  1.8516386E-02  6.0164069E-02  2.2546872E-02
   10.7500  2.0190573E-02  5.6891924E-02  2.3743224E-02
   11.0000  2.1866986E-02  5.2958324E-02  2.4923056E-02
   11.2500  2.3483467E-02  4.8773219E-02  2.6109562E-02
   11.5000  2.4982028E-02  4.4644587E-02  2.7318624E-02
   11.7500  2.6323150E-02  4.0770095E-02  2.8554804E-02
   12.0000  2.7496155E-02  3.7256817E-02  2.9810729E-02
   12.2500  2.8519792E-02  3.4147725E-02  3.1069687E-02
   12.5000  2.9434540E-02  3.1444521E-02  3.2310531E-02
   12.7500  3.0291124E-02  2.9124694E-02  3.3513053E-02
   13.0000  3.1139350E-02  2.7153550E-02  3.4662254E-02
   13.2500  3.2019905E-02  2.5492189E-02  3.5750632E-02
   13.5000  3.2959943E-02  2.4102316E-02  3.6778081E-02
   13.7500  3.3972231E-02  2.2948673E-02  3.7749860E-02
   14.0000  3.5056409E-02  2.1999968E-02  3.8673522E-02
   14.2500  3.6200885E-02  2.1229084E-02  3.9555713E-02
   14.5000  3.7384819E-02  2.0612905E-02  4.0399516E-02
   14.7500  3.8580138E-02  2.0131930E-02  4.1202776E-02
   15.0000  3.9753689E-02  1.9769806E-02  4.1957559E-02
   15.2500  4.0869594E-02  1.9512835E-02  4.2650711E-02
   15.5000  4.1891826E-02  1.9349514E-02  4.3265329E-02
   15.7500  4.2786895E-02  1.9270125E-02  4.3782866E-02
   16.0000  4.3526444E-02  1.9266386E-02  4.4185537E-02
   16.2500  4.4089519E-02  1.9331168E-02  4.4458652E-02
   16.5000  4.4464228E-02  1.9458253E-02  4.4592560E-02
   16.7500  4.4648578E-02  1.9642140E-02  4.4583909E-02
   17.0000  4.4650368E-02  1.9877884E-02  4.4436080E-02
   17.2500  4.4486159E-02  2.0160960E-02  4.4158760E-02
   17.5000  4.4179486E-02  2.0487161E-02  4.3766812E-02
   17.7500  4.3758591E-02  2.0852517E-02  4.3278684E-02
   18.0000  4.3254020E-02  2.1253228E-02  4.2714670E-02
   18.2500  4.2696380E-02  2.1685625E-02  4.2095289E-02
   18.5000  4.2114488E-02  2.2146137E-02  4.1439977E-02
   18.7500  4.1534010E-02  2.2631283E-02  4.0766160E-02
   19.0000  4.0976604E-02  2.3137693E-02  4.0088691E-02
   19.2500  4.0459492E-02  2.3662164E-02  3.9419566E-02
   19.5000  3.9995368E-02  2.4201741E-02  3.8767848E-02
   19.7500  3.9592547E-02  2.4753723E-02  3.8139797E-02
   20.0000  3.9255388E-02  2.5315421E-02  3.7539324E-02
   21.0000  3.8553572E-02  2.7583037E-02  3.5451719E-02
   22.0000  3.8642511E-02  2.9679303E-02  3.3867896E-02
   23.0000  3.8911828E-02  3.1365647E-02  3.2670096E-02
   24.0000  3.8676232E-02  3.2465495E-02  3.1718394E-02
   25.0000  3.7554290E-02  3.2927182E-02  3.0913736E-02
   26.0000  3.5659151E-02  3.2835129E-02  3.0207456E-02
   27.0000  3.3443651E-02  3.2346781E-02  2.9595185E-02
   28.0000  3.1372101E-02  3.1620781E-02  2.9093496E-02
   29.0000  2.9674204E-02  3.0772737E-02  2.8698782E-02
   30.0000  2.8380736E-02  2.9879239E-02  2.8387146E-02
   31.0000  2.7429310E-02  2.8987201E-02  2.8129230E-02
   32.0000  2.6726363E-02  2.8117758E-02  2.7896502E-02
   33.0000  2.6176651E-02  2.7272402E-02  2.7661145E-02
   34.0000  2.5694346E-02  2.6441292E-02  2.7395734E-02
   35.0000  2.5206797E-02  2.5611563E-02  2.7075611E-02
   36.0000  2.4659229E-02  2.4775007E-02  2.6683809E-02
   37.0000  2.4025091E-02  2.3935438E-02  2.6216621E-02
   38.0000  2.3320164E-02  2.3116454E-02  2.5689506E-02
   39.0000  2.2611808E-02  2.2368538E-02  2.5147588E-02
   40.0000  2.2006527E-02  2.1763536E-02  2.4673624E-02
