    Energy   (100,001)      (010,001)      (001,110)   
  -25.0000  1.7122786E-04  1.8535454E-04  1.8416413E-04
  -24.0000  1.7741059E-04  1.9225552E-04  1.9066370E-04
  -23.0000  1.8401292E-04  1.9964682E-04  1.9760286E-04
  -22.0000  1.9107784E-04  2.0758136E-04  2.0502691E-04
  -21.0000  1.9865430E-04  2.1611991E-04  2.1298754E-04
  -20.0000  2.0679835E-04  2.2533252E-04  2.2154397E-04
  -19.0000  2.1557445E-04  2.3530034E-04  2.3076443E-04
  -18.0000  2.2505707E-04  2.4611794E-04  2.4072789E-04
  -17.0000  2.3533275E-04  2.5789611E-04  2.5152623E-04
  -16.0000  2.4650262E-04  2.7076553E-04  2.6326708E-04
  -15.0000  2.5868561E-04  2.8488136E-04  2.7607726E-04
  -14.0000  2.7202258E-04  3.0042920E-04  2.9010729E-04
  -13.0000  2.8668156E-04  3.1763285E-04  3.0553718E-04
  -12.0000  3.0286471E-04  3.3676464E-04  3.2258413E-04
  -11.0000  3.2081745E-04  3.5815912E-04  3.4151257E-04
  -10.0000  3.4084079E-04  3.8223182E-04  3.6264794E-04
  -9.00000  3.6330807E-04  4.0950503E-04  3.8639542E-04
  -8.00000  3.8868836E-04  4.4064422E-04  4.1326624E-04
  -7.00000  4.1757957E-04  4.7651032E-04  4.4391529E-04
  -6.00000  4.5075669E-04  5.1823671E-04  4.7919625E-04
  -5.00000  4.8924375E-04  5.6734587E-04  5.2024486E-04
  -4.00000  5.3442507E-04  6.2593185E-04  5.6860908E-04
  -3.00000  5.8822359E-04  6.9695736E-04  6.2646117E-04
  -2.00000  6.5340075E-04  7.8476100E-04  6.9696133E-04
  -1.00000  7.3409105E-04  8.9597744E-04  7.8492238E-04
   0.00000  8.3682939E-04  1.0413427E-03  8.9812918E-04
   1.00000  9.7273587E-04  1.2396334E-03  1.0502650E-03
   2.00000  1.1628785E-03  1.5276675E-03  1.2684953E-03
   3.00000  1.4546549E-03  1.9922719E-03  1.6182653E-03
   4.00000  1.9930896E-03  2.9175684E-03  2.3198366E-03
   5.00000  3.3885316E-03  5.5612860E-03  4.3784903E-03
   5.20000  3.8300165E-03  6.3894031E-03  5.0362542E-03
   5.40000  4.2903629E-03  7.2092421E-03  5.6886288E-03
   5.60000  4.7625703E-03  7.9943354E-03  6.3038384E-03
   5.80000  5.2508235E-03  8.7536621E-03  6.8760666E-03
   6.00000  5.7609760E-03  9.5069892E-03  7.4115915E-03
   6.20000  6.2990316E-03  1.0273429E-02  7.9225180E-03
   6.40000  6.8730474E-03  1.1069319E-02  8.4251498E-03
   6.60000  7.4942732E-03  1.1908632E-02  8.9389451E-03
   6.80000  8.1769241E-03  1.2803350E-02  9.4848435E-03
   7.00000  8.9371601E-03  1.3763432E-02  1.0082841E-02
   7.20000  9.7916757E-03  1.4796968E-02  1.0749340E-02
   7.40000  1.0756080E-02  1.5911743E-02  1.1495418E-02
   7.60000  1.1843071E-02  1.7118917E-02  1.2326986E-02
   7.80000  1.3060098E-02  1.8437503E-02  1.3246555E-02
   8.00000  1.4406100E-02  1.9896717E-02  1.4254949E-02
   8.20000  1.5867065E-02  2.1534362E-02  1.5351384E-02
   8.40000  1.7410797E-02  2.3392049E-02  1.6531856E-02
   8.60000  1.8982752E-02  2.5509610E-02  1.7787053E-02
   8.80000  2.0506784E-02  2.7920350E-02  1.9100855E-02
   9.00000  2.1895166E-02  3.0647109E-02  2.0449781E-02
   9.20000  2.3068782E-02  3.3697694E-02  2.1803418E-02
   9.40000  2.3980900E-02  3.7058120E-02  2.3125850E-02
   9.60000  2.4632063E-02  4.0683914E-02  2.4378258E-02
   9.80000  2.5066804E-02  4.4491709E-02  2.5523128E-02
   10.0000  2.5354508E-02  4.8352723E-02  2.6530269E-02
   10.2500  2.5614207E-02  5.2979783E-02  2.7572600E-02
   10.5000  2.5856704E-02  5.6978049E-02  2.8385228E-02
   10.7500  2.6130247E-02  5.9887842E-02  2.9016675E-02
   11.0000  2.6437739E-02  6.1337334E-02  2.9531454E-02
   11.2500  2.6758431E-02  6.1163918E-02  2.9989881E-02
   11.5000  2.7067196E-02  5.9473846E-02  3.0437878E-02
   11.7500  2.7346386E-02  5.6597661E-02  3.0903465E-02
   12.0000  2.7592209E-02  5.2972711E-02  3.1397056E-02
   12.2500  2.7815158E-02  4.9021678E-02  3.1914723E-02
   12.5000  2.8034539E-02  4.5076361E-02  3.2446100E-02
   12.7500  2.8272040E-02  4.1355026E-02  3.2982945E-02
   13.0000  2.8548039E-02  3.7975431E-02  3.3521090E-02
   13.2500  2.8878277E-02  3.4982453E-02  3.4057709E-02
   13.5000  2.9271340E-02  3.2375899E-02  3.4589465E-02
   13.7500  2.9729732E-02  3.0131332E-02  3.5112469E-02
   14.0000  3.0252489E-02  2.8213347E-02  3.5622587E-02
   14.2500  3.0836570E-02  2.6583466E-02  3.6115396E-02
   14.5000  3.1476865E-02  2.5204497E-02  3.6585953E-02
   14.7500  3.2165612E-02  2.4042668E-02  3.7028673E-02
   15.0000  3.2891798E-02  2.3068428E-02  3.7437447E-02
   15.2500  3.3640898E-02  2.2256506E-02  3.7805973E-02
   15.5000  3.4395085E-02  2.1585599E-02  3.8128191E-02
   15.7500  3.5133968E-02  2.1037910E-02  3.8398723E-02
   16.0000  3.5835814E-02  2.0598632E-02  3.8613210E-02
   16.2500  3.6479135E-02  2.0255455E-02  3.8768538E-02
   16.5000  3.7044463E-02  1.9998125E-02  3.8862965E-02
   16.7500  3.7516076E-02  1.9818046E-02  3.8896170E-02
   17.0000  3.7883410E-02  1.9707959E-02  3.8869263E-02
   17.2500  3.8141960E-02  1.9661660E-02  3.8784750E-02
   17.5000  3.8293528E-02  1.9673782E-02  3.8646436E-02
   17.7500  3.8345809E-02  1.9739623E-02  3.8459259E-02
   18.0000  3.8311421E-02  1.9855011E-02  3.8229057E-02
   18.2500  3.8206573E-02  2.0016200E-02  3.7962272E-02
   18.5000  3.8049588E-02  2.0219799E-02  3.7665635E-02
   18.7500  3.7859476E-02  2.0462722E-02  3.7345862E-02
   19.0000  3.7654704E-02  2.0742167E-02  3.7009361E-02
   19.2500  3.7452198E-02  2.1055623E-02  3.6661987E-02
   19.5000  3.7266612E-02  2.1400900E-02  3.6308825E-02
   19.7500  3.7109841E-02  2.1776097E-02  3.5954079E-02
   20.0000  3.6990861E-02  2.2179408E-02  3.5601164E-02
   21.0000  3.6985345E-02  2.4025203E-02  3.4264743E-02
   22.0000  3.7695846E-02  2.6122776E-02  3.3129574E-02
   23.0000  3.8658923E-02  2.8331870E-02  3.2193107E-02
   24.0000  3.9132025E-02  3.0495948E-02  3.1388716E-02
   25.0000  3.8509578E-02  3.2427945E-02  3.0644698E-02
   26.0000  3.6704462E-02  3.3941192E-02  2.9912591E-02
   27.0000  3.4159341E-02  3.4902830E-02  2.9175351E-02
   28.0000  3.1492880E-02  3.5277294E-02  2.8448267E-02
   29.0000  2.9157781E-02  3.5137826E-02  2.7774680E-02
   30.0000  2.7342841E-02  3.4630972E-02  2.7210416E-02
   31.0000  2.6045694E-02  3.3910500E-02  2.6799544E-02
   32.0000  2.5169625E-02  3.3094076E-02  2.6554296E-02
   33.0000  2.4590391E-02  3.2251943E-02  2.6451756E-02
   34.0000  2.4202979E-02  3.1398027E-02  2.6448399E-02
   35.0000  2.3930783E-02  3.0518655E-02  2.6497721E-02
   36.0000  2.3720992E-02  2.9601996E-02  2.6560876E-02
   37.0000  2.3541063E-02  2.8652369E-02  2.6610527E-02
   38.0000  2.3374731E-02  2.7700026E-02  2.6631467E-02
   39.0000  2.3219172E-02  2.6810280E-02  2.6622039E-02
   40.0000  2.3084330E-02  2.6080936E-02  2.6596298E-02
