    Energy   (100,001)      (010,001)      (001,110)   
  -25.0000  1.6385197E-04  1.8441426E-04  1.8353872E-04
  -24.0000  1.6966549E-04  1.9136891E-04  1.8994913E-04
  -23.0000  1.7586000E-04  1.9882319E-04  1.9678704E-04
  -22.0000  1.8247277E-04  2.0683157E-04  2.0409586E-04
  -21.0000  1.8954606E-04  2.1545664E-04  2.1192504E-04
  -20.0000  1.9712787E-04  2.2477062E-04  2.2033114E-04
  -19.0000  2.0527307E-04  2.3485729E-04  2.2937919E-04
  -18.0000  2.1404455E-04  2.4581440E-04  2.3914430E-04
  -17.0000  2.2351481E-04  2.5775664E-04  2.4971374E-04
  -16.0000  2.3376784E-04  2.7081942E-04  2.6118947E-04
  -15.0000  2.4490153E-04  2.8516378E-04  2.7369138E-04
  -14.0000  2.5703059E-04  3.0098263E-04  2.8736147E-04
  -13.0000  2.7029046E-04  3.1850895E-04  3.0236916E-04
  -12.0000  2.8484214E-04  3.3802665E-04  3.1891838E-04
  -11.0000  3.0087864E-04  3.5988515E-04  3.3725685E-04
  -10.0000  3.1863346E-04  3.8451910E-04  3.5768867E-04
  -9.00000  3.3839196E-04  4.1247586E-04  3.8059162E-04
  -8.00000  3.6050696E-04  4.4445399E-04  4.0644127E-04
  -7.00000  3.8542046E-04  4.8135882E-04  4.3584563E-04
  -6.00000  4.1369478E-04  5.2438417E-04  4.6959595E-04
  -5.00000  4.4605830E-04  5.7513615E-04  5.0874377E-04
  -4.00000  4.8347511E-04  6.3582661E-04  5.5472209E-04
  -3.00000  5.2725541E-04  7.0958733E-04  6.0954434E-04
  -2.00000  5.7923986E-04  8.0100432E-04  6.7614992E-04
  -1.00000  6.4212821E-04  9.1708087E-04  7.5904668E-04
   0.00000  7.2011798E-04  1.0691078E-03  8.6561780E-04
   1.00000  8.2029995E-04  1.2766820E-03  1.0091202E-03
   2.00000  9.5625767E-04  1.5776835E-03  1.2168261E-03
   3.00000  1.1599535E-03  2.0591761E-03  1.5583813E-03
   4.00000  1.5391198E-03  2.9943600E-03  2.2902228E-03
   5.00000  2.5781831E-03  5.5505843E-03  4.5881216E-03
   5.20000  2.8854901E-03  6.3562604E-03  5.2280948E-03
   5.40000  3.1737243E-03  7.1783490E-03  5.7769671E-03
   5.60000  3.4338076E-03  8.0023424E-03  6.2340377E-03
   5.80000  3.6726380E-03  8.8434913E-03  6.6389727E-03
   6.00000  3.9003870E-03  9.7239479E-03  7.0255338E-03
   6.20000  4.1251941E-03  1.0661983E-02  7.4074966E-03
   6.40000  4.3526497E-03  1.1669726E-02  7.7820517E-03
   6.60000  4.5866317E-03  1.2754201E-02  8.1385044E-03
   6.80000  4.8302997E-03  1.3920198E-02  8.4689175E-03
   7.00000  5.0869253E-03  1.5174256E-02  8.7777094E-03
   7.20000  5.3603825E-03  1.6527962E-02  9.0853019E-03
   7.40000  5.6552242E-03  1.7998853E-02  9.4235484E-03
   7.60000  5.9764665E-03  1.9608997E-02  9.8266050E-03
   7.80000  6.3292903E-03  2.1382759E-02  1.0323121E-02
   8.00000  6.7187854E-03  2.3344953E-02  1.0932560E-02
   8.20000  7.1497518E-03  2.5519617E-02  1.1664800E-02
   8.40000  7.6265516E-03  2.7928844E-02  1.2521099E-02
   8.60000  8.1530252E-03  3.0590782E-02  1.3495344E-02
   8.80000  8.7324667E-03  3.3515918E-02  1.4575441E-02
   9.00000  9.3676034E-03  3.6701015E-02  1.5745100E-02
   9.20000  1.0060495E-02  4.0120697E-02  1.6986013E-02
   9.40000  1.0812309E-02  4.3717693E-02  1.8279940E-02
   9.60000  1.1623060E-02  4.7394232E-02  1.9609777E-02
   9.80000  1.2491474E-02  5.1008317E-02  2.0958923E-02
   10.0000  1.3415057E-02  5.4378408E-02  2.2309115E-02
   10.2500  1.4641712E-02  5.7933730E-02  2.3964470E-02
   10.5000  1.5940814E-02  6.0397793E-02  2.5538068E-02
   10.7500  1.7302603E-02  6.1492199E-02  2.6985046E-02
   11.0000  1.8713152E-02  6.1126649E-02  2.8273444E-02
   11.2500  2.0151188E-02  5.9416064E-02  2.9385651E-02
   11.5000  2.1587860E-02  5.6639881E-02  3.0315876E-02
   11.7500  2.2990105E-02  5.3162339E-02  3.1068672E-02
   12.0000  2.4325715E-02  4.9344622E-02  3.1658561E-02
   12.2500  2.5567680E-02  4.5483674E-02  3.2107467E-02
   12.5000  2.6697244E-02  4.1788303E-02  3.2440729E-02
   12.7500  2.7705772E-02  3.8383190E-02  3.2683970E-02
   13.0000  2.8594780E-02  3.5327213E-02  3.2861925E-02
   13.2500  2.9374579E-02  3.2634417E-02  3.2998223E-02
   13.5000  3.0062946E-02  3.0291262E-02  3.3114295E-02
   13.7500  3.0683427E-02  2.8269233E-02  3.3228429E-02
   14.0000  3.1262271E-02  2.6533803E-02  3.3356899E-02
   14.2500  3.1824971E-02  2.5050223E-02  3.3515821E-02
   14.5000  3.2394061E-02  2.3786446E-02  3.3721223E-02
   14.7500  3.2988119E-02  2.2714132E-02  3.3987637E-02
   15.0000  3.3621229E-02  2.1808770E-02  3.4326568E-02
   15.2500  3.4302618E-02  2.1049441E-02  3.4745284E-02
   15.5000  3.5036471E-02  2.0418426E-02  3.5245845E-02
   15.7500  3.5821916E-02  1.9900779E-02  3.5824328E-02
   16.0000  3.6653171E-02  1.9483920E-02  3.6470296E-02
   16.2500  3.7519860E-02  1.9157254E-02  3.7166666E-02
   16.5000  3.8407490E-02  1.8911845E-02  3.7890130E-02
   16.7500  3.9298175E-02  1.8740140E-02  3.8612287E-02
   17.0000  4.0171625E-02  1.8635723E-02  3.9301549E-02
   17.2500  4.1006462E-02  1.8593131E-02  3.9925731E-02
   17.5000  4.1781803E-02  1.8607689E-02  4.0455059E-02
   17.7500  4.2479000E-02  1.8675385E-02  4.0865123E-02
   18.0000  4.3083328E-02  1.8792770E-02  4.1139269E-02
   18.2500  4.3585356E-02  1.8956874E-02  4.1269971E-02
   18.5000  4.3981770E-02  1.9165142E-02  4.1258962E-02
   18.7500  4.4275490E-02  1.9415385E-02  4.1116172E-02
   19.0000  4.4475039E-02  1.9705760E-02  4.0857768E-02
   19.2500  4.4593288E-02  2.0034765E-02  4.0503708E-02
   19.5000  4.4645779E-02  2.0401247E-02  4.0075246E-02
   19.7500  4.4648974E-02  2.0804352E-02  3.9592869E-02
   20.0000  4.4618801E-02  2.1243290E-02  3.9075099E-02
   21.0000  4.4425008E-02  2.3326320E-02  3.6950594E-02
   22.0000  4.4410211E-02  2.5834097E-02  3.5162809E-02
   23.0000  4.4380468E-02  2.8590821E-02  3.3822736E-02
   24.0000  4.3764196E-02  3.1314154E-02  3.2809199E-02
   25.0000  4.2098809E-02  3.3631193E-02  3.1977907E-02
   26.0000  3.9398949E-02  3.5194064E-02  3.1226218E-02
   27.0000  3.6182827E-02  3.5845758E-02  3.0513431E-02
   28.0000  3.3110057E-02  3.5693360E-02  2.9858359E-02
   29.0000  3.0543633E-02  3.5007050E-02  2.9298900E-02
   30.0000  2.8562099E-02  3.4056234E-02  2.8865544E-02
   31.0000  2.7106058E-02  3.3024389E-02  2.8565772E-02
   32.0000  2.6061647E-02  3.2005884E-02  2.8380254E-02
   33.0000  2.5306762E-02  3.1034248E-02  2.8272264E-02
   34.0000  2.4734028E-02  3.0110086E-02  2.8200142E-02
   35.0000  2.4258497E-02  2.9220186E-02  2.8124842E-02
   36.0000  2.3819293E-02  2.8350235E-02  2.8013236E-02
   37.0000  2.3380490E-02  2.7494436E-02  2.7841658E-02
   38.0000  2.2933051E-02  2.6664741E-02  2.7602744E-02
   39.0000  2.2498171E-02  2.5901819E-02  2.7318017E-02
   40.0000  2.2125300E-02  2.5277894E-02  2.7047677E-02
