    Energy   (100,001)      (010,001)      (001,110)   
  -25.0000  1.7109070E-04  1.7661975E-04  1.6668987E-04
  -24.0000  1.7752531E-04  1.8366530E-04  1.7322978E-04
  -23.0000  1.8441046E-04  1.9123797E-04  1.8024269E-04
  -22.0000  1.9179336E-04  1.9939711E-04  1.8777958E-04
  -21.0000  1.9972790E-04  2.0821113E-04  1.9589884E-04
  -20.0000  2.0827589E-04  2.1775930E-04  2.0466768E-04
  -19.0000  2.1750853E-04  2.2813392E-04  2.1416382E-04
  -18.0000  2.2750828E-04  2.3944314E-04  2.2447758E-04
  -17.0000  2.3837107E-04  2.5181439E-04  2.3571458E-04
  -16.0000  2.5020926E-04  2.6539890E-04  2.4799897E-04
  -15.0000  2.6315516E-04  2.8037733E-04  2.6147773E-04
  -14.0000  2.7736571E-04  2.9696726E-04  2.7632606E-04
  -13.0000  2.9302838E-04  3.1543297E-04  2.9275443E-04
  -12.0000  3.1036895E-04  3.3609842E-04  3.1101781E-04
  -11.0000  3.2966173E-04  3.5936485E-04  3.3142799E-04
  -10.0000  3.5124330E-04  3.8573484E-04  3.5437019E-04
  -9.00000  3.7553110E-04  4.1584596E-04  3.8032585E-04
  -8.00000  4.0304924E-04  4.5051841E-04  4.0990447E-04
  -7.00000  4.3446490E-04  4.9082430E-04  4.4388905E-04
  -6.00000  4.7064073E-04  5.3819062E-04  4.8330233E-04
  -5.00000  5.1271260E-04  5.9455662E-04  5.2950628E-04
  -4.00000  5.6220805E-04  6.6262234E-04  5.8435608E-04
  -3.00000  6.2123383E-04  7.4625639E-04  6.5044794E-04
  -2.00000  6.9278583E-04  8.5119672E-04  7.3153707E-04
  -1.00000  7.8129055E-04  9.8632620E-04  8.3328545E-04
   0.00000  8.9362115E-04  1.1661720E-03  9.6470721E-04
   1.00000  1.0411984E-03  1.4163120E-03  1.1412736E-03
   2.00000  1.2449856E-03  1.7868340E-03  1.3926821E-03
   3.00000  1.5502406E-03  2.3939125E-03  1.7874502E-03
   4.00000  2.0888148E-03  3.6024658E-03  2.5463913E-03
   5.00000  3.3905645E-03  6.9677837E-03  4.6386070E-03
   5.20000  3.7892399E-03  8.0381965E-03  5.2734681E-03
   5.40000  4.2026248E-03  9.1339900E-03  5.8756006E-03
   5.60000  4.6294405E-03  1.0232214E-02  6.4109601E-03
   5.80000  5.0825110E-03  1.1349299E-02  6.8830938E-03
   6.00000  5.5778373E-03  1.2515557E-02  7.3203344E-03
   6.20000  6.1293890E-03  1.3765560E-02  7.7658143E-03
   6.40000  6.7478086E-03  1.5137712E-02  8.2681703E-03
   6.60000  7.4403197E-03  1.6674179E-02  8.8727650E-03
   6.80000  8.2107629E-03  1.8418872E-02  9.6163453E-03
   7.00000  9.0593237E-03  2.0414371E-02  1.0526217E-02
   7.20000  9.9817729E-03  2.2698824E-02  1.1622496E-02
   7.40000  1.0968819E-02  2.5303019E-02  1.2921080E-02
   7.60000  1.2007521E-02  2.8247923E-02  1.4435584E-02
   7.80000  1.3087074E-02  3.1543998E-02  1.6177826E-02
   8.00000  1.4208213E-02  3.5191989E-02  1.8157129E-02
   8.20000  1.5389858E-02  3.9179845E-02  2.0377901E-02
   8.40000  1.6666050E-02  4.3469147E-02  2.2834247E-02
   8.60000  1.8074310E-02  4.7971814E-02  2.5501883E-02
   8.80000  1.9643678E-02  5.2527617E-02  2.8330465E-02
   9.00000  2.1388281E-02  5.6895755E-02  3.1240388E-02
   9.20000  2.3305715E-02  6.0769519E-02  3.4126712E-02
   9.40000  2.5376884E-02  6.3817045E-02  3.6870143E-02
   9.60000  2.7565352E-02  6.5743915E-02  3.9352089E-02
   9.80000  2.9816550E-02  6.6363224E-02  4.1470429E-02
   10.0000  3.2058278E-02  6.5648442E-02  4.3153523E-02
   10.2500  3.4714865E-02  6.3111489E-02  4.4601080E-02
   10.5000  3.7043611E-02  5.9268160E-02  4.5350007E-02
   10.7500  3.8892483E-02  5.4750070E-02  4.5503413E-02
   11.0000  4.0170996E-02  5.0089640E-02  4.5196931E-02
   11.2500  4.0869671E-02  4.5641182E-02  4.4564064E-02
   11.5000  4.1055425E-02  4.1590365E-02  4.3719787E-02
   11.7500  4.0845994E-02  3.8001997E-02  4.2756397E-02
   12.0000  4.0380025E-02  3.4870993E-02  4.1745013E-02
   12.2500  3.9792846E-02  3.2160377E-02  4.0738144E-02
   12.5000  3.9199047E-02  2.9823471E-02  3.9771964E-02
   12.7500  3.8682689E-02  2.7813466E-02  3.8870090E-02
   13.0000  3.8296189E-02  2.6086953E-02  3.8048011E-02
   13.2500  3.8064937E-02  2.4605571E-02  3.7316131E-02
   13.5000  3.7993549E-02  2.3336635E-02  3.6680845E-02
   13.7500  3.8071606E-02  2.2252968E-02  3.6144646E-02
   14.0000  3.8278132E-02  2.1332171E-02  3.5706557E-02
   14.2500  3.8584776E-02  2.0555726E-02  3.5362687E-02
   14.5000  3.8958129E-02  1.9908206E-02  3.5106413E-02
   14.7500  3.9361684E-02  1.9376674E-02  3.4928337E-02
   15.0000  3.9757880E-02  1.8950226E-02  3.4816397E-02
   15.2500  4.0110452E-02  1.8619660E-02  3.4756366E-02
   15.5000  4.0386988E-02  1.8377192E-02  3.4732731E-02
   15.7500  4.0561372E-02  1.8216215E-02  3.4729822E-02
   16.0000  4.0615689E-02  1.8131064E-02  3.4732962E-02
   16.2500  4.0541253E-02  1.8116799E-02  3.4729467E-02
   16.5000  4.0338612E-02  1.8169004E-02  3.4709344E-02
   16.7500  4.0016614E-02  1.8283615E-02  3.4665646E-02
   17.0000  3.9590791E-02  1.8456780E-02  3.4594500E-02
   17.2500  3.9081375E-02  1.8684757E-02  3.4494873E-02
   17.5000  3.8511245E-02  1.8963855E-02  3.4368130E-02
   17.7500  3.7904032E-02  1.9290401E-02  3.4217485E-02
   18.0000  3.7282531E-02  1.9660738E-02  3.4047401E-02
   18.2500  3.6667497E-02  2.0071243E-02  3.3862999E-02
   18.5000  3.6076822E-02  2.0518359E-02  3.3669536E-02
   18.7500  3.5525087E-02  2.0998650E-02  3.3471962E-02
   19.0000  3.5023394E-02  2.1508875E-02  3.3274585E-02
   19.2500  3.4579434E-02  2.2046090E-02  3.3080852E-02
   19.5000  3.4197673E-02  2.2607741E-02  3.2893212E-02
   19.7500  3.3879636E-02  2.3191661E-02  3.2713084E-02
   20.0000  3.3624238E-02  2.3795783E-02  3.2540936E-02
   21.0000  3.3143660E-02  2.6348771E-02  3.1919513E-02
   22.0000  3.3208280E-02  2.8904759E-02  3.1335549E-02
   23.0000  3.3283216E-02  3.1143004E-02  3.0683929E-02
   24.0000  3.2885506E-02  3.2805658E-02  2.9920656E-02
   25.0000  3.1838843E-02  3.3773966E-02  2.9084063E-02
   26.0000  3.0362076E-02  3.4076916E-02  2.8267256E-02
   27.0000  2.8849562E-02  3.3832824E-02  2.7567466E-02
   28.0000  2.7578410E-02  3.3189643E-02  2.7040821E-02
   29.0000  2.6618326E-02  3.2296441E-02  2.6683991E-02
   30.0000  2.5908772E-02  3.1280232E-02  2.6442882E-02
   31.0000  2.5352392E-02  3.0226274E-02  2.6236450E-02
   32.0000  2.4865357E-02  2.9175868E-02  2.5982648E-02
   33.0000  2.4393810E-02  2.8139269E-02  2.5616144E-02
   34.0000  2.3914741E-02  2.7112790E-02  2.5096032E-02
   35.0000  2.3431059E-02  2.6092766E-02  2.4408615E-02
   36.0000  2.2963092E-02  2.5084147E-02  2.3570876E-02
   37.0000  2.2536522E-02  2.4104947E-02  2.2634765E-02
   38.0000  2.2170706E-02  2.3188820E-02  2.1686215E-02
   39.0000  2.1874538E-02  2.2385877E-02  2.0830949E-02
   40.0000  2.1650639E-02  2.1754552E-02  2.0161799E-02
