    Energy   (100,001)      (010,001)      (001,110)   
  -25.0000  1.7750260E-04  1.8670106E-04  1.8905277E-04
  -24.0000  1.8351170E-04  1.9367706E-04  1.9551726E-04
  -23.0000  1.8990749E-04  2.0115178E-04  2.0240856E-04
  -22.0000  1.9672779E-04  2.0917946E-04  2.0976995E-04
  -21.0000  2.0401549E-04  2.1782236E-04  2.1765082E-04
  -20.0000  2.1181940E-04  2.2715236E-04  2.2610770E-04
  -19.0000  2.2019537E-04  2.3725278E-04  2.3520567E-04
  -18.0000  2.2920753E-04  2.4822083E-04  2.4502000E-04
  -17.0000  2.3892997E-04  2.6017052E-04  2.5563828E-04
  -16.0000  2.4944870E-04  2.7323647E-04  2.6716306E-04
  -15.0000  2.6086421E-04  2.8757867E-04  2.7971522E-04
  -14.0000  2.7329463E-04  3.0338877E-04  2.9343826E-04
  -13.0000  2.8687984E-04  3.2089817E-04  3.0850398E-04
  -12.0000  3.0178678E-04  3.4038878E-04  3.2511990E-04
  -11.0000  3.1821642E-04  3.6220747E-04  3.4353914E-04
  -10.0000  3.3641306E-04  3.8678569E-04  3.6407398E-04
  -9.00000  3.5667689E-04  4.1466662E-04  3.8711450E-04
  -8.00000  3.7938140E-04  4.4654350E-04  4.1315492E-04
  -7.00000  4.0499786E-04  4.8331476E-04  4.4283179E-04
  -6.00000  4.3413076E-04  5.2616532E-04  4.7698047E-04
  -5.00000  4.6757056E-04  5.7668988E-04  5.1672177E-04
  -4.00000  5.0637499E-04  6.3708608E-04  5.6359927E-04
  -3.00000  5.5199979E-04  7.1046909E-04  6.1980693E-04
  -2.00000  6.0652028E-04  8.0140909E-04  6.8858625E-04
  -1.00000  6.7303237E-04  9.1690605E-04  7.7496535E-04
   0.00000  7.5644398E-04  1.0683003E-03  8.8725124E-04
   1.00000  8.6522868E-04  1.2754336E-03  1.0403834E-03
   2.00000  1.0160005E-03  1.5771844E-03  1.2646662E-03
   3.00000  1.2487189E-03  2.0650479E-03  1.6340006E-03
   4.00000  1.7001146E-03  3.0377153E-03  2.3938750E-03
   5.00000  2.9907501E-03  5.8074753E-03  4.6554832E-03
   5.20000  3.3789862E-03  6.6635300E-03  5.4263021E-03
   5.40000  3.7450664E-03  7.5018069E-03  6.2584104E-03
   5.60000  4.0768830E-03  8.2976231E-03  7.1408312E-03
   5.80000  4.3834745E-03  9.0658762E-03  8.0745575E-03
   6.00000  4.6793664E-03  9.8327995E-03  9.0486393E-03
   6.20000  4.9771332E-03  1.0622903E-02  1.0028876E-02
   6.40000  5.2855875E-03  1.1457109E-02  1.0965267E-02
   6.60000  5.6097204E-03  1.2354649E-02  1.1814548E-02
   6.80000  5.9509096E-03  1.3335000E-02  1.2559631E-02
   7.00000  6.3071325E-03  1.4418576E-02  1.3209421E-02
   7.20000  6.6738217E-03  1.5626578E-02  1.3784541E-02
   7.40000  7.0460540E-03  1.6980824E-02  1.4305423E-02
   7.60000  7.4214881E-03  1.8503792E-02  1.4789156E-02
   7.80000  7.8023124E-03  2.0218587E-02  1.5250483E-02
   8.00000  8.1950520E-03  2.2148591E-02  1.5701681E-02
   8.20000  8.6087771E-03  2.4316547E-02  1.6150619E-02
   8.40000  9.0531700E-03  2.6742716E-02  1.6599037E-02
   8.60000  9.5374315E-03  2.9441543E-02  1.7042618E-02
   8.80000  1.0070042E-02  3.2416569E-02  1.7472778E-02
   9.00000  1.0658899E-02  3.5653681E-02  1.7879308E-02
   9.20000  1.1311420E-02  3.9113459E-02  1.8253217E-02
   9.40000  1.2034403E-02  4.2724378E-02  1.8589543E-02
   9.60000  1.2833629E-02  4.6379575E-02  1.8889943E-02
   9.80000  1.3713162E-02  4.9939794E-02  1.9164277E-02
   10.0000  1.4674240E-02  5.3243237E-02  1.9429773E-02
   10.2500  1.5985333E-02  5.6753844E-02  1.9781336E-02
   10.5000  1.7402197E-02  5.9295053E-02  2.0189433E-02
   10.7500  1.8896000E-02  6.0639829E-02  2.0674655E-02
   11.0000  2.0426103E-02  6.0672384E-02  2.1234721E-02
   11.2500  2.1941893E-02  5.9408908E-02  2.1849299E-02
   11.5000  2.3389122E-02  5.7010286E-02  2.2490113E-02
   11.7500  2.4718767E-02  5.3763544E-02  2.3131028E-02
   12.0000  2.5894901E-02  5.0020653E-02  2.3754191E-02
   12.2500  2.6899809E-02  4.6120087E-02  2.4350842E-02
   12.5000  2.7735322E-02  4.2327403E-02  2.4919098E-02
   12.7500  2.8420145E-02  3.8813854E-02  2.5460947E-02
   13.0000  2.8984203E-02  3.5666597E-02  2.5978973E-02
   13.2500  2.9462192E-02  3.2912378E-02  2.6474575E-02
   13.5000  2.9888194E-02  3.0540535E-02  2.6949461E-02
   13.7500  3.0292180E-02  2.8520334E-02  2.7408121E-02
   14.0000  3.0698709E-02  2.6812721E-02  2.7858797E-02
   14.2500  3.1126759E-02  2.5377474E-02  2.8313019E-02
   14.5000  3.1589400E-02  2.4176965E-02  2.8784822E-02
   14.7500  3.2093397E-02  2.3177754E-02  2.9289835E-02
   15.0000  3.2639371E-02  2.2351013E-02  2.9843974E-02
   15.2500  3.3222522E-02  2.1672360E-02  3.0461932E-02
   15.5000  3.3833535E-02  2.1121421E-02  3.1155807E-02
   15.7500  3.4459582E-02  2.0681284E-02  3.1933982E-02
   16.0000  3.5085460E-02  2.0337938E-02  3.2800132E-02
   16.2500  3.5694897E-02  2.0079761E-02  3.3752318E-02
   16.5000  3.6271983E-02  1.9897057E-02  3.4782124E-02
   16.7500  3.6802578E-02  1.9781666E-02  3.5873936E-02
   17.0000  3.7275542E-02  1.9726652E-02  3.7004542E-02
   17.2500  3.7683612E-02  1.9726054E-02  3.8143316E-02
   17.5000  3.8023789E-02  1.9774708E-02  3.9253275E-02
   17.7500  3.8297200E-02  1.9868121E-02  4.0293227E-02
   18.0000  3.8508502E-02  2.0002399E-02  4.1221056E-02
   18.2500  3.8664975E-02  2.0174193E-02  4.1997836E-02
   18.5000  3.8775493E-02  2.0380676E-02  4.2592160E-02
   18.7500  3.8849551E-02  2.0619505E-02  4.2983811E-02
   19.0000  3.8896462E-02  2.0888797E-02  4.3165888E-02
   19.2500  3.8924761E-02  2.1187099E-02  4.3144846E-02
   19.5000  3.8941829E-02  2.1513345E-02  4.2938458E-02
   19.7500  3.8953678E-02  2.1866774E-02  4.2572457E-02
   20.0000  3.8964898E-02  2.2246696E-02  4.2077124E-02
   21.0000  3.9052127E-02  2.4003847E-02  3.9442028E-02
   22.0000  3.9202839E-02  2.6056300E-02  3.6877704E-02
   23.0000  3.9249268E-02  2.8271922E-02  3.4952046E-02
   24.0000  3.8948405E-02  3.0459853E-02  3.3649434E-02
   25.0000  3.8125658E-02  3.2374958E-02  3.2794032E-02
   26.0000  3.6770088E-02  3.3778419E-02  3.2195286E-02
   27.0000  3.5053253E-02  3.4529419E-02  3.1703190E-02
   28.0000  3.3251675E-02  3.4640037E-02  3.1239021E-02
   29.0000  3.1612436E-02  3.4247642E-02  3.0795779E-02
   30.0000  3.0267549E-02  3.3534999E-02  3.0407535E-02
   31.0000  2.9241368E-02  3.2659988E-02  3.0109252E-02
   32.0000  2.8497806E-02  3.1727521E-02  2.9911796E-02
   33.0000  2.7975976E-02  3.0802291E-02  2.9799917E-02
   34.0000  2.7610489E-02  2.9925239E-02  2.9742876E-02
   35.0000  2.7346694E-02  2.9104957E-02  2.9704415E-02
   36.0000  2.7145616E-02  2.8334665E-02  2.9650600E-02
   37.0000  2.6982321E-02  2.7610566E-02  2.9553631E-02
   38.0000  2.6842340E-02  2.6939456E-02  2.9397832E-02
   39.0000  2.6719321E-02  2.6345141E-02  2.9193431E-02
   40.0000  2.6616214E-02  2.5870172E-02  2.8989157E-02
