    Energy   (100,001)      (010,001)      (001,110)   
  -25.0000  1.7000848E-04  1.8346010E-04  1.8157767E-04
  -24.0000  1.7623189E-04  1.9041853E-04  1.8818367E-04
  -23.0000  1.8288134E-04  1.9787890E-04  1.9524769E-04
  -22.0000  1.9000070E-04  2.0589611E-04  2.0281796E-04
  -21.0000  1.9763999E-04  2.1453327E-04  2.1094966E-04
  -20.0000  2.0585649E-04  2.2386322E-04  2.1970622E-04
  -19.0000  2.1471610E-04  2.3397051E-04  2.2916087E-04
  -18.0000  2.2429501E-04  2.4495380E-04  2.3939866E-04
  -17.0000  2.3468178E-04  2.5692893E-04  2.5051889E-04
  -16.0000  2.4597998E-04  2.7003276E-04  2.6263825E-04
  -15.0000  2.5831149E-04  2.8442808E-04  2.7589479E-04
  -14.0000  2.7182068E-04  3.0031006E-04  2.9045302E-04
  -13.0000  2.8667997E-04  3.1791455E-04  3.0651056E-04
  -12.0000  3.0309688E-04  3.3752918E-04  3.2430697E-04
  -11.0000  3.2132356E-04  3.5950820E-04  3.4413549E-04
  -10.0000  3.4166953E-04  3.8429266E-04  3.6635904E-04
  -9.00000  3.6451907E-04  4.1243852E-04  3.9143234E-04
  -8.00000  3.9035555E-04  4.4465610E-04  4.1993320E-04
  -7.00000  4.1979599E-04  4.8186708E-04  4.5260754E-04
  -6.00000  4.5364149E-04  5.2528856E-04  4.9043635E-04
  -5.00000  4.9295300E-04  5.7656065E-04  5.3473779E-04
  -4.00000  5.3916887E-04  6.3794637E-04  5.8732914E-04
  -3.00000  5.9429487E-04  7.1265735E-04  6.5079471E-04
  -2.00000  6.6122692E-04  8.0540996E-04  7.2895361E-04
  -1.00000  7.4433395E-04  9.2343274E-04  8.2773280E-04
   0.00000  8.5059845E-04  1.0784362E-03  9.5694467E-04
   1.00000  9.9210182E-04  1.2908852E-03  1.1343535E-03
   2.00000  1.1923328E-03  1.6007496E-03  1.3966380E-03
   3.00000  1.5063608E-03  2.1014641E-03  1.8371463E-03
   4.00000  2.1139464E-03  3.0945584E-03  2.7956903E-03
   5.00000  3.8015833E-03  5.8953202E-03  5.8356767E-03
   5.20000  4.3153736E-03  6.7650210E-03  6.6955229E-03
   5.40000  4.8142345E-03  7.6225117E-03  7.4217519E-03
   5.60000  5.2864555E-03  8.4421535E-03  7.9935048E-03
   5.80000  5.7476560E-03  9.2388291E-03  8.4664353E-03
   6.00000  6.2219633E-03  1.0041132E-02  8.9139025E-03
   6.20000  6.7327567E-03  1.0878133E-02  9.3970749E-03
   6.40000  7.3007113E-03  1.1776657E-02  9.9590576E-03
   6.60000  7.9439672E-03  1.2761745E-02  1.0628079E-02
   6.80000  8.6780288E-03  1.3856892E-02  1.1421763E-02
   7.00000  9.5145680E-03  1.5083361E-02  1.2349364E-02
   7.20000  1.0458827E-02  1.6459302E-02  1.3411282E-02
   7.40000  1.1505560E-02  1.7999552E-02  1.4596412E-02
   7.60000  1.2634215E-02  1.9716437E-02  1.5878461E-02
   7.80000  1.3805801E-02  2.1621760E-02  1.7213669E-02
   8.00000  1.4965351E-02  2.3729989E-02  1.8543468E-02
   8.20000  1.6052834E-02  2.6062088E-02  1.9804639E-02
   8.40000  1.7020859E-02  2.8648373E-02  2.0945719E-02
   8.60000  1.7851137E-02  3.1527674E-02  2.1942812E-02
   8.80000  1.8560161E-02  3.4740104E-02  2.2805961E-02
   9.00000  1.9191185E-02  3.8312331E-02  2.3572491E-02
   9.20000  1.9798385E-02  4.2236219E-02  2.4291675E-02
   9.40000  2.0431767E-02  4.6443662E-02  2.5008742E-02
   9.60000  2.1127934E-02  5.0783409E-02  2.5754642E-02
   9.80000  2.1907469E-02  5.5009420E-02  2.6543952E-02
   10.0000  2.2777027E-02  5.8792702E-02  2.7378424E-02
   10.2500  2.3982848E-02  6.2344053E-02  2.8473542E-02
   10.5000  2.5287661E-02  6.4039506E-02  2.9597484E-02
   10.7500  2.6627037E-02  6.3644730E-02  3.0705286E-02
   11.0000  2.7918328E-02  6.1378617E-02  3.1750271E-02
   11.2500  2.9081236E-02  5.7782648E-02  3.2697996E-02
   11.5000  3.0054588E-02  5.3485515E-02  3.3531299E-02
   11.7500  3.0806565E-02  4.9017471E-02  3.4247420E-02
   12.0000  3.1338221E-02  4.4735728E-02  3.4851610E-02
   12.2500  3.1679794E-02  4.0833601E-02  3.5350546E-02
   12.5000  3.1880263E-02  3.7384817E-02  3.5747791E-02
   12.7500  3.1994812E-02  3.4391618E-02  3.6044203E-02
   13.0000  3.2075344E-02  3.1822027E-02  3.6243374E-02
   13.2500  3.2164733E-02  2.9631645E-02  3.6356028E-02
   13.5000  3.2294418E-02  2.7773710E-02  3.6399466E-02
   13.7500  3.2484532E-02  2.6203479E-02  3.6394458E-02
   14.0000  3.2745291E-02  2.4880264E-02  3.6362304E-02
   14.2500  3.3078762E-02  2.3768278E-02  3.6322546E-02
   14.5000  3.3480587E-02  2.2836753E-02  3.6291203E-02
   14.7500  3.3941453E-02  2.2059659E-02  3.6279494E-02
   15.0000  3.4448327E-02  2.1415240E-02  3.6293152E-02
   15.2500  3.4985484E-02  2.0885477E-02  3.6332336E-02
   15.5000  3.5535463E-02  2.0455561E-02  3.6392153E-02
   15.7500  3.6080059E-02  2.0113393E-02  3.6463714E-02
   16.0000  3.6601427E-02  1.9849139E-02  3.6535607E-02
   16.2500  3.7083308E-02  1.9654831E-02  3.6595581E-02
   16.5000  3.7512260E-02  1.9524019E-02  3.6632201E-02
   16.7500  3.7878755E-02  1.9451473E-02  3.6636224E-02
   17.0000  3.8177944E-02  1.9432925E-02  3.6601510E-02
   17.2500  3.8409920E-02  1.9464850E-02  3.6525378E-02
   17.5000  3.8579417E-02  1.9544288E-02  3.6408448E-02
   17.7500  3.8694980E-02  1.9668702E-02  3.6254078E-02
   18.0000  3.8767747E-02  1.9835874E-02  3.6067601E-02
   18.2500  3.8810075E-02  2.0043834E-02  3.5855495E-02
   18.5000  3.8834212E-02  2.0290808E-02  3.5624636E-02
   18.7500  3.8851191E-02  2.0575201E-02  3.5381690E-02
   19.0000  3.8870045E-02  2.0895586E-02  3.5132661E-02
   19.2500  3.8897377E-02  2.1250733E-02  3.4882592E-02
   19.5000  3.8937229E-02  2.1639629E-02  3.4635390E-02
   19.7500  3.8991172E-02  2.2061439E-02  3.4393782E-02
   20.0000  3.9058478E-02  2.2515275E-02  3.4159428E-02
   21.0000  3.9381817E-02  2.4613367E-02  3.3306082E-02
   22.0000  3.9504039E-02  2.7039338E-02  3.2566519E-02
   23.0000  3.9036502E-02  2.9578137E-02  3.1865471E-02
   24.0000  3.7750158E-02  3.1925776E-02  3.1137530E-02
   25.0000  3.5718767E-02  3.3744783E-02  3.0358433E-02
   26.0000  3.3320460E-02  3.4790596E-02  2.9551783E-02
   27.0000  3.1027437E-02  3.5027080E-02  2.8775273E-02
   28.0000  2.9109510E-02  3.4636645E-02  2.8077216E-02
   29.0000  2.7627754E-02  3.3882728E-02  2.7489882E-02
   30.0000  2.6540983E-02  3.2988451E-02  2.7036053E-02
   31.0000  2.5770123E-02  3.2092413E-02  2.6722328E-02
   32.0000  2.5227306E-02  3.1253111E-02  2.6531186E-02
   33.0000  2.4830587E-02  3.0472211E-02  2.6425963E-02
   34.0000  2.4512220E-02  2.9719984E-02  2.6363275E-02
   35.0000  2.4221226E-02  2.8958175E-02  2.6302014E-02
   36.0000  2.3922616E-02  2.8158667E-02  2.6207331E-02
   37.0000  2.3597084E-02  2.7316264E-02  2.6054331E-02
   38.0000  2.3243761E-02  2.6456330E-02  2.5835617E-02
   39.0000  2.2886582E-02  2.5641028E-02  2.5573317E-02
   40.0000  2.2575269E-02  2.4965760E-02  2.5324943E-02
