    Energy   (100,001)      (010,001)      (001,110)   
  -25.0000  1.6909327E-04  1.8359497E-04  1.7841950E-04
  -24.0000  1.7530540E-04  1.9057982E-04  1.8503667E-04
  -23.0000  1.8194244E-04  1.9807046E-04  1.9211983E-04
  -22.0000  1.8904793E-04  2.0612242E-04  1.9971878E-04
  -21.0000  1.9667144E-04  2.1479960E-04  2.0789058E-04
  -20.0000  2.0486965E-04  2.2417579E-04  2.1670100E-04
  -19.0000  2.1370767E-04  2.3433670E-04  2.2622611E-04
  -18.0000  2.2326066E-04  2.4538243E-04  2.3655451E-04
  -17.0000  2.3361584E-04  2.5743057E-04  2.4778990E-04
  -16.0000  2.4487495E-04  2.7062016E-04  2.6005452E-04
  -15.0000  2.5715743E-04  2.8511676E-04  2.7349342E-04
  -14.0000  2.7060443E-04  3.0111901E-04  2.8828011E-04
  -13.0000  2.8538389E-04  3.1886719E-04  3.0462383E-04
  -12.0000  3.0169729E-04  3.3865466E-04  3.2277937E-04
  -11.0000  3.1978839E-04  3.6084310E-04  3.4306013E-04
  -10.0000  3.3995496E-04  3.8588343E-04  3.6585616E-04
  -9.00000  3.6256469E-04  4.1434469E-04  3.9165928E-04
  -8.00000  3.8807711E-04  4.4695498E-04  4.2109891E-04
  -7.00000  4.1707439E-04  4.8466042E-04  4.5499433E-04
  -6.00000  4.5030580E-04  5.2871230E-04  4.9443324E-04
  -5.00000  4.8875330E-04  5.8079941E-04  5.4089339E-04
  -4.00000  5.3373171E-04  6.4325558E-04  5.9643843E-04
  -3.00000  5.8704737E-04  7.1939775E-04  6.6404775E-04
  -2.00000  6.5126131E-04  8.1410272E-04  7.4820365E-04
  -1.00000  7.3015190E-04  9.3484942E-04  8.5601114E-04
   0.00000  8.2959189E-04  1.0937478E-03  9.9953089E-04
   1.00000  9.5938993E-04  1.3119045E-03  1.2012440E-03
   2.00000  1.1377664E-03  1.6302667E-03  1.5091181E-03
   3.00000  1.4049722E-03  2.1432084E-03  2.0494364E-03
   4.00000  1.8829066E-03  3.1475675E-03  3.2947740E-03
   5.00000  3.0772522E-03  5.9072919E-03  7.4519191E-03
   5.20000  3.4408441E-03  6.7674775E-03  8.6558165E-03
   5.40000  3.8097593E-03  7.6334515E-03  9.7055659E-03
   5.60000  4.1808745E-03  8.4894162E-03  1.0582233E-02
   5.80000  4.5657493E-03  9.3555630E-03  1.1353062E-02
   6.00000  4.9794995E-03  1.0261939E-02  1.2092995E-02
   6.20000  5.4356224E-03  1.1236706E-02  1.2854013E-02
   6.40000  5.9447825E-03  1.2304507E-02  1.3663513E-02
   6.60000  6.5146676E-03  1.3487749E-02  1.4529144E-02
   6.80000  7.1498435E-03  1.4808051E-02  1.5442151E-02
   7.00000  7.8513440E-03  1.6287300E-02  1.6378372E-02
   7.20000  8.6160484E-03  1.7948292E-02  1.7298942E-02
   7.40000  9.4362422E-03  1.9814983E-02  1.8154040E-02
   7.60000  1.0300101E-02  2.1912205E-02  1.8892629E-02
   7.80000  1.1193777E-02  2.4264571E-02  1.9477982E-02
   8.00000  1.2104887E-02  2.6894102E-02  1.9903316E-02
   8.20000  1.3025960E-02  2.9815951E-02  2.0198450E-02
   8.40000  1.3956018E-02  3.3031678E-02  2.0422292E-02
   8.60000  1.4899779E-02  3.6520500E-02  2.0645461E-02
   8.80000  1.5865466E-02  4.0229720E-02  2.0932530E-02
   9.00000  1.6862522E-02  4.4066269E-02  2.1330574E-02
   9.20000  1.7899893E-02  4.7892280E-02  2.1865166E-02
   9.40000  1.8984858E-02  5.1528367E-02  2.2541956E-02
   9.60000  2.0122356E-02  5.4767801E-02  2.3351853E-02
   9.80000  2.1315000E-02  5.7402158E-02  2.4277559E-02
   10.0000  2.2562911E-02  5.9254079E-02  2.5297941E-02
   10.2500  2.4191594E-02  6.0299447E-02  2.6668411E-02
   10.5000  2.5865544E-02  5.9897979E-02  2.8091173E-02
   10.7500  2.7528982E-02  5.8197796E-02  2.9508650E-02
   11.0000  2.9114768E-02  5.5492401E-02  3.0869496E-02
   11.2500  3.0560446E-02  5.2139037E-02  3.2128636E-02
   11.5000  3.1822229E-02  4.8482136E-02  3.3246707E-02
   11.7500  3.2882627E-02  4.4802234E-02  3.4191053E-02
   12.0000  3.3749504E-02  4.1294922E-02  3.4936832E-02
   12.2500  3.4448733E-02  3.8074256E-02  3.5469208E-02
   12.5000  3.5015301E-02  3.5190255E-02  3.5788882E-02
   12.7500  3.5486366E-02  3.2650083E-02  3.5916445E-02
   13.0000  3.5896436E-02  3.0436227E-02  3.5889047E-02
   13.2500  3.6274050E-02  2.8519688E-02  3.5752740E-02
   13.5000  3.6640766E-02  2.6868333E-02  3.5555541E-02
   13.7500  3.7012038E-02  2.5451176E-02  3.5341981E-02
   14.0000  3.7398295E-02  2.4240111E-02  3.5149261E-02
   14.2500  3.7805412E-02  2.3210397E-02  3.5005239E-02
   14.5000  3.8234805E-02  2.2340602E-02  3.4927916E-02
   14.7500  3.8683524E-02  2.1612305E-02  3.4925855E-02
   15.0000  3.9144524E-02  2.1009717E-02  3.4999094E-02
   15.2500  3.9607169E-02  2.0519298E-02  3.5140283E-02
   15.5000  4.0058026E-02  2.0129407E-02  3.5335980E-02
   15.7500  4.0481937E-02  1.9829991E-02  3.5568127E-02
   16.0000  4.0863378E-02  1.9612326E-02  3.5815727E-02
   16.2500  4.1187974E-02  1.9468800E-02  3.6056741E-02
   16.5000  4.1444055E-02  1.9392735E-02  3.6270068E-02
   16.7500  4.1623987E-02  1.9378262E-02  3.6437444E-02
   17.0000  4.1725103E-02  1.9420218E-02  3.6545002E-02
   17.2500  4.1750002E-02  1.9514073E-02  3.6584250E-02
   17.5000  4.1706183E-02  1.9655870E-02  3.6552344E-02
   17.7500  4.1605046E-02  1.9842160E-02  3.6451665E-02
   18.0000  4.1460472E-02  2.0069945E-02  3.6288840E-02
   18.2500  4.1287219E-02  2.0336596E-02  3.6073447E-02
   18.5000  4.1099404E-02  2.0639792E-02  3.5816656E-02
   18.7500  4.0909257E-02  2.0977457E-02  3.5530000E-02
   19.0000  4.0726235E-02  2.1347715E-02  3.5224392E-02
   19.2500  4.0556537E-02  2.1748891E-02  3.4909428E-02
   19.5000  4.0402950E-02  2.2179502E-02  3.4592955E-02
   19.7500  4.0264945E-02  2.2638210E-02  3.4280902E-02
   20.0000  4.0138923E-02  2.3123553E-02  3.3977410E-02
   21.0000  3.9602026E-02  2.5277962E-02  3.2892899E-02
   22.0000  3.8588607E-02  2.7607762E-02  3.2029385E-02
   23.0000  3.6802895E-02  2.9875517E-02  3.1304670E-02
   24.0000  3.4496730E-02  3.1837356E-02  3.0621580E-02
   25.0000  3.2188153E-02  3.3286020E-02  2.9930458E-02
   26.0000  3.0223039E-02  3.4112672E-02  2.9237168E-02
   27.0000  2.8635779E-02  3.4360895E-02  2.8575762E-02
   28.0000  2.7335836E-02  3.4153391E-02  2.7992974E-02
   29.0000  2.6259218E-02  3.3626605E-02  2.7530720E-02
   30.0000  2.5388068E-02  3.2906466E-02  2.7202822E-02
   31.0000  2.4718018E-02  3.2093970E-02  2.6987932E-02
   32.0000  2.4231932E-02  3.1255781E-02  2.6842880E-02
   33.0000  2.3894432E-02  3.0423260E-02  2.6719762E-02
   34.0000  2.3657780E-02  2.9601058E-02  2.6575236E-02
   35.0000  2.3469040E-02  2.8780593E-02  2.6373536E-02
   36.0000  2.3277344E-02  2.7952297E-02  2.6089316E-02
   37.0000  2.3044431E-02  2.7114827E-02  2.5712898E-02
   38.0000  2.2758235E-02  2.6284511E-02  2.5258741E-02
   39.0000  2.2443541E-02  2.5508464E-02  2.4776620E-02
   40.0000  2.2158177E-02  2.4868325E-02  2.4352086E-02
