    Energy   (100,001)      (010,001)      (001,110)   
  -25.0000  1.7275170E-04  1.7809351E-04  1.7795793E-04
  -24.0000  1.7908778E-04  1.8504972E-04  1.8468085E-04
  -23.0000  1.8586056E-04  1.9251837E-04  1.9188330E-04
  -22.0000  1.9311534E-04  2.0055644E-04  1.9961694E-04
  -21.0000  2.0090385E-04  2.0922954E-04  2.0794103E-04
  -20.0000  2.0928535E-04  2.1861357E-04  2.1692383E-04
  -19.0000  2.1832809E-04  2.2879682E-04  2.2664441E-04
  -18.0000  2.2811103E-04  2.3988253E-04  2.3719482E-04
  -17.0000  2.3872605E-04  2.5199219E-04  2.4868290E-04
  -16.0000  2.5028065E-04  2.6526967E-04  2.6123572E-04
  -15.0000  2.6290144E-04  2.7988660E-04  2.7500414E-04
  -14.0000  2.7673853E-04  2.9604926E-04  2.9016854E-04
  -13.0000  2.9197120E-04  3.1400770E-04  3.0694644E-04
  -12.0000  3.0881540E-04  3.3406779E-04  3.2560252E-04
  -11.0000  3.2753355E-04  3.5660751E-04  3.4646212E-04
  -10.0000  3.4844773E-04  3.8209920E-04  3.6992966E-04
  -9.00000  3.7195771E-04  4.1114049E-04  3.9651423E-04
  -8.00000  3.9856594E-04  4.4449816E-04  4.2686595E-04
  -7.00000  4.2891285E-04  4.8317155E-04  4.6182863E-04
  -6.00000  4.6382819E-04  5.2848668E-04  5.0251826E-04
  -5.00000  5.0440727E-04  5.8223961E-04  5.5044362E-04
  -4.00000  5.5212814E-04  6.4692217E-04  6.0769837E-04
  -3.00000  6.0903830E-04  7.2609124E-04  6.7728049E-04
  -2.00000  6.7806623E-04  8.2500178E-04  7.6365260E-04
  -1.00000  7.6357115E-04  9.5175647E-04  8.7379185E-04
   0.00000  8.7238642E-04  1.1195559E-03  1.0193316E-03
   1.00000  1.0160028E-03  1.3515688E-03  1.2214545E-03
   2.00000  1.2158143E-03  1.6931005E-03  1.5239822E-03
   3.00000  1.5186897E-03  2.2494945E-03  2.0376042E-03
   4.00000  2.0623349E-03  3.3549217E-03  3.1543043E-03
   5.00000  3.4052212E-03  6.4526315E-03  6.7185243E-03
   5.20000  3.8277621E-03  7.4353155E-03  7.8585749E-03
   5.40000  4.2742772E-03  8.4290539E-03  8.9580533E-03
   5.60000  4.7429355E-03  9.4035661E-03  9.9527744E-03
   5.80000  5.2457564E-03  1.0367492E-02  1.0834805E-02
   6.00000  5.7991031E-03  1.1345879E-02  1.1622944E-02
   6.20000  6.4191923E-03  1.2369630E-02  1.2346306E-02
   6.40000  7.1211896E-03  1.3472944E-02  1.3037796E-02
   6.60000  7.9191142E-03  1.4692584E-02  1.3730283E-02
   6.80000  8.8249377E-03  1.6067190E-02  1.4453357E-02
   7.00000  9.8457930E-03  1.7636408E-02  1.5230668E-02
   7.20000  1.0978584E-02  1.9439646E-02  1.6078184E-02
   7.40000  1.2202094E-02  2.1514225E-02  1.7003378E-02
   7.60000  1.3469090E-02  2.3893072E-02  1.8005136E-02
   7.80000  1.4705474E-02  2.6602789E-02  1.9074797E-02
   8.00000  1.5825996E-02  2.9663412E-02  2.0199397E-02
   8.20000  1.6767830E-02  3.3088799E-02  2.1366540E-02
   8.40000  1.7525211E-02  3.6882228E-02  2.2568376E-02
   8.60000  1.8160172E-02  4.1021791E-02  2.3803376E-02
   8.80000  1.8780151E-02  4.5435918E-02  2.5075439E-02
   9.00000  1.9496028E-02  4.9977471E-02  2.6390014E-02
   9.20000  2.0386908E-02  5.4410715E-02  2.7748268E-02
   9.40000  2.1489523E-02  5.8424329E-02  2.9141265E-02
   9.60000  2.2804665E-02  6.1674164E-02  3.0546299E-02
   9.80000  2.4306183E-02  6.3848178E-02  3.1928034E-02
   10.0000  2.5947315E-02  6.4738146E-02  3.3243865E-02
   10.2500  2.8098371E-02  6.3985431E-02  3.4729649E-02
   10.5000  3.0225822E-02  6.1426050E-02  3.5971945E-02
   10.7500  3.2186753E-02  5.7602336E-02  3.6929031E-02
   11.0000  3.3863070E-02  5.3126918E-02  3.7597058E-02
   11.2500  3.5179723E-02  4.8515110E-02  3.8002878E-02
   11.5000  3.6113269E-02  4.4114721E-02  3.8189272E-02
   11.7500  3.6689539E-02  4.0114888E-02  3.8201185E-02
   12.0000  3.6971477E-02  3.6589007E-02  3.8077843E-02
   12.2500  3.7040760E-02  3.3539277E-02  3.7851622E-02
   12.5000  3.6980113E-02  3.0930470E-02  3.7550674E-02
   12.7500  3.6862075E-02  2.8712862E-02  3.7201583E-02
   13.0000  3.6744050E-02  2.6835961E-02  3.6830784E-02
   13.2500  3.6667507E-02  2.5254044E-02  3.6464214E-02
   13.5000  3.6659180E-02  2.3927070E-02  3.6125921E-02
   13.7500  3.6732663E-02  2.2820307E-02  3.5836796E-02
   14.0000  3.6889879E-02  2.1903766E-02  3.5613690E-02
   14.2500  3.7122465E-02  2.1151611E-02  3.5468802E-02
   14.5000  3.7413262E-02  2.0541589E-02  3.5409203E-02
   14.7500  3.7738049E-02  2.0054523E-02  3.5436450E-02
   15.0000  3.8067651E-02  1.9673876E-02  3.5546287E-02
   15.2500  3.8370404E-02  1.9385411E-02  3.5728471E-02
   15.5000  3.8614926E-02  1.9176910E-02  3.5966844E-02
   15.7500  3.8773003E-02  1.9037975E-02  3.6239806E-02
   16.0000  3.8822282E-02  1.8959887E-02  3.6521349E-02
   16.2500  3.8748453E-02  1.8935516E-02  3.6782774E-02
   16.5000  3.8546568E-02  1.8959249E-02  3.6995089E-02
   16.7500  3.8221346E-02  1.9026914E-02  3.7131876E-02
   17.0000  3.7786396E-02  1.9135660E-02  3.7172205E-02
   17.2500  3.7262543E-02  1.9283780E-02  3.7103023E-02
   17.5000  3.6675531E-02  1.9470450E-02  3.6920498E-02
   17.7500  3.6053486E-02  1.9695434E-02  3.6630006E-02
   18.0000  3.5424486E-02  1.9958763E-02  3.6244793E-02
   18.2500  3.4814524E-02  2.0260456E-02  3.5783718E-02
   18.5000  3.4246037E-02  2.0600298E-02  3.5268579E-02
   18.7500  3.3737036E-02  2.0977720E-02  3.4721581E-02
   19.0000  3.3300783E-02  2.1391768E-02  3.4163300E-02
   19.2500  3.2945897E-02  2.1841167E-02  3.3611280E-02
   19.5000  3.2676721E-02  2.2324435E-02  3.3079269E-02
   19.7500  3.2493797E-02  2.2839947E-02  3.2577019E-02
   20.0000  3.2394331E-02  2.3385769E-02  3.2110638E-02
   21.0000  3.2688175E-02  2.5805231E-02  3.0645722E-02
   22.0000  3.3601349E-02  2.8406268E-02  2.9764478E-02
   23.0000  3.4396698E-02  3.0887306E-02  2.9242016E-02
   24.0000  3.4480879E-02  3.2893072E-02  2.8848382E-02
   25.0000  3.3658044E-02  3.4176584E-02  2.8445818E-02
   26.0000  3.2183801E-02  3.4668681E-02  2.8004076E-02
   27.0000  3.0514755E-02  3.4474359E-02  2.7565686E-02
   28.0000  2.9010191E-02  3.3804598E-02  2.7191769E-02
   29.0000  2.7824154E-02  3.2879736E-02  2.6923319E-02
   30.0000  2.6955777E-02  3.1866406E-02  2.6766541E-02
   31.0000  2.6331634E-02  3.0860919E-02  2.6692891E-02
   32.0000  2.5860957E-02  2.9899777E-02  2.6650028E-02
   33.0000  2.5464347E-02  2.8980363E-02  2.6579393E-02
   34.0000  2.5087716E-02  2.8081646E-02  2.6430759E-02
   35.0000  2.4706741E-02  2.7180314E-02  2.6169864E-02
   36.0000  2.4322941E-02  2.6262648E-02  2.5782227E-02
   37.0000  2.3952579E-02  2.5333552E-02  2.5277331E-02
   38.0000  2.3613407E-02  2.4422715E-02  2.4695054E-02
   39.0000  2.3319400E-02  2.3588889E-02  2.4109352E-02
   40.0000  2.3085655E-02  2.2913673E-02  2.3615373E-02
