    Energy   (100,001)      (010,001)      (001,110)   
  -25.0000  1.7528347E-04  1.7995197E-04  1.8262817E-04
  -24.0000  1.8154596E-04  1.8687639E-04  1.8925001E-04
  -23.0000  1.8823073E-04  1.9430445E-04  1.9632966E-04
  -22.0000  1.9538077E-04  2.0229150E-04  2.0391522E-04
  -21.0000  2.0304507E-04  2.1090117E-04  2.1206168E-04
  -20.0000  2.1127965E-04  2.2020698E-04  2.2083221E-04
  -19.0000  2.2014884E-04  2.3029427E-04  2.3029976E-04
  -18.0000  2.2972695E-04  2.4126268E-04  2.4054898E-04
  -17.0000  2.4010019E-04  2.5322923E-04  2.5167866E-04
  -16.0000  2.5136919E-04  2.6633220E-04  2.6380483E-04
  -15.0000  2.6365214E-04  2.8073621E-04  2.7706464E-04
  -14.0000  2.7708874E-04  2.9663861E-04  2.9162144E-04
  -13.0000  2.9184538E-04  3.1427801E-04  3.0767125E-04
  -12.0000  3.0812179E-04  3.3394549E-04  3.2545145E-04
  -11.0000  3.2615987E-04  3.5599962E-04  3.4525223E-04
  -10.0000  3.4625543E-04  3.8088700E-04  3.6743217E-04
  -9.00000  3.6877419E-04  4.0917060E-04  3.9243969E-04
  -8.00000  3.9417382E-04  4.4156980E-04  4.2084319E-04
  -7.00000  4.2303510E-04  4.7901798E-04  4.5337421E-04
  -6.00000  4.5610672E-04  5.2274744E-04  4.9099094E-04
  -5.00000  4.9437165E-04  5.7441798E-04  5.3497411E-04
  -4.00000  5.3914847E-04  6.3631793E-04  5.8707682E-04
  -3.00000  5.9225172E-04  7.1169050E-04  6.4976774E-04
  -2.00000  6.5625743E-04  8.0528829E-04  7.2664480E-04
  -1.00000  7.3496796E-04  9.2437070E-04  8.2318064E-04
   0.00000  8.3428631E-04  1.0806347E-03  9.4816747E-04
   1.00000  9.6402823E-04  1.2943412E-03  1.1167999E-03
   2.00000  1.1422364E-03  1.6044725E-03  1.3581916E-03
   3.00000  1.4079024E-03  2.0998059E-03  1.7377428E-03
   4.00000  1.8743819E-03  3.0543749E-03  2.4490611E-03
   5.00000  2.9967750E-03  5.6255082E-03  4.2882712E-03
   5.20000  3.3423300E-03  6.4414897E-03  4.9067816E-03
   5.40000  3.7020137E-03  7.2841834E-03  5.5952202E-03
   5.60000  4.0733369E-03  8.1399041E-03  6.3531192E-03
   5.80000  4.4658123E-03  9.0234087E-03  7.1920219E-03
   6.00000  4.8929123E-03  9.9569164E-03  8.1259851E-03
   6.20000  5.3685364E-03  1.0960091E-02  9.1661546E-03
   6.40000  5.9065198E-03  1.2047741E-02  1.0318217E-02
   6.60000  6.5208966E-03  1.3229968E-02  1.1580700E-02
   6.80000  7.2259235E-03  1.4513310E-02  1.2944212E-02
   7.00000  8.0353289E-03  1.5903305E-02  1.4392696E-02
   7.20000  8.9602722E-03  1.7408797E-02  1.5906829E-02
   7.40000  1.0005556E-02  1.9046749E-02  1.7466677E-02
   7.60000  1.1164070E-02  2.0844575E-02  1.9048522E-02
   7.80000  1.2410820E-02  2.2837451E-02  2.0614065E-02
   8.00000  1.3700202E-02  2.5061398E-02  2.2099470E-02
   8.20000  1.4971487E-02  2.7545465E-02  2.3418546E-02
   8.40000  1.6164445E-02  3.0305937E-02  2.4488721E-02
   8.60000  1.7239090E-02  3.3343735E-02  2.5269064E-02
   8.80000  1.8187793E-02  3.6645004E-02  2.5782901E-02
   9.00000  1.9032585E-02  4.0183393E-02  2.6106467E-02
   9.20000  1.9811734E-02  4.3919683E-02  2.6333394E-02
   9.40000  2.0566416E-02  4.7794900E-02  2.6539940E-02
   9.60000  2.1334632E-02  5.1716057E-02  2.6767537E-02
   9.80000  2.2149511E-02  5.5536282E-02  2.7024662E-02
   10.0000  2.3034698E-02  5.9039033E-02  2.7299798E-02
   10.2500  2.4249747E-02  6.2541320E-02  2.7645521E-02
   10.5000  2.5561313E-02  6.4536342E-02  2.7983755E-02
   10.7500  2.6914458E-02  6.4631102E-02  2.8331790E-02
   11.0000  2.8242434E-02  6.2799108E-02  2.8720645E-02
   11.2500  2.9487635E-02  5.9399767E-02  2.9174952E-02
   11.5000  3.0614580E-02  5.5020836E-02  2.9703183E-02
   11.7500  3.1610029E-02  5.0262153E-02  3.0299714E-02
   12.0000  3.2476443E-02  4.5586852E-02  3.0950208E-02
   12.2500  3.3225394E-02  4.1277762E-02  3.1633435E-02
   12.5000  3.3872353E-02  3.7464570E-02  3.2321410E-02
   12.7500  3.4431948E-02  3.4174981E-02  3.2982803E-02
   13.0000  3.4915222E-02  3.1380857E-02  3.3588405E-02
   13.2500  3.5329898E-02  2.9029621E-02  3.4115942E-02
   13.5000  3.5682366E-02  2.7061989E-02  3.4553704E-02
   13.7500  3.5979971E-02  2.5420558E-02  3.4902328E-02
   14.0000  3.6232162E-02  2.4053564E-02  3.5173933E-02
   14.2500  3.6449168E-02  2.2916500E-02  3.5389167E-02
   14.5000  3.6639498E-02  2.1972458E-02  3.5573080E-02
   14.7500  3.6808735E-02  2.1191431E-02  3.5750634E-02
   15.0000  3.6959651E-02  2.0549148E-02  3.5942765E-02
   15.2500  3.7092573E-02  2.0026010E-02  3.6163612E-02
   15.5000  3.7205706E-02  1.9606258E-02  3.6418971E-02
   15.7500  3.7295502E-02  1.9277321E-02  3.6705869E-02
   16.0000  3.7357174E-02  1.9029261E-02  3.7013146E-02
   16.2500  3.7385374E-02  1.8854293E-02  3.7322974E-02
   16.5000  3.7374965E-02  1.8746349E-02  3.7613196E-02
   16.7500  3.7321825E-02  1.8700683E-02  3.7860271E-02
   17.0000  3.7223587E-02  1.8713521E-02  3.8042450E-02
   17.2500  3.7080221E-02  1.8781738E-02  3.8142696E-02
   17.5000  3.6894348E-02  1.8902604E-02  3.8150819E-02
   17.7500  3.6671269E-02  1.9073571E-02  3.8064472E-02
   18.0000  3.6418658E-02  1.9292138E-02  3.7888865E-02
   18.2500  3.6146020E-02  1.9555762E-02  3.7635401E-02
   18.5000  3.5863971E-02  1.9861833E-02  3.7319633E-02
   18.7500  3.5583468E-02  2.0207685E-02  3.6959029E-02
   19.0000  3.5315084E-02  2.0590652E-02  3.6570945E-02
   19.2500  3.5068388E-02  2.1008157E-02  3.6171053E-02
   19.5000  3.4851466E-02  2.1457820E-02  3.5772305E-02
   19.7500  3.4670616E-02  2.1937490E-02  3.5384447E-02
   20.0000  3.4530259E-02  2.2445058E-02  3.5014090E-02
   21.0000  3.4409763E-02  2.4695467E-02  3.3764855E-02
   22.0000  3.4940502E-02  2.7149641E-02  3.2864022E-02
   23.0000  3.5811519E-02  2.9629063E-02  3.2131227E-02
   24.0000  3.6477756E-02  3.1923833E-02  3.1386490E-02
   25.0000  3.6362916E-02  3.3770922E-02  3.0554805E-02
   26.0000  3.5224744E-02  3.4930159E-02  2.9673413E-02
   27.0000  3.3328297E-02  3.5331801E-02  2.8827263E-02
   28.0000  3.1224164E-02  3.5071170E-02  2.8098990E-02
   29.0000  2.9367430E-02  3.4333517E-02  2.7540658E-02
   30.0000  2.7952839E-02  3.3321040E-02  2.7163047E-02
   31.0000  2.6976061E-02  3.2199485E-02  2.6940913E-02
   32.0000  2.6344743E-02  3.1075030E-02  2.6827973E-02
   33.0000  2.5950097E-02  2.9997050E-02  2.6773378E-02
   34.0000  2.5696537E-02  2.8974308E-02  2.6732578E-02
   35.0000  2.5508974E-02  2.7994166E-02  2.6671045E-02
   36.0000  2.5333240E-02  2.7039914E-02  2.6563736E-02
   37.0000  2.5136207E-02  2.6104786E-02  2.6394740E-02
   38.0000  2.4906536E-02  2.5203541E-02  2.6161545E-02
   39.0000  2.4657997E-02  2.4382030E-02  2.5886664E-02
   40.0000  2.4431580E-02  2.3715194E-02  2.5627433E-02
