    Energy   (100,001)      (010,001)      (001,110)   
  -25.0000  1.6550802E-04  1.7944588E-04  1.7854868E-04
  -24.0000  1.7154523E-04  1.8632501E-04  1.8494869E-04
  -23.0000  1.7798955E-04  1.9370274E-04  1.9178104E-04
  -22.0000  1.8488201E-04  2.0163370E-04  1.9908979E-04
  -21.0000  1.9226926E-04  2.1018068E-04  2.0692512E-04
  -20.0000  2.0020455E-04  2.1941615E-04  2.1534443E-04
  -19.0000  2.0874895E-04  2.2942426E-04  2.2441366E-04
  -18.0000  2.1797278E-04  2.4030319E-04  2.3420894E-04
  -17.0000  2.2795750E-04  2.5216821E-04  2.4481864E-04
  -16.0000  2.3879793E-04  2.6515553E-04  2.5634592E-04
  -15.0000  2.5060514E-04  2.7942718E-04  2.6891197E-04
  -14.0000  2.6351011E-04  2.9517740E-04  2.8266013E-04
  -13.0000  2.7766835E-04  3.1264098E-04  2.9776116E-04
  -12.0000  2.9326602E-04  3.3210426E-04  3.1442026E-04
  -11.0000  3.1052788E-04  3.5391994E-04  3.3288613E-04
  -10.0000  3.2972794E-04  3.7852731E-04  3.5346341E-04
  -9.00000  3.5120394E-04  4.0648021E-04  3.7652941E-04
  -8.00000  3.7537730E-04  4.3848659E-04  4.0255761E-04
  -7.00000  4.0278137E-04  4.7546559E-04  4.3215100E-04
  -6.00000  4.3410218E-04  5.1863194E-04  4.6609088E-04
  -5.00000  4.7023922E-04  5.6962429E-04  5.0541026E-04
  -4.00000  5.1239904E-04  6.3070706E-04  5.5150856E-04
  -3.00000  5.6224550E-04  7.0510044E-04  6.0633879E-04
  -2.00000  6.2215378E-04  7.9754682E-04  6.7273006E-04
  -1.00000  6.9566821E-04  9.1534356E-04  7.5498349E-04
   0.00000  7.8840015E-04  1.0703800E-03  8.6007695E-04
   1.00000  9.1000045E-04  1.2836061E-03  1.0004174E-03
   2.00000  1.0792437E-03  1.5964456E-03  1.2013038E-03
   3.00000  1.3406581E-03  2.1075637E-03  1.5269969E-03
   4.00000  1.8432331E-03  3.1442913E-03  2.2145005E-03
   5.00000  3.2611619E-03  6.1526402E-03  4.3662558E-03
   5.20000  3.7013782E-03  7.0690409E-03  4.9620767E-03
   5.40000  4.1311104E-03  7.9474142E-03  5.4474169E-03
   5.60000  4.5324945E-03  8.7632576E-03  5.8027692E-03
   5.80000  4.9067009E-03  9.5412147E-03  6.0644319E-03
   6.00000  5.2618718E-03  1.0318937E-02  6.2821521E-03
   6.20000  5.6077443E-03  1.1129682E-02  6.4980215E-03
   6.40000  5.9542224E-03  1.1999309E-02  6.7424456E-03
   6.60000  6.3107481E-03  1.2948421E-02  7.0362514E-03
   6.80000  6.6858082E-03  1.3995509E-02  7.3935503E-03
   7.00000  7.0865760E-03  1.5159626E-02  7.8236048E-03
   7.20000  7.5187070E-03  1.6462097E-02  8.3315285E-03
   7.40000  7.9863047E-03  1.7927247E-02  8.9182568E-03
   7.60000  8.4920703E-03  1.9582108E-02  9.5804012E-03
   7.80000  9.0376375E-03  2.1455002E-02  1.0310499E-02
   8.00000  9.6240143E-03  2.3573159E-02  1.1097863E-02
   8.20000  1.0251990E-02  2.5959582E-02  1.1930014E-02
   8.40000  1.0922407E-02  2.8629090E-02  1.2794577E-02
   8.60000  1.1636260E-02  3.1583358E-02  1.3681432E-02
   8.80000  1.2394673E-02  3.4804978E-02  1.4584692E-02
   9.00000  1.3198852E-02  3.8250939E-02  1.5503529E-02
   9.20000  1.4050159E-02  4.1846263E-02  1.6441071E-02
   9.40000  1.4950057E-02  4.5478953E-02  1.7401901E-02
   9.60000  1.5899649E-02  4.8998835E-02  1.8389438E-02
   9.80000  1.6898775E-02  5.2224226E-02  1.9404251E-02
   10.0000  1.7944833E-02  5.4959467E-02  2.0443807E-02
   10.2500  1.9308636E-02  5.7415603E-02  2.1770795E-02
   10.5000  2.0715088E-02  5.8577010E-02  2.3119014E-02
   10.7500  2.2136019E-02  5.8380442E-02  2.4481638E-02
   11.0000  2.3542480E-02  5.6954225E-02  2.5856230E-02
   11.2500  2.4912061E-02  5.4563028E-02  2.7242315E-02
   11.5000  2.6230683E-02  5.1530596E-02  2.8637928E-02
   11.7500  2.7490235E-02  4.8171257E-02  3.0036429E-02
   12.0000  2.8685883E-02  4.4745058E-02  3.1424338E-02
   12.2500  2.9814382E-02  4.1439793E-02  3.2781572E-02
   12.5000  3.0873343E-02  3.8373221E-02  3.4083865E-02
   12.7500  3.1861333E-02  3.5605858E-02  3.5305988E-02
   13.0000  3.2778854E-02  3.3157564E-02  3.6425982E-02
   13.2500  3.3629318E-02  3.1023046E-02  3.7429543E-02
   13.5000  3.4418953E-02  2.9183052E-02  3.8312359E-02
   13.7500  3.5155915E-02  2.7611496E-02  3.9080019E-02
   14.0000  3.5849230E-02  2.6279933E-02  3.9746291E-02
   14.2500  3.6507778E-02  2.5160308E-02  4.0330379E-02
   14.5000  3.7139310E-02  2.4226466E-02  4.0853709E-02
   14.7500  3.7749550E-02  2.3454861E-02  4.1336812E-02
   15.0000  3.8341433E-02  2.2824759E-02  4.1796699E-02
   15.2500  3.8914538E-02  2.2318175E-02  4.2244957E-02
   15.5000  3.9464775E-02  2.1919653E-02  4.2686609E-02
   15.7500  3.9984380E-02  2.1615989E-02  4.3119718E-02
   16.0000  4.0462294E-02  2.1395908E-02  4.3535702E-02
   16.2500  4.0884985E-02  2.1249779E-02  4.3920337E-02
   16.5000  4.1237733E-02  2.1169340E-02  4.4255426E-02
   16.7500  4.1506281E-02  2.1147487E-02  4.4521012E-02
   17.0000  4.1678705E-02  2.1178080E-02  4.4697916E-02
   17.2500  4.1747209E-02  2.1255806E-02  4.4770238E-02
   17.5000  4.1709555E-02  2.1376056E-02  4.4727422E-02
   17.7500  4.1569841E-02  2.1534832E-02  4.4565528E-02
   18.0000  4.1338474E-02  2.1728675E-02  4.4287520E-02
   18.2500  4.1031332E-02  2.1954601E-02  4.3902602E-02
   18.5000  4.0668300E-02  2.2210055E-02  4.3424830E-02
   18.7500  4.0271426E-02  2.2492872E-02  4.2871330E-02
   19.0000  3.9863016E-02  2.2801263E-02  4.2260456E-02
   19.2500  3.9463901E-02  2.3133805E-02  4.1610112E-02
   19.5000  3.9092054E-02  2.3489442E-02  4.0936429E-02
   19.7500  3.8761673E-02  2.3867417E-02  4.0252927E-02
   20.0000  3.8482851E-02  2.4267034E-02  3.9570396E-02
   21.0000  3.7967571E-02  2.6051900E-02  3.7005701E-02
   22.0000  3.8324901E-02  2.8026474E-02  3.4894196E-02
   23.0000  3.9081142E-02  2.9991506E-02  3.3229269E-02
   24.0000  3.9591190E-02  3.1688454E-02  3.1894588E-02
   25.0000  3.9291170E-02  3.2893099E-02  3.0777072E-02
   26.0000  3.7926546E-02  3.3507464E-02  2.9797904E-02
   27.0000  3.5702512E-02  3.3577421E-02  2.8927603E-02
   28.0000  3.3159955E-02  3.3241651E-02  2.8184006E-02
   29.0000  3.0785329E-02  3.2649734E-02  2.7592606E-02
   30.0000  2.8833710E-02  3.1919341E-02  2.7167086E-02
   31.0000  2.7354806E-02  3.1128093E-02  2.6899954E-02
   32.0000  2.6278167E-02  3.0318121E-02  2.6759734E-02
   33.0000  2.5490961E-02  2.9504721E-02  2.6698228E-02
   34.0000  2.4882633E-02  2.8685768E-02  2.6660775E-02
   35.0000  2.4361883E-02  2.7851331E-02  2.6594376E-02
   36.0000  2.3860989E-02  2.6993338E-02  2.6454147E-02
   37.0000  2.3338547E-02  2.6115317E-02  2.6210405E-02
   38.0000  2.2785346E-02  2.5242386E-02  2.5859545E-02
   39.0000  2.2233889E-02  2.4430832E-02  2.5440971E-02
   40.0000  2.1757010E-02  2.3766122E-02  2.5046253E-02
