    Energy   (100,001)      (010,001)      (001,110)   
  -25.0000  1.6724095E-04  1.8679395E-04  1.7722369E-04
  -24.0000  1.7335783E-04  1.9369533E-04  1.8376748E-04
  -23.0000  1.7989111E-04  2.0108599E-04  1.9076659E-04
  -22.0000  1.8688321E-04  2.0901878E-04  1.9826880E-04
  -21.0000  1.9438245E-04  2.1755439E-04  2.0632870E-04
  -20.0000  2.0244405E-04  2.2676278E-04  2.1500897E-04
  -19.0000  2.1113139E-04  2.3672503E-04  2.2438188E-04
  -18.0000  2.2051758E-04  2.4753566E-04  2.3453124E-04
  -17.0000  2.3068742E-04  2.5930542E-04  2.4555473E-04
  -16.0000  2.4173973E-04  2.7216499E-04  2.5756693E-04
  -15.0000  2.5379048E-04  2.8626958E-04  2.7070307E-04
  -14.0000  2.6697654E-04  3.0180490E-04  2.8512393E-04
  -13.0000  2.8146069E-04  3.1899501E-04  3.0102211E-04
  -12.0000  2.9743801E-04  3.3811258E-04  3.1863037E-04
  -11.0000  3.1514428E-04  3.5949279E-04  3.3823260E-04
  -10.0000  3.3486728E-04  3.8355203E-04  3.6017872E-04
  -9.00000  3.5696195E-04  4.1081393E-04  3.8490521E-04
  -8.00000  3.8187136E-04  4.4194581E-04  4.1296373E-04
  -7.00000  4.1015622E-04  4.7781124E-04  4.4506227E-04
  -6.00000  4.4253717E-04  5.1954717E-04  4.8212548E-04
  -5.00000  4.7995745E-04  5.6868079E-04  5.2538606E-04
  -4.00000  5.2367829E-04  6.2731184E-04  5.7652799E-04
  -3.00000  5.7542998E-04  6.9840854E-04  6.3792089E-04
  -2.00000  6.3766269E-04  7.8631068E-04  7.1302399E-04
  -1.00000  7.1398807E-04  8.9763662E-04  8.0713029E-04
   0.00000  8.1002000E-04  1.0430473E-03  9.2885999E-04
   1.00000  9.3515501E-04  1.2410490E-03  1.0935246E-03
   2.00000  1.1069691E-03  1.5274968E-03  1.3320361E-03
   3.00000  1.3649693E-03  1.9853886E-03  1.7208917E-03
   4.00000  1.8333397E-03  2.8795138E-03  2.5279901E-03
   5.00000  3.0419934E-03  5.3524673E-03  5.0200788E-03
   5.20000  3.4006077E-03  6.1165319E-03  5.8164817E-03
   5.40000  3.7474648E-03  6.8737833E-03  6.5792351E-03
   5.60000  4.0752739E-03  7.6061590E-03  7.2449974E-03
   5.80000  4.3949496E-03  8.3294221E-03  7.7869547E-03
   6.00000  4.7224190E-03  9.0687190E-03  8.2099876E-03
   6.20000  5.0720422E-03  9.8471697E-03  8.5472366E-03
   6.40000  5.4550336E-03  1.0684284E-02  8.8491408E-03
   6.60000  5.8798851E-03  1.1597931E-02  9.1670000E-03
   6.80000  6.3533404E-03  1.2606684E-02  9.5409932E-03
   7.00000  6.8812293E-03  1.3731314E-02  9.9971903E-03
   7.20000  7.4689723E-03  1.4995245E-02  1.0551120E-02
   7.40000  8.1218959E-03  1.6424064E-02  1.1213354E-02
   7.60000  8.8455156E-03  1.8043955E-02  1.1993593E-02
   7.80000  9.6457367E-03  1.9878753E-02  1.2901475E-02
   8.00000  1.0528753E-02  2.1945415E-02  1.3944175E-02
   8.20000  1.1500490E-02  2.4248267E-02  1.5122374E-02
   8.40000  1.2565629E-02  2.6773383E-02  1.6427008E-02
   8.60000  1.3726353E-02  2.9486017E-02  1.7839040E-02
   8.80000  1.4980988E-02  3.2335060E-02  1.9333194E-02
   9.00000  1.6322709E-02  3.5265970E-02  2.0884047E-02
   9.20000  1.7738661E-02  3.8236080E-02  2.2470773E-02
   9.40000  1.9210257E-02  4.1220328E-02  2.4077441E-02
   9.60000  2.0714686E-02  4.4200776E-02  2.5688867E-02
   9.80000  2.2226586E-02  4.7144971E-02  2.7285674E-02
   10.0000  2.3719406E-02  4.9984407E-02  2.8842697E-02
   10.2500  2.5518004E-02  5.3206007E-02  3.0689538E-02
   10.5000  2.7195456E-02  5.5770925E-02  3.2377428E-02
   10.7500  2.8707974E-02  5.7352067E-02  3.3868951E-02
   11.0000  3.0020029E-02  5.7713772E-02  3.5147852E-02
   11.2500  3.1106812E-02  5.6801381E-02  3.6221185E-02
   11.5000  3.1958691E-02  5.4763790E-02  3.7116566E-02
   11.7500  3.2585904E-02  5.1899049E-02  3.7870379E-02
   12.0000  3.3017012E-02  4.8559273E-02  3.8511125E-02
   12.2500  3.3290642E-02  4.5065020E-02  3.9050585E-02
   12.5000  3.3448036E-02  4.1657055E-02  3.9487725E-02
   12.7500  3.3529633E-02  3.8486303E-02  3.9818663E-02
   13.0000  3.3573650E-02  3.5628137E-02  4.0045266E-02
   13.2500  3.3614582E-02  3.3105469E-02  4.0177472E-02
   13.5000  3.3681850E-02  3.0910168E-02  4.0230968E-02
   13.7500  3.3799430E-02  2.9018098E-02  4.0224995E-02
   14.0000  3.3985802E-02  2.7398257E-02  4.0180482E-02
   14.2500  3.4253531E-02  2.6018132E-02  4.0117363E-02
   14.5000  3.4608622E-02  2.4846679E-02  4.0051674E-02
   14.7500  3.5050084E-02  2.3855795E-02  3.9993414E-02
   15.0000  3.5569901E-02  2.3020856E-02  3.9945628E-02
   15.2500  3.6153511E-02  2.2320740E-02  3.9904663E-02
   15.5000  3.6780774E-02  2.1737588E-02  3.9861369E-02
   15.7500  3.7427463E-02  2.1256460E-02  3.9802920E-02
   16.0000  3.8067245E-02  2.0864957E-02  3.9714991E-02
   16.2500  3.8674049E-02  2.0552860E-02  3.9583971E-02
   16.5000  3.9224578E-02  2.0311790E-02  3.9398919E-02
   16.7500  3.9700640E-02  2.0134901E-02  3.9152997E-02
   17.0000  4.0090884E-02  2.0016587E-02  3.8844204E-02
   17.2500  4.0391638E-02  1.9952223E-02  3.8475356E-02
   17.5000  4.0606680E-02  1.9937926E-02  3.8053431E-02
   17.7500  4.0746042E-02  1.9970363E-02  3.7588477E-02
   18.0000  4.0824097E-02  2.0046591E-02  3.7092356E-02
   18.2500  4.0857337E-02  2.0163942E-02  3.6577536E-02
   18.5000  4.0862241E-02  2.0319945E-02  3.6056083E-02
   18.7500  4.0853522E-02  2.0512289E-02  3.5538927E-02
   19.0000  4.0842944E-02  2.0738816E-02  3.5035378E-02
   19.2500  4.0838714E-02  2.0997555E-02  3.4552864E-02
   19.5000  4.0845376E-02  2.1286767E-02  3.4096815E-02
   19.7500  4.0864042E-02  2.1604949E-02  3.3670723E-02
   20.0000  4.0892762E-02  2.1950698E-02  3.3276402E-02
   21.0000  4.0989462E-02  2.3572437E-02  3.2022160E-02
   22.0000  4.0691479E-02  2.5488998E-02  3.1235470E-02
   23.0000  3.9628243E-02  2.7596854E-02  3.0775417E-02
   24.0000  3.7735278E-02  2.9751455E-02  3.0477301E-02
   25.0000  3.5238952E-02  3.1738906E-02  3.0184760E-02
   26.0000  3.2502910E-02  3.3317764E-02  2.9780049E-02
   27.0000  2.9878574E-02  3.4314212E-02  2.9219275E-02
   28.0000  2.7618487E-02  3.4694282E-02  2.8540539E-02
   29.0000  2.5849471E-02  3.4560637E-02  2.7838254E-02
   30.0000  2.4581151E-02  3.4084452E-02  2.7210882E-02
   31.0000  2.3733494E-02  3.3415725E-02  2.6702865E-02
   32.0000  2.3198212E-02  3.2654492E-02  2.6308417E-02
   33.0000  2.2875491E-02  3.1857583E-02  2.5996051E-02
   34.0000  2.2682159E-02  3.1051161E-02  2.5725648E-02
   35.0000  2.2552189E-02  3.0244072E-02  2.5459705E-02
   36.0000  2.2436130E-02  2.9439169E-02  2.5170466E-02
   37.0000  2.2301538E-02  2.8642046E-02  2.4844913E-02
   38.0000  2.2136002E-02  2.7869446E-02  2.4488512E-02
   39.0000  2.1951997E-02  2.7160494E-02  2.4127798E-02
   40.0000  2.1783247E-02  2.6581968E-02  2.3812320E-02
