    Energy   (100,001)      (010,001)      (001,110)   
  -25.0000  1.6796520E-04  1.7892060E-04  1.7883375E-04
  -24.0000  1.7386560E-04  1.8593563E-04  1.8503643E-04
  -23.0000  1.8015267E-04  1.9346794E-04  1.9164849E-04
  -22.0000  1.8686447E-04  2.0157501E-04  1.9871094E-04
  -21.0000  1.9404418E-04  2.1032300E-04  2.0627044E-04
  -20.0000  2.0174094E-04  2.1978843E-04  2.1438028E-04
  -19.0000  2.1001096E-04  2.3006028E-04  2.2310156E-04
  -18.0000  2.1891879E-04  2.4124258E-04  2.3250474E-04
  -17.0000  2.2853896E-04  2.5345768E-04  2.4267146E-04
  -16.0000  2.3895796E-04  2.6685046E-04  2.5369687E-04
  -15.0000  2.5027678E-04  2.8159365E-04  2.6569256E-04
  -14.0000  2.6261408E-04  2.9789476E-04  2.7879029E-04
  -13.0000  2.7611022E-04  3.1600525E-04  2.9314678E-04
  -12.0000  2.9093254E-04  3.3623255E-04  3.0894999E-04
  -11.0000  3.0728227E-04  3.5895639E-04  3.2642743E-04
  -10.0000  3.2540357E-04  3.8465106E-04  3.4585724E-04
  -9.00000  3.4559598E-04  4.1391638E-04  3.6758345E-04
  -8.00000  3.6823125E-04  4.4752156E-04  3.9203711E-04
  -7.00000  3.9377719E-04  4.8646878E-04  4.1976654E-04
  -6.00000  4.2283179E-04  5.3208742E-04  4.5148143E-04
  -5.00000  4.5617365E-04  5.8617797E-04  4.8811957E-04
  -4.00000  4.9483908E-04  6.5123888E-04  5.3095111E-04
  -3.00000  5.4024454E-04  7.3083896E-04  5.8174955E-04
  -2.00000  5.9439132E-04  8.3025798E-04  6.4308733E-04
  -1.00000  6.6022953E-04  9.5765695E-04  7.1888427E-04
   0.00000  7.4236053E-04  1.1263863E-03  8.1551995E-04
   1.00000  8.4855140E-04  1.3600336E-03  9.4437483E-04
   2.00000  9.9355558E-04  1.7052017E-03  1.1286697E-03
   3.00000  1.2113225E-03  2.2719019E-03  1.4268256E-03
   4.00000  1.6115497E-03  3.4157476E-03  2.0469395E-03
   5.00000  2.6782950E-03  6.6999488E-03  3.9859186E-03
   5.20000  3.0061754E-03  7.7580826E-03  4.6204067E-03
   5.40000  3.3295884E-03  8.8409133E-03  5.2519600E-03
   5.60000  3.6374351E-03  9.9191843E-03  5.8405712E-03
   5.80000  3.9317009E-03  1.0998228E-02  6.3574763E-03
   6.00000  4.2183894E-03  1.2090915E-02  6.7754283E-03
   6.20000  4.5043133E-03  1.3207575E-02  7.0773688E-03
   6.40000  4.7972671E-03  1.4357507E-02  7.2691832E-03
   6.60000  5.1061800E-03  1.5552513E-02  7.3800557E-03
   6.80000  5.4405266E-03  1.6809109E-02  7.4503590E-03
   7.00000  5.8096215E-03  1.8149883E-02  7.5184004E-03
   7.20000  6.2222107E-03  1.9604265E-02  7.6136198E-03
   7.40000  6.6862217E-03  2.1208003E-02  7.7558769E-03
   7.60000  7.2083931E-03  2.3000887E-02  7.9576625E-03
   7.80000  7.7936849E-03  2.5023261E-02  8.2269587E-03
   8.00000  8.4444869E-03  2.7312234E-02  8.5696033E-03
   8.20000  9.1595857E-03  2.9897836E-02  8.9906009E-03
   8.40000  9.9328815E-03  3.2798340E-02  9.4942743E-03
   8.60000  1.0752223E-02  3.6013877E-02  1.0083596E-02
   8.80000  1.1599308E-02  3.9518447E-02  1.0759389E-02
   9.00000  1.2451794E-02  4.3251666E-02  1.1520192E-02
   9.20000  1.3287987E-02  4.7112342E-02  1.2363291E-02
   9.40000  1.4092653E-02  5.0956034E-02  1.3286489E-02
   9.60000  1.4861049E-02  5.4598398E-02  1.4289296E-02
   9.80000  1.5598811E-02  5.7826088E-02  1.5372274E-02
   10.0000  1.6317888E-02  6.0416626E-02  1.6534544E-02
   10.2500  1.7209348E-02  6.2455389E-02  1.8090086E-02
   10.5000  1.8107306E-02  6.2925527E-02  1.9736534E-02
   10.7500  1.9016626E-02  6.1797799E-02  2.1437573E-02
   11.0000  1.9934144E-02  5.9293032E-02  2.3152150E-02
   11.2500  2.0852671E-02  5.5807883E-02  2.4841987E-02
   11.5000  2.1763188E-02  5.1792621E-02  2.6475498E-02
   11.7500  2.2655617E-02  4.7644015E-02  2.8027786E-02
   12.0000  2.3519292E-02  4.3649402E-02  2.9478891E-02
   12.2500  2.4343863E-02  3.9980000E-02  3.0812291E-02
   12.5000  2.5121301E-02  3.6712558E-02  3.2014403E-02
   12.7500  2.5849687E-02  3.3859831E-02  3.3075273E-02
   13.0000  2.6536690E-02  3.1398384E-02  3.3990586E-02
   13.2500  2.7197741E-02  2.9289083E-02  3.4764886E-02
   13.5000  2.7849238E-02  2.7489457E-02  3.5413493E-02
   13.7500  2.8503811E-02  2.5959285E-02  3.5960394E-02
   14.0000  2.9170402E-02  2.4662564E-02  3.6433729E-02
   14.2500  2.9855961E-02  2.3568137E-02  3.6861599E-02
   14.5000  3.0566340E-02  2.2649661E-02  3.7269028E-02
   14.7500  3.1306362E-02  2.1885174E-02  3.7675900E-02
   15.0000  3.2079564E-02  2.1256487E-02  3.8095700E-02
   15.2500  3.2887908E-02  2.0748542E-02  3.8534925E-02
   15.5000  3.3731491E-02  2.0348833E-02  3.8993069E-02
   15.7500  3.4608256E-02  2.0046886E-02  3.9463138E-02
   16.0000  3.5513700E-02  1.9833830E-02  3.9932647E-02
   16.2500  3.6440636E-02  1.9702029E-02  4.0385054E-02
   16.5000  3.7379060E-02  1.9644778E-02  4.0801560E-02
   16.7500  3.8316208E-02  1.9656062E-02  4.1163134E-02
   17.0000  3.9236905E-02  1.9730361E-02  4.1452548E-02
   17.2500  4.0124261E-02  1.9862513E-02  4.1656166E-02
   17.5000  4.0960755E-02  2.0047625E-02  4.1765242E-02
   17.7500  4.1729618E-02  2.0281012E-02  4.1776542E-02
   18.0000  4.2416364E-02  2.0558174E-02  4.1692247E-02
   18.2500  4.3010213E-02  2.0874783E-02  4.1519240E-02
   18.5000  4.3505128E-02  2.1226693E-02  4.1267956E-02
   18.7500  4.3900251E-02  2.1609953E-02  4.0951032E-02
   19.0000  4.4199648E-02  2.2020858E-02  4.0581979E-02
   19.2500  4.4411417E-02  2.2456019E-02  4.0174004E-02
   19.5000  4.4546345E-02  2.2912453E-02  3.9739074E-02
   19.7500  4.4616439E-02  2.3387610E-02  3.9287349E-02
   20.0000  4.4633663E-02  2.3879181E-02  3.8827102E-02
   21.0000  4.4374024E-02  2.5951965E-02  3.7024615E-02
   22.0000  4.3837219E-02  2.8055002E-02  3.5443424E-02
   23.0000  4.2991386E-02  3.0023802E-02  3.4097174E-02
   24.0000  4.1641615E-02  3.1684543E-02  3.2907559E-02
   25.0000  3.9696405E-02  3.2887194E-02  3.1803056E-02
   26.0000  3.7273369E-02  3.3562857E-02  3.0755524E-02
   27.0000  3.4653751E-02  3.3734315E-02  2.9786731E-02
   28.0000  3.2153608E-02  3.3484223E-02  2.8953001E-02
   29.0000  3.0004711E-02  3.2917420E-02  2.8308902E-02
   30.0000  2.8308583E-02  3.2134079E-02  2.7871368E-02
   31.0000  2.7058918E-02  3.1215296E-02  2.7611779E-02
   32.0000  2.6183681E-02  3.0223101E-02  2.7474647E-02
   33.0000  2.5582886E-02  2.9203157E-02  2.7401058E-02
   34.0000  2.5165380E-02  2.8177286E-02  2.7343207E-02
   35.0000  2.4853931E-02  2.7153880E-02  2.7267118E-02
   36.0000  2.4582419E-02  2.6141329E-02  2.7150882E-02
   37.0000  2.4302285E-02  2.5155569E-02  2.6984095E-02
   38.0000  2.3992475E-02  2.4225634E-02  2.6770554E-02
   39.0000  2.3666733E-02  2.3399050E-02  2.6534079E-02
   40.0000  2.3372925E-02  2.2740197E-02  2.6320126E-02
