    Energy   (100,001)      (010,001)      (001,110)   
  -25.0000  1.7462731E-04  1.7883690E-04  1.7743540E-04
  -24.0000  1.8077433E-04  1.8580492E-04  1.8386088E-04
  -23.0000  1.8733463E-04  1.9328484E-04  1.9073064E-04
  -22.0000  1.9435055E-04  2.0133341E-04  1.9809141E-04
  -21.0000  2.0187035E-04  2.1001596E-04  2.0599662E-04
  -20.0000  2.0994933E-04  2.1940804E-04  2.1450768E-04
  -19.0000  2.1865112E-04  2.2959749E-04  2.2369550E-04
  -18.0000  2.2804933E-04  2.4068698E-04  2.3364238E-04
  -17.0000  2.3822961E-04  2.5279727E-04  2.4444445E-04
  -16.0000  2.4929215E-04  2.6607136E-04  2.5621463E-04
  -15.0000  2.6135498E-04  2.8067968E-04  2.6908646E-04
  -14.0000  2.7455812E-04  2.9682705E-04  2.8321906E-04
  -13.0000  2.8906892E-04  3.1476159E-04  2.9880356E-04
  -12.0000  3.0508919E-04  3.3478671E-04  3.1607154E-04
  -11.0000  3.2286454E-04  3.5727720E-04  3.3530637E-04
  -10.0000  3.4269707E-04  3.8270122E-04  3.5685861E-04
  -9.00000  3.6496279E-04  4.1165096E-04  3.8116726E-04
  -8.00000  3.9013593E-04  4.4488604E-04  4.0878965E-04
  -7.00000  4.1882375E-04  4.8339648E-04  4.4044464E-04
  -6.00000  4.5181757E-04  5.2849611E-04  4.7707625E-04
  -5.00000  4.9016972E-04  5.8196534E-04  5.1995066E-04
  -4.00000  5.3531368E-04  6.4627664E-04  5.7080888E-04
  -3.00000  5.8925936E-04  7.2496499E-04  6.3211765E-04
  -2.00000  6.5492685E-04  8.2326656E-04  7.0750279E-04
  -1.00000  7.3675291E-04  9.4928820E-04  8.0254694E-04
   0.00000  8.4188520E-04  1.1163209E-03  9.2638261E-04
   1.00000  9.8279876E-04  1.3479194E-03  1.0952395E-03
   2.00000  1.1839577E-03  1.6908299E-03  1.3416484E-03
   3.00000  1.5030612E-03  2.2561525E-03  1.7444505E-03
   4.00000  2.1277418E-03  3.4067059E-03  2.5687519E-03
   5.00000  3.9012444E-03  6.7494595E-03  5.0420531E-03
   5.20000  4.4830731E-03  7.8238347E-03  5.8596547E-03
   5.40000  5.0805256E-03  8.9152389E-03  6.6798102E-03
   5.60000  5.6619925E-03  9.9904130E-03  7.4382549E-03
   5.80000  6.2115877E-03  1.1050512E-02  8.0985664E-03
   6.00000  6.7270234E-03  1.2103069E-02  8.6576935E-03
   6.20000  7.2216050E-03  1.3154147E-02  9.1503795E-03
   6.40000  7.7228947E-03  1.4213812E-02  9.6409742E-03
   6.60000  8.2659412E-03  1.5302946E-02  1.0204321E-02
   6.80000  8.8855905E-03  1.6455513E-02  1.0908098E-02
   7.00000  9.6113650E-03  1.7715068E-02  1.1804244E-02
   7.20000  1.0464601E-02  1.9127883E-02  1.2927680E-02
   7.40000  1.1455752E-02  2.0736876E-02  1.4295880E-02
   7.60000  1.2580201E-02  2.2578980E-02  1.5903731E-02
   7.80000  1.3812508E-02  2.4685178E-02  1.7712072E-02
   8.00000  1.5101820E-02  2.7080696E-02  1.9634432E-02
   8.20000  1.6374380E-02  2.9783394E-02  2.1534009E-02
   8.40000  1.7549325E-02  3.2799737E-02  2.3245616E-02
   8.60000  1.8566159E-02  3.6118351E-02  2.4624840E-02
   8.80000  1.9409612E-02  3.9701321E-02  2.5601252E-02
   9.00000  2.0114407E-02  4.3474006E-02  2.6200443E-02
   9.20000  2.0746654E-02  4.7315988E-02  2.6521442E-02
   9.40000  2.1375687E-02  5.1057734E-02  2.6689821E-02
   9.60000  2.2052441E-02  5.4488497E-02  2.6816704E-02
   9.80000  2.2800538E-02  5.7379117E-02  2.6978580E-02
   10.0000  2.3617371E-02  5.9517947E-02  2.7215694E-02
   10.2500  2.4698701E-02  6.0906515E-02  2.7634455E-02
   10.5000  2.5778322E-02  6.0775824E-02  2.8173946E-02
   10.7500  2.6771281E-02  5.9243977E-02  2.8794971E-02
   11.0000  2.7596854E-02  5.6602982E-02  2.9444623E-02
   11.2500  2.8193992E-02  5.3227969E-02  3.0067247E-02
   11.5000  2.8534346E-02  4.9489327E-02  3.0616931E-02
   11.7500  2.8629382E-02  4.5691754E-02  3.1066994E-02
   12.0000  2.8527712E-02  4.2048115E-02  3.1412270E-02
   12.2500  2.8301432E-02  3.8683355E-02  3.1664015E-02
   12.5000  2.8027678E-02  3.5654967E-02  3.1841586E-02
   12.7500  2.7774628E-02  3.2976033E-02  3.1965388E-02
   13.0000  2.7594775E-02  3.0634216E-02  3.2052995E-02
   13.2500  2.7523763E-02  2.8604768E-02  3.2118617E-02
   13.5000  2.7582389E-02  2.6858035E-02  3.2174936E-02
   13.7500  2.7779645E-02  2.5363615E-02  3.2235292E-02
   14.0000  2.8115565E-02  2.4092665E-02  3.2314638E-02
   14.2500  2.8583409E-02  2.3018955E-02  3.2429031E-02
   14.5000  2.9171102E-02  2.2119149E-02  3.2594057E-02
   14.7500  2.9862163E-02  2.1372670E-02  3.2822660E-02
   15.0000  3.0636382E-02  2.0761444E-02  3.3123069E-02
   15.2500  3.1470353E-02  2.0269711E-02  3.3497327E-02
   15.5000  3.2337975E-02  1.9883900E-02  3.3940453E-02
   15.7500  3.3211067E-02  1.9592489E-02  3.4440135E-02
   16.0000  3.4060291E-02  1.9385822E-02  3.4977024E-02
   16.2500  3.4856500E-02  1.9255891E-02  3.5525802E-02
   16.5000  3.5572483E-02  1.9196109E-02  3.6057124E-02
   16.7500  3.6184954E-02  1.9201059E-02  3.6540381E-02
   17.0000  3.6676473E-02  1.9266254E-02  3.6946943E-02
   17.2500  3.7036917E-02  1.9387910E-02  3.7253373E-02
   17.5000  3.7264163E-02  1.9562737E-02  3.7443980E-02
   17.7500  3.7363809E-02  1.9787777E-02  3.7512201E-02
   18.0000  3.7348012E-02  2.0060268E-02  3.7460593E-02
   18.2500  3.7233685E-02  2.0377545E-02  3.7299542E-02
   18.5000  3.7040453E-02  2.0736980E-02  3.7045110E-02
   18.7500  3.6788704E-02  2.1135947E-02  3.6716536E-02
   19.0000  3.6497971E-02  2.1571826E-02  3.6333867E-02
   19.2500  3.6185754E-02  2.2042052E-02  3.5916010E-02
   19.5000  3.5866773E-02  2.2544179E-02  3.5479360E-02
   19.7500  3.5552628E-02  2.3075879E-02  3.5037050E-02
   20.0000  3.5251916E-02  2.3634692E-02  3.4598899E-02
   21.0000  3.4282036E-02  2.6066033E-02  3.3003845E-02
   22.0000  3.3734703E-02  2.8603494E-02  3.1747110E-02
   23.0000  3.3433038E-02  3.0980945E-02  3.0745443E-02
   24.0000  3.3088457E-02  3.2934953E-02  2.9885212E-02
   25.0000  3.2489401E-02  3.4247496E-02  2.9113248E-02
   26.0000  3.1621817E-02  3.4819014E-02  2.8428031E-02
   27.0000  3.0634936E-02  3.4703961E-02  2.7847390E-02
   28.0000  2.9691700E-02  3.4068926E-02  2.7380888E-02
   29.0000  2.8870355E-02  3.3112512E-02  2.7018166E-02
   30.0000  2.8179391E-02  3.2005467E-02  2.6734923E-02
   31.0000  2.7605989E-02  3.0867143E-02  2.6503367E-02
   32.0000  2.7136612E-02  2.9765483E-02  2.6297303E-02
   33.0000  2.6755860E-02  2.8726722E-02  2.6093421E-02
   34.0000  2.6443376E-02  2.7749079E-02  2.5872952E-02
   35.0000  2.6177375E-02  2.6820749E-02  2.5627998E-02
   36.0000  2.5941238E-02  2.5932167E-02  2.5368089E-02
   37.0000  2.5725964E-02  2.5076806E-02  2.5117851E-02
   38.0000  2.5530801E-02  2.4262468E-02  2.4909477E-02
   39.0000  2.5362136E-02  2.3524414E-02  2.4765069E-02
   40.0000  2.5229587E-02  2.2925641E-02  2.4678977E-02
