    Energy   (100,001)      (010,001)      (001,110)   
  -25.0000  1.7438839E-04  1.7405671E-04  1.7361545E-04
  -24.0000  1.8077607E-04  1.8108955E-04  1.8018320E-04
  -23.0000  1.8760537E-04  1.8865236E-04  1.8721793E-04
  -22.0000  1.9492237E-04  1.9680504E-04  1.9476967E-04
  -21.0000  2.0277966E-04  2.0561670E-04  2.0289578E-04
  -20.0000  2.1123757E-04  2.1516744E-04  2.1166225E-04
  -19.0000  2.2036564E-04  2.2555058E-04  2.2114548E-04
  -18.0000  2.3024436E-04  2.3687550E-04  2.3143431E-04
  -17.0000  2.4096751E-04  2.4927113E-04  2.4263268E-04
  -16.0000  2.5264490E-04  2.6289056E-04  2.5486300E-04
  -15.0000  2.6540601E-04  2.7791673E-04  2.6827037E-04
  -14.0000  2.7940451E-04  2.9457012E-04  2.8302808E-04
  -13.0000  2.9482416E-04  3.1311859E-04  2.9934482E-04
  -12.0000  3.1188661E-04  3.3389069E-04  3.1747417E-04
  -11.0000  3.3086153E-04  3.5729353E-04  3.3772735E-04
  -10.0000  3.5208046E-04  3.8383732E-04  3.6049062E-04
  -9.00000  3.7595555E-04  4.1416958E-04  3.8624940E-04
  -8.00000  4.0300571E-04  4.4912375E-04  4.1562250E-04
  -7.00000  4.3389367E-04  4.8978976E-04  4.4941161E-04
  -6.00000  4.6947983E-04  5.3761896E-04  4.8867510E-04
  -5.00000  5.1090265E-04  5.9458444E-04  5.3484121E-04
  -4.00000  5.5970235E-04  6.6343422E-04  5.8988829E-04
  -3.00000  6.1801887E-04  7.4810616E-04  6.5664474E-04
  -2.00000  6.8892329E-04  8.5444046E-04  7.3931572E-04
  -1.00000  7.7700575E-04  9.9147388E-04  8.4447257E-04
   0.00000  8.8949892E-04  1.1739690E-03  9.8308081E-04
   1.00000  1.0386512E-03  1.4278630E-03  1.1751700E-03
   2.00000  1.2475100E-03  1.8037531E-03  1.4624911E-03
   3.00000  1.5674578E-03  2.4182269E-03  1.9522146E-03
   4.00000  2.1539651E-03  3.6337581E-03  3.0359507E-03
   5.00000  3.6643065E-03  6.9810184E-03  6.5298047E-03
   5.20000  4.1479558E-03  8.0432369E-03  7.5480037E-03
   5.40000  4.6513675E-03  9.1310610E-03  8.4430512E-03
   5.60000  5.1583309E-03  1.0222104E-02  9.1872673E-03
   5.80000  5.6690439E-03  1.1336669E-02  9.8242035E-03
   6.00000  6.1942482E-03  1.2513845E-02  1.0412711E-02
   6.20000  6.7508892E-03  1.3799043E-02  1.1007011E-02
   6.40000  7.3587599E-03  1.5238721E-02  1.1653973E-02
   6.60000  8.0376919E-03  1.6877308E-02  1.2390133E-02
   6.80000  8.8055750E-03  1.8755346E-02  1.3236620E-02
   7.00000  9.6767931E-03  2.0908504E-02  1.4194087E-02
   7.20000  1.0660250E-02  2.3367197E-02  1.5239098E-02
   7.40000  1.1756628E-02  2.6156936E-02  1.6324146E-02
   7.60000  1.2955730E-02  2.9299956E-02  1.7385080E-02
   7.80000  1.4236145E-02  3.2817569E-02  1.8358863E-02
   8.00000  1.5569647E-02  3.6729832E-02  1.9208540E-02
   8.20000  1.6930208E-02  4.1046218E-02  1.9943337E-02
   8.40000  1.8303261E-02  4.5742225E-02  2.0619662E-02
   8.60000  1.9689156E-02  5.0724198E-02  2.1319916E-02
   8.80000  2.1098628E-02  5.5794096E-02  2.2121714E-02
   9.00000  2.2543927E-02  6.0632496E-02  2.3074402E-02
   9.20000  2.4030919E-02  6.4820184E-02  2.4190939E-02
   9.40000  2.5554390E-02  6.7911594E-02  2.5452806E-02
   9.60000  2.7096487E-02  6.9547728E-02  2.6821281E-02
   9.80000  2.8628214E-02  6.9562169E-02  2.8248874E-02
   10.0000  3.0113255E-02  6.8025979E-02  2.9687305E-02
   10.2500  3.1843629E-02  6.4352092E-02  3.1432887E-02
   10.5000  3.3363966E-02  5.9435382E-02  3.3053231E-02
   10.7500  3.4612259E-02  5.4008177E-02  3.4497565E-02
   11.0000  3.5551103E-02  4.8625126E-02  3.5734760E-02
   11.2500  3.6175362E-02  4.3629389E-02  3.6746189E-02
   11.5000  3.6510621E-02  3.9189931E-02  3.7520848E-02
   11.7500  3.6602969E-02  3.5358203E-02  3.8054650E-02
   12.0000  3.6509924E-02  3.2117328E-02  3.8352631E-02
   12.2500  3.6294509E-02  2.9415064E-02  3.8432531E-02
   12.5000  3.6019156E-02  2.7183715E-02  3.8326637E-02
   12.7500  3.5738924E-02  2.5352525E-02  3.8079220E-02
   13.0000  3.5496333E-02  2.3855183E-02  3.7740507E-02
   13.2500  3.5319794E-02  2.2633460E-02  3.7360271E-02
   13.5000  3.5224830E-02  2.1638263E-02  3.6982851E-02
   13.7500  3.5216343E-02  2.0829347E-02  3.6644001E-02
   14.0000  3.5290922E-02  2.0174368E-02  3.6369402E-02
   14.2500  3.5438791E-02  1.9647703E-02  3.6174416E-02
   14.5000  3.5645320E-02  1.9229258E-02  3.6064608E-02
   14.7500  3.5892210E-02  1.8903405E-02  3.6036701E-02
   15.0000  3.6158579E-02  1.8658080E-02  3.6079830E-02
   15.2500  3.6422169E-02  1.8484052E-02  3.6177104E-02
   15.5000  3.6660821E-02  1.8374331E-02  3.6307512E-02
   15.7500  3.6854195E-02  1.8323693E-02  3.6448155E-02
   16.0000  3.6985591E-02  1.8328272E-02  3.6576658E-02
   16.2500  3.7043565E-02  1.8385225E-02  3.6673456E-02
   16.5000  3.7023018E-02  1.8492427E-02  3.6723624E-02
   16.7500  3.6925541E-02  1.8648221E-02  3.6717930E-02
   17.0000  3.6758914E-02  1.8851194E-02  3.6652997E-02
   17.2500  3.6535902E-02  1.9100014E-02  3.6530662E-02
   17.5000  3.6272578E-02  1.9393311E-02  3.6356779E-02
   17.7500  3.5986475E-02  1.9729591E-02  3.6139792E-02
   18.0000  3.5694852E-02  2.0107198E-02  3.5889366E-02
   18.2500  3.5413263E-02  2.0524288E-02  3.5615243E-02
   18.5000  3.5154547E-02  2.0978825E-02  3.5326422E-02
   18.7500  3.4928260E-02  2.1468594E-02  3.5030640E-02
   19.0000  3.4740507E-02  2.1991237E-02  3.4734116E-02
   19.2500  3.4594094E-02  2.2544328E-02  3.4441473E-02
   19.5000  3.4488902E-02  2.3125456E-02  3.4155798E-02
   19.7500  3.4422342E-02  2.3732228E-02  3.3878799E-02
   20.0000  3.4389772E-02  2.4361996E-02  3.3611084E-02
   21.0000  3.4455679E-02  2.7024875E-02  3.2627522E-02
   22.0000  3.4448873E-02  2.9665684E-02  3.1741962E-02
   23.0000  3.3949186E-02  3.1948135E-02  3.0878164E-02
   24.0000  3.2820883E-02  3.3569697E-02  2.9983253E-02
   25.0000  3.1270852E-02  3.4362509E-02  2.9063250E-02
   26.0000  2.9654268E-02  3.4357584E-02  2.8196084E-02
   27.0000  2.8226047E-02  3.3741717E-02  2.7492720E-02
   28.0000  2.7081298E-02  3.2760006E-02  2.7020900E-02
   29.0000  2.6226152E-02  3.1632016E-02  2.6759775E-02
   30.0000  2.5626331E-02  3.0493937E-02  2.6618802E-02
   31.0000  2.5226818E-02  2.9404711E-02  2.6491719E-02
   32.0000  2.4965033E-02  2.8372161E-02  2.6290858E-02
   33.0000  2.4782499E-02  2.7375521E-02  2.5958934E-02
   34.0000  2.4632324E-02  2.6385741E-02  2.5475514E-02
   35.0000  2.4482184E-02  2.5382073E-02  2.4863827E-02
   36.0000  2.4314682E-02  2.4362620E-02  2.4190857E-02
   37.0000  2.4125112E-02  2.3348368E-02  2.3547345E-02
   38.0000  2.3918342E-02  2.2382558E-02  2.3009563E-02
   39.0000  2.3709372E-02  2.1527302E-02  2.2609413E-02
   40.0000  2.3526553E-02  2.0851783E-02  2.2335373E-02
