    Energy   (100,001)      (010,001)      (001,110)   
  -25.0000  1.6208746E-04  1.7933190E-04  1.7211078E-04
  -24.0000  1.6806992E-04  1.8617928E-04  1.7842083E-04
  -23.0000  1.7445865E-04  1.9352145E-04  1.8516423E-04
  -22.0000  1.8129476E-04  2.0141249E-04  1.9238573E-04
  -21.0000  1.8862493E-04  2.0991452E-04  2.0013635E-04
  -20.0000  1.9650248E-04  2.1909924E-04  2.0847452E-04
  -19.0000  2.0498850E-04  2.2904987E-04  2.1746746E-04
  -18.0000  2.1415338E-04  2.3986345E-04  2.2719289E-04
  -17.0000  2.2407858E-04  2.5165387E-04  2.3774116E-04
  -16.0000  2.3485891E-04  2.6455562E-04  2.4921787E-04
  -15.0000  2.4660536E-04  2.7872863E-04  2.6174729E-04
  -14.0000  2.5944872E-04  2.9436448E-04  2.7547659E-04
  -13.0000  2.7354415E-04  3.1169452E-04  2.9058137E-04
  -12.0000  2.8907718E-04  3.3100072E-04  3.0727291E-04
  -11.0000  3.0627152E-04  3.5262999E-04  3.2580770E-04
  -10.0000  3.2539947E-04  3.7701390E-04  3.4650021E-04
  -9.00000  3.4679598E-04  4.0469575E-04  3.6974043E-04
  -8.00000  3.7087804E-04  4.3636879E-04  3.9601812E-04
  -7.00000  3.9817178E-04  4.7293116E-04  4.2595729E-04
  -6.00000  4.2935156E-04  5.1556665E-04  4.6036642E-04
  -5.00000  4.6529764E-04  5.6586690E-04  5.0031356E-04
  -4.00000  5.0718438E-04  6.2602204E-04  5.4724286E-04
  -3.00000  5.5662033E-04  6.9912958E-04  6.0316265E-04
  -2.00000  6.1588254E-04  7.8971828E-04  6.7096554E-04
  -1.00000  6.8833379E-04  9.0468887E-04  7.5500948E-04
   0.00000  7.7923067E-04  1.0551323E-03  8.6226731E-04
   1.00000  8.9747797E-04  1.2602135E-03  1.0048814E-03
   2.00000  1.0601140E-03  1.5567447E-03  1.2068619E-03
   3.00000  1.3069789E-03  2.0286179E-03  1.5265912E-03
   4.00000  1.7710288E-03  2.9365481E-03  2.1677043E-03
   5.00000  3.0456649E-03  5.3850678E-03  4.0445590E-03
   5.20000  3.4213660E-03  6.1500263E-03  4.5780373E-03
   5.40000  3.7710052E-03  6.9253711E-03  5.0521025E-03
   5.60000  4.0816624E-03  7.6954894E-03  5.4596398E-03
   5.80000  4.3611878E-03  8.4742493E-03  5.8278433E-03
   6.00000  4.6234947E-03  9.2841347E-03  6.1873875E-03
   6.20000  4.8820961E-03  1.0147000E-02  6.5607110E-03
   6.40000  5.1490227E-03  1.1082714E-02  6.9611640E-03
   6.60000  5.4352814E-03  1.2110056E-02  7.3947764E-03
   6.80000  5.7515055E-03  1.3247890E-02  7.8624241E-03
   7.00000  6.1083583E-03  1.4516149E-02  8.3623791E-03
   7.20000  6.5164945E-03  1.5936536E-02  8.8931134E-03
   7.40000  6.9861216E-03  1.7532811E-02  9.4556929E-03
   7.60000  7.5263790E-03  1.9330507E-02  1.0055093E-02
   7.80000  8.1447030E-03  2.1356046E-02  1.0700277E-02
   8.00000  8.8461424E-03  2.3635102E-02  1.1403351E-02
   8.20000  9.6325183E-03  2.6189787E-02  1.2178280E-02
   8.40000  1.0501521E-02  2.9034493E-02  1.3039482E-02
   8.60000  1.1446092E-02  3.2170429E-02  1.4000518E-02
   8.80000  1.2454556E-02  3.5579176E-02  1.5072957E-02
   9.00000  1.3511899E-02  3.9216450E-02  1.6265324E-02
   9.20000  1.4602241E-02  4.3007885E-02  1.7581939E-02
   9.40000  1.5712104E-02  4.6846878E-02  1.9021814E-02
   9.60000  1.6833632E-02  5.0591785E-02  2.0578466E-02
   9.80000  1.7966324E-02  5.4064824E-02  2.2240749E-02
   10.0000  1.9116216E-02  5.7060480E-02  2.3993551E-02
   10.2500  2.0592389E-02  5.9812239E-02  2.6281889E-02
   10.5000  2.2126239E-02  6.1142178E-02  2.8630803E-02
   10.7500  2.3716446E-02  6.0885424E-02  3.0971563E-02
   11.0000  2.5333801E-02  5.9131166E-02  3.3215565E-02
   11.2500  2.6923322E-02  5.6200108E-02  3.5261792E-02
   11.5000  2.8416494E-02  5.2535635E-02  3.7012008E-02
   11.7500  2.9749335E-02  4.8573418E-02  3.8389761E-02
   12.0000  3.0879619E-02  4.4653118E-02  3.9357248E-02
   12.2500  3.1795806E-02  4.0991065E-02  3.9922389E-02
   12.5000  3.2515057E-02  3.7696078E-02  4.0132852E-02
   12.7500  3.3074054E-02  3.4801847E-02  4.0061540E-02
   13.0000  3.3518904E-02  3.2297615E-02  3.9791197E-02
   13.2500  3.3897155E-02  3.0150491E-02  3.9402373E-02
   13.5000  3.4252157E-02  2.8319416E-02  3.8965796E-02
   13.7500  3.4619378E-02  2.6762876E-02  3.8538904E-02
   14.0000  3.5024728E-02  2.5442591E-02  3.8165288E-02
   14.2500  3.5484879E-02  2.4324953E-02  3.7875422E-02
   14.5000  3.6008530E-02  2.3381318E-02  3.7687855E-02
   14.7500  3.6597565E-02  2.2587710E-02  3.7610508E-02
   15.0000  3.7247786E-02  2.1924293E-02  3.7641904E-02
   15.2500  3.7949359E-02  2.1374755E-02  3.7772241E-02
   15.5000  3.8687156E-02  2.0925709E-02  3.7984437E-02
   15.7500  3.9441283E-02  2.0566143E-02  3.8255328E-02
   16.0000  4.0187996E-02  2.0286937E-02  3.8557239E-02
   16.2500  4.0901203E-02  2.0080459E-02  3.8860062E-02
   16.5000  4.1554614E-02  1.9940234E-02  3.9133817E-02
   16.7500  4.2124381E-02  1.9860685E-02  3.9351436E-02
   17.0000  4.2591891E-02  1.9836940E-02  3.9491362E-02
   17.2500  4.2946176E-02  1.9864684E-02  3.9539464E-02
   17.5000  4.3185375E-02  1.9940053E-02  3.9489916E-02
   17.7500  4.3316859E-02  2.0059559E-02  3.9344889E-02
   18.0000  4.3355943E-02  2.0220039E-02  3.9113232E-02
   18.2500  4.3323472E-02  2.0418619E-02  3.8808522E-02
   18.5000  4.3242844E-02  2.0652693E-02  3.8446911E-02
   18.7500  4.3137089E-02  2.0919918E-02  3.8045161E-02
   19.0000  4.3026466E-02  2.1218227E-02  3.7619089E-02
   19.2500  4.2926869E-02  2.1545863E-02  3.7182489E-02
   19.5000  4.2849020E-02  2.1901413E-02  3.6746510E-02
   19.7500  4.2798327E-02  2.2283793E-02  3.6319444E-02
   20.0000  4.2775121E-02  2.2692052E-02  3.5906959E-02
   21.0000  4.2824895E-02  2.4553146E-02  3.4459332E-02
   22.0000  4.2589080E-02  2.6689255E-02  3.3346418E-02
   23.0000  4.1449547E-02  2.8955850E-02  3.2454301E-02
   24.0000  3.9226340E-02  3.1139344E-02  3.1652109E-02
   25.0000  3.6229355E-02  3.2977740E-02  3.0854910E-02
   26.0000  3.3035495E-02  3.4234679E-02  3.0035448E-02
   27.0000  3.0191616E-02  3.4799162E-02  2.9219845E-02
   28.0000  2.7941609E-02  3.4739939E-02  2.8453365E-02
   29.0000  2.6282419E-02  3.4228738E-02  2.7786703E-02
   30.0000  2.5106919E-02  3.3443709E-02  2.7255594E-02
   31.0000  2.4286839E-02  3.2518363E-02  2.6860310E-02
   32.0000  2.3709698E-02  3.1531998E-02  2.6567023E-02
   33.0000  2.3287115E-02  3.0522734E-02  2.6324359E-02
   34.0000  2.2949623E-02  2.9505511E-02  2.6079850E-02
   35.0000  2.2638850E-02  2.8486714E-02  2.5789442E-02
   36.0000  2.2305646E-02  2.7473355E-02  2.5421799E-02
   37.0000  2.1918482E-02  2.6478636E-02  2.4962549E-02
   38.0000  2.1477789E-02  2.5528100E-02  2.4422927E-02
   39.0000  2.1024473E-02  2.4669710E-02  2.3853724E-02
   40.0000  2.0630016E-02  2.3977027E-02  2.3350301E-02
