    Energy   (100,001)      (010,001)      (001,110)   
  -25.0000  1.6815810E-04  1.7677667E-04  1.7159000E-04
  -24.0000  1.7437478E-04  1.8380590E-04  1.7798266E-04
  -23.0000  1.8101890E-04  1.9135979E-04  1.8482042E-04
  -22.0000  1.8813447E-04  1.9949730E-04  1.9214980E-04
  -21.0000  1.9577165E-04  2.0828639E-04  2.0002389E-04
  -20.0000  2.0398783E-04  2.1780576E-04  2.0850357E-04
  -19.0000  2.1284898E-04  2.2814710E-04  2.1765899E-04
  -18.0000  2.2243134E-04  2.3941774E-04  2.2757137E-04
  -17.0000  2.3282342E-04  2.5174422E-04  2.3833524E-04
  -16.0000  2.4412860E-04  2.6527658E-04  2.5006128E-04
  -15.0000  2.5646834E-04  2.8019414E-04  2.6287989E-04
  -14.0000  2.6998631E-04  2.9671277E-04  2.7694575E-04
  -13.0000  2.8485370E-04  3.1509468E-04  2.9244372E-04
  -12.0000  3.0127606E-04  3.3566126E-04  3.0959650E-04
  -11.0000  3.1950244E-04  3.5881058E-04  3.2867483E-04
  -10.0000  3.3983746E-04  3.8504132E-04  3.5001112E-04
  -9.00000  3.6265784E-04  4.1498613E-04  3.7401801E-04
  -8.00000  3.8843506E-04  4.4945918E-04  4.0121415E-04
  -7.00000  4.1776743E-04  4.8952520E-04  4.3226067E-04
  -6.00000  4.5142632E-04  5.3660227E-04  4.6801395E-04
  -5.00000  4.9042449E-04  5.9261949E-04  5.0960405E-04
  -4.00000  5.3612069E-04  6.6026654E-04  5.5855514E-04
  -3.00000  5.9038560E-04  7.4340485E-04  6.1697717E-04
  -2.00000  6.5587799E-04  8.4777782E-04  6.8788552E-04
  -1.00000  7.3653199E-04  9.8231222E-04  7.7576568E-04
   0.00000  8.3848675E-04  1.1616903E-03  8.8764843E-04
   1.00000  9.7205767E-04  1.4119758E-03  1.0353776E-03
   2.00000  1.1566057E-03  1.7848208E-03  1.2411503E-03
   3.00000  1.4357322E-03  2.4020946E-03  1.5545048E-03
   4.00000  1.9461507E-03  3.6552919E-03  2.1276212E-03
   5.00000  3.2728917E-03  7.2477533E-03  3.5942375E-03
   5.20000  3.6749097E-03  8.4020417E-03  4.0346843E-03
   5.40000  4.0729827E-03  9.5839923E-03  4.4731568E-03
   5.60000  4.4590857E-03  1.0766827E-02  4.9064363E-03
   5.80000  4.8415235E-03  1.1965885E-02  5.3504085E-03
   6.00000  5.2316971E-03  1.3208520E-02  5.8247361E-03
   6.20000  5.6386226E-03  1.4520416E-02  6.3465416E-03
   6.40000  6.0685994E-03  1.5923862E-02  6.9294945E-03
   6.60000  6.5265146E-03  1.7439926E-02  7.5839884E-03
   6.80000  7.0173911E-03  1.9090880E-02  8.3171013E-03
   7.00000  7.5475993E-03  2.0901454E-02  9.1324421E-03
   7.20000  8.1253797E-03  2.2898422E-02  1.0030248E-02
   7.40000  8.7606109E-03  2.5108860E-02  1.1007870E-02
   7.60000  9.4641662E-03  2.7557717E-02  1.2060601E-02
   7.80000  1.0247379E-02  3.0265128E-02  1.3182909E-02
   8.00000  1.1121908E-02  3.3243961E-02  1.4370100E-02
   8.20000  1.2099919E-02  3.6497352E-02  1.5620225E-02
   8.40000  1.3194222E-02  4.0014319E-02  1.6935583E-02
   8.60000  1.4417837E-02  4.3760346E-02  1.8323034E-02
   8.80000  1.5782564E-02  4.7661107E-02  1.9792643E-02
   9.00000  1.7296536E-02  5.1582962E-02  2.1354598E-02
   9.20000  1.8961135E-02  5.5321300E-02  2.3014708E-02
   9.40000  2.0767746E-02  5.8610451E-02  2.4769153E-02
   9.60000  2.2694668E-02  6.1162225E-02  2.6599645E-02
   9.80000  2.4704584E-02  6.2726292E-02  2.8470468E-02
   10.0000  2.6743421E-02  6.3152007E-02  3.0328538E-02
   10.2500  2.9226806E-02  6.2077124E-02  3.2531412E-02
   10.5000  3.1498860E-02  5.9477653E-02  3.4475940E-02
   10.7500  3.3427021E-02  5.5822789E-02  3.6063109E-02
   11.0000  3.4924627E-02  5.1623568E-02  3.7262586E-02
   11.2500  3.5965222E-02  4.7310842E-02  3.8109477E-02
   11.5000  3.6576559E-02  4.3183714E-02  3.8672688E-02
   11.7500  3.6824645E-02  3.9412566E-02  3.9023546E-02
   12.0000  3.6798185E-02  3.6069420E-02  3.9219751E-02
   12.2500  3.6595355E-02  3.3164237E-02  3.9300790E-02
   12.5000  3.6310298E-02  3.0674076E-02  3.9289823E-02
   12.7500  3.6020900E-02  2.8560866E-02  3.9202067E-02
   13.0000  3.5783433E-02  2.6781027E-02  3.9053586E-02
   13.2500  3.5633937E-02  2.5290817E-02  3.8864491E-02
   13.5000  3.5591846E-02  2.4049329E-02  3.8657409E-02
   13.7500  3.5663233E-02  2.3019986E-02  3.8454278E-02
   14.0000  3.5843240E-02  2.2171062E-02  3.8273289E-02
   14.2500  3.6117962E-02  2.1475601E-02  3.8126772E-02
   14.5000  3.6466123E-02  2.0911022E-02  3.8020240E-02
   14.7500  3.6860826E-02  2.0458607E-02  3.7952509E-02
   15.0000  3.7271632E-02  2.0102993E-02  3.7916652E-02
   15.2500  3.7667044E-02  1.9831713E-02  3.7901521E-02
   15.5000  3.8017284E-02  1.9634790E-02  3.7893614E-02
   15.7500  3.8297065E-02  1.9504379E-02  3.7879021E-02
   16.0000  3.8487936E-02  1.9434415E-02  3.7845210E-02
   16.2500  3.8579814E-02  1.9420273E-02  3.7782426E-02
   16.5000  3.8571426E-02  1.9458424E-02  3.7684529E-02
   16.7500  3.8469635E-02  1.9546124E-02  3.7549212E-02
   17.0000  3.8287861E-02  1.9681122E-02  3.7377670E-02
   17.2500  3.8043983E-02  1.9861434E-02  3.7173866E-02
   17.5000  3.7758117E-02  2.0085172E-02  3.6943633E-02
   17.7500  3.7450613E-02  2.0350430E-02  3.6693757E-02
   18.0000  3.7140470E-02  2.0655222E-02  3.6431192E-02
   18.2500  3.6844255E-02  2.0997454E-02  3.6162462E-02
   18.5000  3.6575483E-02  2.1374923E-02  3.5893246E-02
   18.7500  3.6344393E-02  2.1785345E-02  3.5628152E-02
   19.0000  3.6158002E-02  2.2226396E-02  3.5370610E-02
   19.2500  3.6020343E-02  2.2695794E-02  3.5122872E-02
   19.5000  3.5932796E-02  2.3191375E-02  3.4886077E-02
   19.7500  3.5894404E-02  2.3711096E-02  3.4660373E-02
   20.0000  3.5902117E-02  2.4252785E-02  3.4445125E-02
   21.0000  3.6273663E-02  2.6569759E-02  3.3663531E-02
   22.0000  3.6812878E-02  2.8922691E-02  3.2936195E-02
   23.0000  3.6999264E-02  3.1029843E-02  3.2172579E-02
   24.0000  3.6451683E-02  3.2619349E-02  3.1320878E-02
   25.0000  3.5076173E-02  3.3511690E-02  3.0378703E-02
   26.0000  3.3124639E-02  3.3686377E-02  2.9405400E-02
   27.0000  3.1053774E-02  3.3278103E-02  2.8510206E-02
   28.0000  2.9212977E-02  3.2497412E-02  2.7782073E-02
   29.0000  2.7743318E-02  3.1544267E-02  2.7251720E-02
   30.0000  2.6639102E-02  3.0559747E-02  2.6890937E-02
   31.0000  2.5827885E-02  2.9616935E-02  2.6634107E-02
   32.0000  2.5222948E-02  2.8733992E-02  2.6406322E-02
   33.0000  2.4746745E-02  2.7893825E-02  2.6143531E-02
   34.0000  2.4337249E-02  2.7063259E-02  2.5802717E-02
   35.0000  2.3947512E-02  2.6210095E-02  2.5365787E-02
   36.0000  2.3545718E-02  2.5317530E-02  2.4839657E-02
   37.0000  2.3118392E-02  2.4394785E-02  2.4252511E-02
   38.0000  2.2674786E-02  2.3482005E-02  2.3647715E-02
   39.0000  2.2248817E-02  2.2648384E-02  2.3081009E-02
   40.0000  2.1892206E-02  2.1977986E-02  2.2617516E-02
