    Energy   (100,001)      (010,001)      (001,110)   
  -25.0000  1.6913435E-04  1.8028427E-04  1.7187222E-04
  -24.0000  1.7545596E-04  1.8731389E-04  1.7843360E-04
  -23.0000  1.8221662E-04  1.9486234E-04  1.8546125E-04
  -22.0000  1.8946194E-04  2.0298750E-04  1.9300481E-04
  -21.0000  1.9724397E-04  2.1175603E-04  2.0112104E-04
  -20.0000  2.0562232E-04  2.2124509E-04  2.0987521E-04
  -19.0000  2.1466560E-04  2.3154445E-04  2.1934265E-04
  -18.0000  2.2445315E-04  2.4275915E-04  2.2961085E-04
  -17.0000  2.3507722E-04  2.5501285E-04  2.4078190E-04
  -16.0000  2.4664568E-04  2.6845210E-04  2.5297567E-04
  -15.0000  2.5928542E-04  2.8325176E-04  2.6633385E-04
  -14.0000  2.7314673E-04  2.9962215E-04  2.8102503E-04
  -13.0000  2.8840891E-04  3.1781835E-04  2.9725144E-04
  -12.0000  3.0528755E-04  3.3815255E-04  3.1525763E-04
  -11.0000  3.2404423E-04  3.6101078E-04  3.3534215E-04
  -10.0000  3.4499932E-04  3.8687571E-04  3.5787317E-04
  -9.00000  3.6854954E-04  4.1635840E-04  3.8330998E-04
  -8.00000  3.9519211E-04  4.5024325E-04  4.1223299E-04
  -7.00000  4.2555877E-04  4.8955314E-04  4.4538633E-04
  -6.00000  4.6046488E-04  5.3564582E-04  4.8374018E-04
  -5.00000  5.0098198E-04  5.9036081E-04  5.2858402E-04
  -4.00000  5.4854841E-04  6.5625036E-04  5.8167086E-04
  -3.00000  6.0514448E-04  7.3695633E-04  6.4544911E-04
  -2.00000  6.7358220E-04  8.3785413E-04  7.2345251E-04
  -1.00000  7.5801301E-04  9.6721581E-04  8.2099491E-04
   0.00000  8.6488550E-04  1.1384675E-03  9.4650216E-04
   1.00000  1.0049442E-03  1.3750111E-03  1.1143272E-03
   2.00000  1.1980558E-03  1.7220216E-03  1.3515726E-03
   3.00000  1.4878090E-03  2.2819949E-03  1.7183863E-03
   4.00000  2.0052297E-03  3.3656198E-03  2.3919068E-03
   5.00000  3.2925673E-03  6.2622230E-03  4.1053876E-03
   5.20000  3.6848143E-03  7.1974005E-03  4.6827708E-03
   5.40000  4.0831596E-03  8.1880961E-03  5.3294390E-03
   5.60000  4.4834245E-03  9.2265787E-03  6.0459992E-03
   5.80000  4.8968435E-03  1.0333660E-02  6.8403972E-03
   6.00000  5.3378161E-03  1.1536011E-02  7.7154113E-03
   6.20000  5.8173779E-03  1.2853952E-02  8.6598605E-03
   6.40000  6.3412194E-03  1.4297511E-02  9.6454441E-03
   6.60000  6.9104633E-03  1.5867750E-02  1.0631344E-02
   6.80000  7.5246378E-03  1.7564027E-02  1.1577560E-02
   7.00000  8.1853466E-03  1.9396144E-02  1.2461998E-02
   7.20000  8.8982557E-03  2.1395092E-02  1.3291594E-02
   7.40000  9.6721958E-03  2.3614372E-02  1.4100770E-02
   7.60000  1.0516277E-02  2.6118989E-02  1.4938960E-02
   7.80000  1.1436910E-02  2.8965875E-02  1.5854711E-02
   8.00000  1.2436622E-02  3.2182843E-02  1.6883475E-02
   8.20000  1.3516217E-02  3.5754618E-02  1.8042830E-02
   8.40000  1.4680250E-02  3.9623703E-02  1.9335482E-02
   8.60000  1.5942493E-02  4.3704625E-02  2.0756703E-02
   8.80000  1.7326593E-02  4.7895347E-02  2.2300279E-02
   9.00000  1.8860617E-02  5.2068550E-02  2.3959290E-02
   9.20000  2.0568966E-02  5.6047184E-02  2.5723258E-02
   9.40000  2.2465338E-02  5.9590012E-02  2.7575183E-02
   9.60000  2.4547278E-02  6.2411094E-02  2.9490022E-02
   9.80000  2.6791360E-02  6.4236726E-02  3.1434632E-02
   10.0000  2.9148725E-02  6.4879008E-02  3.3368910E-02
   10.2500  3.2134016E-02  6.3961084E-02  3.5703122E-02
   10.5000  3.4964592E-02  6.1364213E-02  3.7858621E-02
   10.7500  3.7399858E-02  5.7568278E-02  3.9751149E-02
   11.0000  3.9228133E-02  5.3123354E-02  4.1315140E-02
   11.2500  4.0335149E-02  4.8507624E-02  4.2510825E-02
   11.5000  4.0742191E-02  4.4062648E-02  4.3326054E-02
   11.7500  4.0587690E-02  3.9990895E-02  4.3771160E-02
   12.0000  4.0067504E-02  3.6384344E-02  4.3870839E-02
   12.2500  3.9373715E-02  3.3260504E-02  4.3660401E-02
   12.5000  3.8657616E-02  3.0593493E-02  4.3186032E-02
   12.7500  3.8019462E-02  2.8336538E-02  4.2504797E-02
   13.0000  3.7515572E-02  2.6436478E-02  4.1683087E-02
   13.2500  3.7171399E-02  2.4842052E-02  4.0792284E-02
   13.5000  3.6992142E-02  2.3507703E-02  3.9899591E-02
   13.7500  3.6968773E-02  2.2394559E-02  3.9058153E-02
   14.0000  3.7082004E-02  2.1470158E-02  3.8303714E-02
   14.2500  3.7305617E-02  2.0707785E-02  3.7657195E-02
   14.5000  3.7608961E-02  2.0085665E-02  3.7128402E-02
   14.7500  3.7958723E-02  1.9586139E-02  3.6718730E-02
   15.0000  3.8320451E-02  1.9194892E-02  3.6422916E-02
   15.2500  3.8660190E-02  1.8900279E-02  3.6230315E-02
   15.5000  3.8946319E-02  1.8692755E-02  3.6125975E-02
   15.7500  3.9151493E-02  1.8564395E-02  3.6091680E-02
   16.0000  3.9254513E-02  1.8508502E-02  3.6107049E-02
   16.2500  3.9241853E-02  1.8519292E-02  3.6150751E-02
   16.5000  3.9108615E-02  1.8591646E-02  3.6201817E-02
   16.7500  3.8858686E-02  1.8720922E-02  3.6240994E-02
   17.0000  3.8504042E-02  1.8902825E-02  3.6252013E-02
   17.2500  3.8063234E-02  1.9133316E-02  3.6222595E-02
   17.5000  3.7559318E-02  1.9408554E-02  3.6145059E-02
   17.7500  3.7017533E-02  1.9724865E-02  3.6016426E-02
   18.0000  3.6463084E-02  2.0078718E-02  3.5838027E-02
   18.2500  3.5919287E-02  2.0466709E-02  3.5614714E-02
   18.5000  3.5406244E-02  2.0885553E-02  3.5353829E-02
   18.7500  3.4940081E-02  2.1332090E-02  3.5064111E-02
   19.0000  3.4532679E-02  2.1803305E-02  3.4754669E-02
   19.2500  3.4191780E-02  2.2296390E-02  3.4434133E-02
   19.5000  3.3921331E-02  2.2808817E-02  3.4110025E-02
   19.7500  3.3721925E-02  2.3338342E-02  3.3788383E-02
   20.0000  3.3591253E-02  2.3882781E-02  3.3473730E-02
   21.0000  3.3637632E-02  2.6146712E-02  3.2340135E-02
   22.0000  3.4202549E-02  2.8381634E-02  3.1443391E-02
   23.0000  3.4704351E-02  3.0390470E-02  3.0711099E-02
   24.0000  3.4656030E-02  3.1979958E-02  3.0034036E-02
   25.0000  3.3855526E-02  3.2989771E-02  2.9345382E-02
   26.0000  3.2454469E-02  3.3385355E-02  2.8642910E-02
   27.0000  3.0826308E-02  3.3252264E-02  2.7981667E-02
   28.0000  2.9309506E-02  3.2742800E-02  2.7429211E-02
   29.0000  2.8061936E-02  3.2015618E-02  2.7015883E-02
   30.0000  2.7089360E-02  3.1191180E-02  2.6720542E-02
   31.0000  2.6329307E-02  3.0339000E-02  2.6489193E-02
   32.0000  2.5706614E-02  2.9487849E-02  2.6260494E-02
   33.0000  2.5155692E-02  2.8643192E-02  2.5982348E-02
   34.0000  2.4627518E-02  2.7802146E-02  2.5618414E-02
   35.0000  2.4092828E-02  2.6963091E-02  2.5149386E-02
   36.0000  2.3544518E-02  2.6130085E-02  2.4573373E-02
   37.0000  2.2996879E-02  2.5314341E-02  2.3907713E-02
   38.0000  2.2479140E-02  2.4537352E-02  2.3193844E-02
   39.0000  2.2026186E-02  2.3838617E-02  2.2503537E-02
   40.0000  2.1670459E-02  2.3277004E-02  2.1930630E-02
