    Energy   (100,001)      (010,001)      (001,110)   
  -25.0000  1.7315030E-04  1.7646611E-04  1.7986918E-04
  -24.0000  1.7930274E-04  1.8345741E-04  1.8640938E-04
  -23.0000  1.8586622E-04  1.9096753E-04  1.9339949E-04
  -22.0000  1.9288215E-04  1.9905435E-04  2.0088635E-04
  -21.0000  2.0039760E-04  2.0778452E-04  2.0892349E-04
  -20.0000  2.0846634E-04  2.1723517E-04  2.1757233E-04
  -19.0000  2.1715003E-04  2.2749599E-04  2.2690366E-04
  -18.0000  2.2651972E-04  2.3867189E-04  2.3699953E-04
  -17.0000  2.3665772E-04  2.5088630E-04  2.4795558E-04
  -16.0000  2.4765989E-04  2.6428538E-04  2.5988390E-04
  -15.0000  2.5963858E-04  2.7904348E-04  2.7291682E-04
  -14.0000  2.7272626E-04  2.9537008E-04  2.8721161E-04
  -13.0000  2.8708032E-04  3.1351904E-04  3.0295668E-04
  -12.0000  3.0288913E-04  3.3380076E-04  3.2037971E-04
  -11.0000  3.2038015E-04  3.5659861E-04  3.3975848E-04
  -10.0000  3.3983063E-04  3.8239133E-04  3.6143546E-04
  -9.00000  3.6158211E-04  4.1178411E-04  3.8583800E-04
  -8.00000  3.8606041E-04  4.4555257E-04  4.1350653E-04
  -7.00000  4.1380357E-04  4.8470622E-04  4.4513503E-04
  -6.00000  4.4550216E-04  5.3058218E-04  4.8163051E-04
  -5.00000  4.8205861E-04  5.8498764E-04  5.2420288E-04
  -4.00000  5.2467749E-04  6.5042289E-04  5.7450570E-04
  -3.00000  5.7500843E-04  7.3044426E-04  6.3486540E-04
  -2.00000  6.3538284E-04  8.3028166E-04  7.0867364E-04
  -1.00000  7.0923029E-04  9.5795008E-04  8.0110127E-04
   0.00000  8.0187004E-04  1.1263998E-03  9.2050295E-04
   1.00000  9.2218367E-04  1.3581008E-03  1.0814832E-03
   2.00000  1.0867293E-03  1.6962769E-03  1.3126319E-03
   3.00000  1.3324885E-03  2.2390578E-03  1.6807460E-03
   4.00000  1.7738907E-03  3.2875800E-03  2.3977666E-03
   5.00000  2.9013790E-03  6.0975882E-03  4.3832250E-03
   5.20000  3.2514633E-03  6.9759155E-03  5.0356123E-03
   5.40000  3.6075869E-03  7.8730347E-03  5.7304590E-03
   5.60000  3.9617861E-03  8.7769672E-03  6.4621994E-03
   5.80000  4.3181730E-03  9.7097013E-03  7.2423493E-03
   6.00000  4.6829668E-03  1.0702283E-02  8.0825861E-03
   6.20000  5.0599804E-03  1.1783632E-02  8.9863696E-03
   6.40000  5.4505657E-03  1.2979061E-02  9.9455350E-03
   6.60000  5.8551304E-03  1.4311883E-02  1.0937803E-02
   6.80000  6.2747202E-03  1.5805735E-02  1.1926822E-02
   7.00000  6.7124871E-03  1.7487367E-02  1.2870269E-02
   7.20000  7.1752372E-03  1.9389695E-02  1.3738897E-02
   7.40000  7.6743796E-03  2.1553316E-02  1.4537990E-02
   7.60000  8.2248861E-03  2.4024044E-02  1.5313189E-02
   7.80000  8.8420348E-03  2.6846619E-02  1.6131303E-02
   8.00000  9.5375979E-03  3.0057277E-02  1.7047346E-02
   8.20000  1.0317285E-02  3.3676919E-02  1.8077224E-02
   8.40000  1.1179996E-02  3.7703761E-02  1.9186970E-02
   8.60000  1.2118877E-02  4.2102681E-02  2.0300564E-02
   8.80000  1.3124513E-02  4.6788955E-02  2.1325394E-02
   9.00000  1.4190108E-02  5.1607964E-02  2.2189218E-02
   9.20000  1.5316617E-02  5.6320578E-02  2.2872126E-02
   9.40000  1.6514393E-02  6.0611098E-02  2.3413878E-02
   9.60000  1.7799532E-02  6.4129990E-02  2.3892104E-02
   9.80000  1.9186742E-02  6.6564913E-02  2.4387757E-02
   10.0000  2.0682045E-02  6.7714113E-02  2.4958799E-02
   10.2500  2.2689143E-02  6.7287178E-02  2.5814340E-02
   10.5000  2.4798555E-02  6.5027308E-02  2.6812924E-02
   10.7500  2.6921418E-02  6.1410503E-02  2.7899698E-02
   11.0000  2.8946123E-02  5.6983639E-02  2.9006101E-02
   11.2500  3.0759491E-02  5.2236961E-02  3.0072470E-02
   11.5000  3.2273189E-02  4.7541580E-02  3.1061493E-02
   11.7500  3.3445670E-02  4.3139290E-02  3.1960615E-02
   12.0000  3.4287895E-02  3.9161965E-02  3.2773891E-02
   12.2500  3.4851970E-02  3.5660964E-02  3.3508083E-02
   12.5000  3.5210982E-02  3.2635113E-02  3.4162901E-02
   12.7500  3.5440403E-02  3.0052967E-02  3.4730960E-02
   13.0000  3.5607118E-02  2.7868511E-02  3.5202745E-02
   13.2500  3.5764949E-02  2.6031224E-02  3.5571952E-02
   13.5000  3.5952360E-02  2.4492275E-02  3.5840010E-02
   13.7500  3.6191246E-02  2.3207875E-02  3.6019016E-02
   14.0000  3.6488478E-02  2.2140318E-02  3.6131433E-02
   14.2500  3.6839379E-02  2.1257737E-02  3.6206030E-02
   14.5000  3.7230943E-02  2.0533485E-02  3.6272351E-02
   14.7500  3.7644143E-02  1.9945489E-02  3.6356109E-02
   15.0000  3.8055718E-02  1.9475606E-02  3.6476248E-02
   15.2500  3.8439914E-02  1.9109012E-02  3.6643488E-02
   15.5000  3.8770389E-02  1.8833633E-02  3.6859985E-02
   15.7500  3.9022272E-02  1.8639631E-02  3.7119826E-02
   16.0000  3.9174276E-02  1.8518963E-02  3.7410192E-02
   16.2500  3.9210677E-02  1.8465006E-02  3.7713077E-02
   16.5000  3.9122908E-02  1.8472266E-02  3.8007473E-02
   16.7500  3.8910498E-02  1.8536132E-02  3.8271824E-02
   17.0000  3.8581140E-02  1.8652697E-02  3.8486452E-02
   17.2500  3.8149827E-02  1.8818599E-02  3.8635606E-02
   17.5000  3.7637197E-02  1.9030905E-02  3.8708835E-02
   17.7500  3.7067379E-02  1.9287003E-02  3.8701540E-02
   18.0000  3.6465732E-02  1.9584518E-02  3.8614721E-02
   18.2500  3.5856819E-02  1.9921246E-02  3.8454120E-02
   18.5000  3.5262844E-02  2.0295101E-02  3.8228993E-02
   18.7500  3.4702645E-02  2.0704091E-02  3.7950768E-02
   19.0000  3.4191211E-02  2.1146320E-02  3.7631779E-02
   19.2500  3.3739628E-02  2.1620029E-02  3.7284171E-02
   19.5000  3.3355304E-02  2.2123650E-02  3.6919043E-02
   19.7500  3.3042375E-02  2.2655786E-02  3.6545899E-02
   20.0000  3.2802255E-02  2.3214955E-02  3.6172520E-02
   21.0000  3.2541355E-02  2.5667521E-02  3.4790887E-02
   22.0000  3.3234356E-02  2.8293453E-02  3.3724541E-02
   23.0000  3.4512112E-02  3.0816113E-02  3.2946006E-02
   24.0000  3.5833937E-02  3.2888734E-02  3.2310584E-02
   25.0000  3.6579057E-02  3.4212846E-02  3.1665544E-02
   26.0000  3.6329606E-02  3.4694578E-02  3.0929234E-02
   27.0000  3.5148211E-02  3.4466694E-02  3.0139612E-02
   28.0000  3.3474916E-02  3.3769826E-02  2.9420474E-02
   29.0000  3.1763417E-02  3.2831994E-02  2.8885785E-02
   30.0000  3.0276665E-02  3.1812150E-02  2.8570191E-02
   31.0000  2.9086425E-02  3.0783752E-02  2.8424166E-02
   32.0000  2.8164253E-02  2.9763945E-02  2.8361917E-02
   33.0000  2.7447200E-02  2.8745597E-02  2.8301132E-02
   34.0000  2.6867577E-02  2.7716300E-02  2.8177380E-02
   35.0000  2.6367379E-02  2.6670128E-02  2.7945711E-02
   36.0000  2.5905029E-02  2.5613842E-02  2.7579979E-02
   37.0000  2.5458093E-02  2.4569484E-02  2.7076242E-02
   38.0000  2.5024384E-02  2.3576189E-02  2.6462473E-02
   39.0000  2.4623160E-02  2.2692518E-02  2.5811762E-02
   40.0000  2.4291940E-02  2.1990376E-02  2.5241009E-02
