    Energy   (100,001)      (010,001)      (001,110)   
  -25.0000  1.7275426E-04  1.8764878E-04  1.8378281E-04
  -24.0000  1.7878143E-04  1.9472499E-04  1.9018114E-04
  -23.0000  1.8520833E-04  2.0231010E-04  1.9700839E-04
  -22.0000  1.9207527E-04  2.1045968E-04  2.0430856E-04
  -21.0000  1.9942814E-04  2.1923758E-04  2.1213184E-04
  -20.0000  2.0731941E-04  2.2871752E-04  2.2053573E-04
  -19.0000  2.1580932E-04  2.3898504E-04  2.2958645E-04
  -18.0000  2.2496741E-04  2.5013996E-04  2.3936067E-04
  -17.0000  2.3487441E-04  2.6229945E-04  2.4994761E-04
  -16.0000  2.4562453E-04  2.7560191E-04  2.6145175E-04
  -15.0000  2.5732848E-04  2.9021200E-04  2.7399627E-04
  -14.0000  2.7011721E-04  3.0632708E-04  2.8772741E-04
  -13.0000  2.8414683E-04  3.2418563E-04  3.0282019E-04
  -12.0000  2.9960503E-04  3.4407849E-04  3.1948586E-04
  -11.0000  3.1671954E-04  3.6636385E-04  3.3798196E-04
  -10.0000  3.3576957E-04  3.9148775E-04  3.5862579E-04
  -9.00000  3.5710153E-04  4.2001248E-04  3.8181306E-04
  -8.00000  3.8115083E-04  4.5265667E-04  4.0804415E-04
  -7.00000  4.0847326E-04  4.9035320E-04  4.3796179E-04
  -6.00000  4.3979071E-04  5.3433474E-04  4.7240685E-04
  -5.00000  4.7606042E-04  5.8626396E-04  5.1250327E-04
  -4.00000  5.1858332E-04  6.4843818E-04  5.5979234E-04
  -3.00000  5.6918102E-04  7.2412408E-04  6.1645479E-04
  -2.00000  6.3050094E-04  8.1813237E-04  6.8569841E-04
  -1.00000  7.0657881E-04  9.3786580E-04  7.7248332E-04
   0.00000  8.0397010E-04  1.0953866E-03  8.8500532E-04
   1.00000  9.3431067E-04  1.3119498E-03  1.0381160E-03
   2.00000  1.1211580E-03  1.6295608E-03  1.2626430E-03
   3.00000  1.4233931E-03  2.1480045E-03  1.6378985E-03
   4.00000  2.0522439E-03  3.1954757E-03  2.4568052E-03
   5.00000  3.9849192E-03  6.2248028E-03  5.1054901E-03
   5.20000  4.5430163E-03  7.1750785E-03  5.8807618E-03
   5.40000  5.0256032E-03  8.1175541E-03  6.5464548E-03
   5.60000  5.4103973E-03  9.0256985E-03  7.0648447E-03
   5.80000  5.7217718E-03  9.9133370E-03  7.4644092E-03
   6.00000  5.9985792E-03  1.0804427E-02  7.7934421E-03
   6.20000  6.2755001E-03  1.1719109E-02  8.0925020E-03
   6.40000  6.5778885E-03  1.2671501E-02  8.3884259E-03
   6.60000  6.9227846E-03  1.3671698E-02  8.6988624E-03
   6.80000  7.3215747E-03  1.4729085E-02  9.0387986E-03
   7.00000  7.7824219E-03  1.5855636E-02  9.4247084E-03
   7.20000  8.3119345E-03  1.7068089E-02  9.8753108E-03
   7.40000  8.9160295E-03  1.8388503E-02  1.0410179E-02
   7.60000  9.6001304E-03  1.9843533E-02  1.1047937E-02
   7.80000  1.0368874E-02  2.1462953E-02  1.1804710E-02
   8.00000  1.1225367E-02  2.3277502E-02  1.2692349E-02
   8.20000  1.2169856E-02  2.5316154E-02  1.3715837E-02
   8.40000  1.3197651E-02  2.7602895E-02  1.4869867E-02
   8.60000  1.4296688E-02  3.0153010E-02  1.6135544E-02
   8.80000  1.5446015E-02  3.2968814E-02  1.7478935E-02
   9.00000  1.6615896E-02  3.6034925E-02  1.8852859E-02
   9.20000  1.7769562E-02  3.9313332E-02  2.0202330E-02
   9.40000  1.8867562E-02  4.2738926E-02  2.1473599E-02
   9.60000  1.9874930E-02  4.6216529E-02  2.2624926E-02
   9.80000  2.0768896E-02  4.9620770E-02  2.3635181E-02
   10.0000  2.1543735E-02  5.2800293E-02  2.4506523E-02
   10.2500  2.2362676E-02  5.6203890E-02  2.5433954E-02
   10.5000  2.3058366E-02  5.8681443E-02  2.6240857E-02
   10.7500  2.3682493E-02  6.0002278E-02  2.6990020E-02
   11.0000  2.4277060E-02  6.0079430E-02  2.7728792E-02
   11.2500  2.4867684E-02  5.8985905E-02  2.8483892E-02
   11.5000  2.5464848E-02  5.6923965E-02  2.9262023E-02
   11.7500  2.6068607E-02  5.4162294E-02  3.0053409E-02
   12.0000  2.6673251E-02  5.0970522E-02  3.0837882E-02
   12.2500  2.7269919E-02  4.7578961E-02  3.1590676E-02
   12.5000  2.7846749E-02  4.4167165E-02  3.2285404E-02
   12.7500  2.8389525E-02  4.0867829E-02  3.2896676E-02
   13.0000  2.8884981E-02  3.7774209E-02  3.3404109E-02
   13.2500  2.9324548E-02  3.4946386E-02  3.3797090E-02
   13.5000  2.9706337E-02  3.2416337E-02  3.4078122E-02
   13.7500  3.0035342E-02  3.0193026E-02  3.4262503E-02
   14.0000  3.0322351E-02  2.8268143E-02  3.4374823E-02
   14.2500  3.0581906E-02  2.6622008E-02  3.4444366E-02
   14.5000  3.0829882E-02  2.5228787E-02  3.4500802E-02
   14.7500  3.1081274E-02  2.4060477E-02  3.4570700E-02
   15.0000  3.1348550E-02  2.3089573E-02  3.4675034E-02
   15.2500  3.1640575E-02  2.2290600E-02  3.4827673E-02
   15.5000  3.1961945E-02  2.1640806E-02  3.5034808E-02
   15.7500  3.2312596E-02  2.1120309E-02  3.5295220E-02
   16.0000  3.2687913E-02  2.0711936E-02  3.5600997E-02
   16.2500  3.3079461E-02  2.0400966E-02  3.5938390E-02
   16.5000  3.3476109E-02  2.0174853E-02  3.6288843E-02
   16.7500  3.3865207E-02  2.0022971E-02  3.6630414E-02
   17.0000  3.4233703E-02  1.9936370E-02  3.6939627E-02
   17.2500  3.4569177E-02  1.9907581E-02  3.7193664E-02
   17.5000  3.4860789E-02  1.9930439E-02  3.7372626E-02
   17.7500  3.5100087E-02  1.9999929E-02  3.7461569E-02
   18.0000  3.5281645E-02  2.0112043E-02  3.7451959E-02
   18.2500  3.5403460E-02  2.0263627E-02  3.7342315E-02
   18.5000  3.5467081E-02  2.0452241E-02  3.7137939E-02
   18.7500  3.5477440E-02  2.0676010E-02  3.6849835E-02
   19.0000  3.5442392E-02  2.0933512E-02  3.6493034E-02
   19.2500  3.5371983E-02  2.1223677E-02  3.6084650E-02
   19.5000  3.5277527E-02  2.1545722E-02  3.5641971E-02
   19.7500  3.5170649E-02  2.1899037E-02  3.5180917E-02
   20.0000  3.5062537E-02  2.2282938E-02  3.4715216E-02
   21.0000  3.4810041E-02  2.4091528E-02  3.3010962E-02
   22.0000  3.5106590E-02  2.6222344E-02  3.1802078E-02
   23.0000  3.5899825E-02  2.8480913E-02  3.1055520E-02
   24.0000  3.6797132E-02  3.0622134E-02  3.0577884E-02
   25.0000  3.7263583E-02  3.2403337E-02  3.0191497E-02
   26.0000  3.6875808E-02  3.3653126E-02  2.9788130E-02
   27.0000  3.5572591E-02  3.4317344E-02  2.9337857E-02
   28.0000  3.3680190E-02  3.4457961E-02  2.8877756E-02
   29.0000  3.1666607E-02  3.4206979E-02  2.8476661E-02
   30.0000  2.9878967E-02  3.3707744E-02  2.8189945E-02
   31.0000  2.8464422E-02  3.3074286E-02  2.8034145E-02
   32.0000  2.7425401E-02  3.2377238E-02  2.7991110E-02
   33.0000  2.6694387E-02  3.1648117E-02  2.8023662E-02
   34.0000  2.6184457E-02  3.0890871E-02  2.8087927E-02
   35.0000  2.5816873E-02  3.0094416E-02  2.8140544E-02
   36.0000  2.5534003E-02  2.9246142E-02  2.8143614E-02
   37.0000  2.5304837E-02  2.8352297E-02  2.8072253E-02
   38.0000  2.5121465E-02  2.7451421E-02  2.7924009E-02
   39.0000  2.4982358E-02  2.6607129E-02  2.7724675E-02
   40.0000  2.4881539E-02  2.5911680E-02  2.7530083E-02
