    Energy   (100,001)      (010,001)      (001,110)   
  -25.0000  1.6993613E-04  1.7222250E-04  1.7000521E-04
  -24.0000  1.7631312E-04  1.7903768E-04  1.7651845E-04
  -23.0000  1.8313659E-04  1.8635691E-04  1.8349629E-04
  -22.0000  1.9045343E-04  1.9423622E-04  1.9098829E-04
  -21.0000  1.9831716E-04  2.0274004E-04  1.9905118E-04
  -20.0000  2.0678920E-04  2.1194292E-04  2.0775015E-04
  -19.0000  2.1594036E-04  2.2193148E-04  2.1716052E-04
  -18.0000  2.2585268E-04  2.3280698E-04  2.2736968E-04
  -17.0000  2.3662170E-04  2.4468846E-04  2.3847967E-04
  -16.0000  2.4835937E-04  2.5771681E-04  2.5061028E-04
  -15.0000  2.6119772E-04  2.7205991E-04  2.6390307E-04
  -14.0000  2.7529348E-04  2.8791936E-04  2.7852649E-04
  -13.0000  2.9083414E-04  3.0553922E-04  2.9468248E-04
  -12.0000  3.0804587E-04  3.2521763E-04  3.1261520E-04
  -11.0000  3.2720393E-04  3.4732249E-04  3.3262251E-04
  -10.0000  3.4864679E-04  3.7231272E-04  3.5507151E-04
  -9.00000  3.7279530E-04  4.0076786E-04  3.8041972E-04
  -8.00000  4.0017947E-04  4.3342977E-04  4.0924458E-04
  -7.00000  4.3147637E-04  4.7126287E-04  4.4228528E-04
  -6.00000  4.6756532E-04  5.1554296E-04  4.8050365E-04
  -5.00000  5.0961028E-04  5.6799199E-04  5.2517474E-04
  -4.00000  5.5918696E-04  6.3098906E-04  5.7802629E-04
  -3.00000  6.1848643E-04  7.0791322E-04  6.4146115E-04
  -2.00000  6.9065710E-04  8.0372637E-04  7.1892839E-04
  -1.00000  7.8041354E-04  9.2602178E-04  8.1557806E-04
   0.00000  8.9520528E-04  1.0870519E-03  9.3950340E-04
   1.00000  1.0477009E-03  1.3080539E-03  1.1043404E-03
   2.00000  1.2618862E-03  1.6298669E-03  1.3355340E-03
   3.00000  1.5917059E-03  2.1453230E-03  1.6891523E-03
   4.00000  2.2022071E-03  3.1405143E-03  2.3330088E-03
   5.00000  3.7927561E-03  5.8164034E-03  3.9515042E-03
   5.20000  4.2999924E-03  6.6530647E-03  4.4419201E-03
   5.40000  4.8276515E-03  7.5033045E-03  4.9376629E-03
   5.60000  5.3638466E-03  8.3505250E-03  5.4347954E-03
   5.80000  5.9138825E-03  9.2109063E-03  5.9501440E-03
   6.00000  6.4906338E-03  1.0111649E-02  6.5072350E-03
   6.20000  7.1095248E-03  1.1081187E-02  7.1303668E-03
   6.40000  7.7867690E-03  1.2147546E-02  7.8434240E-03
   6.60000  8.5384466E-03  1.3338937E-02  8.6691599E-03
   6.80000  9.3794003E-03  1.4684565E-02  9.6273222E-03
   7.00000  1.0320924E-02  1.6215380E-02  1.0731083E-02
   7.20000  1.1365985E-02  1.7964831E-02  1.1981891E-02
   7.40000  1.2501912E-02  1.9969519E-02  1.3364447E-02
   7.60000  1.3693863E-02  2.2269388E-02  1.4846059E-02
   7.80000  1.4886269E-02  2.4906861E-02  1.6385768E-02
   8.00000  1.6018603E-02  2.7923737E-02  1.7953641E-02
   8.20000  1.7051509E-02  3.1354092E-02  1.9549054E-02
   8.40000  1.7986573E-02  3.5211894E-02  2.1201525E-02
   8.60000  1.8865355E-02  3.9473604E-02  2.2950743E-02
   8.80000  1.9750882E-02  4.4057848E-02  2.4820954E-02
   9.00000  2.0706567E-02  4.8806382E-02  2.6806329E-02
   9.20000  2.1782839E-02  5.3474058E-02  2.8871041E-02
   9.40000  2.3012249E-02  5.7738961E-02  3.0958009E-02
   9.60000  2.4409307E-02  6.1242986E-02  3.3000148E-02
   9.80000  2.5971768E-02  6.3662276E-02  3.4931549E-02
   10.0000  2.7681082E-02  6.4786892E-02  3.6696670E-02
   10.2500  2.9966798E-02  6.4324191E-02  3.8609295E-02
   10.5000  3.2311755E-02  6.2062409E-02  4.0156531E-02
   10.7500  3.4572539E-02  5.8534125E-02  4.1329497E-02
   11.0000  3.6597823E-02  5.4321772E-02  4.2143626E-02
   11.2500  3.8253138E-02  4.9910869E-02  4.2628990E-02
   11.5000  3.9444507E-02  4.5637376E-02  4.2825197E-02
   11.7500  4.0136978E-02  4.1696463E-02  4.2775230E-02
   12.0000  4.0359466E-02  3.8176216E-02  4.2520295E-02
   12.2500  4.0193255E-02  3.5094783E-02  4.2099141E-02
   12.5000  3.9750196E-02  3.2430452E-02  4.1549869E-02
   12.7500  3.9148946E-02  3.0142977E-02  4.0912276E-02
   13.0000  3.8496371E-02  2.8187147E-02  4.0228905E-02
   13.2500  3.7877674E-02  2.6519649E-02  3.9542732E-02
   13.5000  3.7353957E-02  2.5101664E-02  3.8893376E-02
   13.7500  3.6964014E-02  2.3899517E-02  3.8314378E-02
   14.0000  3.6727702E-02  2.2884478E-02  3.7831435E-02
   14.2500  3.6649372E-02  2.2032171E-02  3.7460830E-02
   14.5000  3.6721041E-02  2.1321951E-02  3.7208752E-02
   14.7500  3.6925262E-02  2.0736381E-02  3.7072150E-02
   15.0000  3.7237474E-02  2.0260820E-02  3.7040310E-02
   15.2500  3.7627795E-02  1.9883046E-02  3.7096278E-02
   15.5000  3.8062527E-02  1.9592930E-02  3.7218070E-02
   15.7500  3.8505716E-02  1.9382117E-02  3.7379983E-02
   16.0000  3.8920962E-02  1.9243748E-02  3.7554199E-02
   16.2500  3.9273573E-02  1.9172185E-02  3.7712759E-02
   16.5000  3.9532958E-02  1.9162760E-02  3.7829758E-02
   16.7500  3.9675009E-02  1.9211553E-02  3.7883503E-02
   17.0000  3.9684125E-02  1.9315190E-02  3.7858289E-02
   17.2500  3.9554508E-02  1.9470687E-02  3.7745473E-02
   17.5000  3.9290443E-02  1.9675321E-02  3.7543662E-02
   17.7500  3.8905471E-02  1.9926530E-02  3.7258016E-02
   18.0000  3.8420591E-02  2.0221842E-02  3.6898885E-02
   18.2500  3.7861798E-02  2.0558820E-02  3.6480072E-02
   18.5000  3.7257387E-02  2.0935026E-02  3.6017062E-02
   18.7500  3.6635421E-02  2.1348001E-02  3.5525447E-02
   19.0000  3.6021632E-02  2.1795267E-02  3.5019709E-02
   19.2500  3.5437904E-02  2.2274370E-02  3.4512355E-02
   19.5000  3.4901328E-02  2.2782929E-02  3.4013414E-02
   19.7500  3.4423802E-02  2.3318609E-02  3.3530248E-02
   20.0000  3.4012163E-02  2.3878855E-02  3.3067763E-02
   21.0000  3.3028414E-02  2.6284787E-02  3.1469783E-02
   22.0000  3.2824463E-02  2.8728559E-02  3.0260750E-02
   23.0000  3.2755675E-02  3.0937001E-02  2.9292370E-02
   24.0000  3.2279478E-02  3.2684450E-02  2.8423354E-02
   25.0000  3.1280574E-02  3.3805876E-02  2.7603371E-02
   26.0000  2.9988182E-02  3.4229823E-02  2.6855755E-02
   27.0000  2.8676844E-02  3.4025848E-02  2.6216682E-02
   28.0000  2.7527712E-02  3.3356285E-02  2.5708923E-02
   29.0000  2.6605694E-02  3.2399338E-02  2.5333587E-02
   30.0000  2.5885490E-02  3.1302337E-02  2.5063177E-02
   31.0000  2.5305601E-02  3.0165119E-02  2.4847344E-02
   32.0000  2.4808036E-02  2.9041625E-02  2.4630601E-02
   33.0000  2.4351331E-02  2.7950462E-02  2.4368631E-02
   34.0000  2.3910424E-02  2.6888887E-02  2.4035285E-02
   35.0000  2.3474857E-02  2.5846905E-02  2.3622775E-02
   36.0000  2.3047370E-02  2.4819222E-02  2.3140924E-02
   37.0000  2.2640462E-02  2.3814318E-02  2.2617621E-02
   38.0000  2.2270602E-02  2.2860912E-02  2.2097522E-02
   39.0000  2.1954109E-02  2.2011598E-02  2.1634351E-02
   40.0000  2.1706585E-02  2.1335341E-02  2.1273921E-02
