    Energy   (100,001)      (010,001)      (001,110)   
  -25.0000  1.6727611E-04  1.8137552E-04  1.6926483E-04
  -24.0000  1.7330391E-04  1.8827623E-04  1.7537236E-04
  -23.0000  1.7973441E-04  1.9567550E-04  1.8189054E-04
  -22.0000  1.8660783E-04  2.0362788E-04  1.8886075E-04
  -21.0000  1.9396984E-04  2.1219603E-04  1.9633003E-04
  -20.0000  2.0187248E-04  2.2145231E-04  2.0435205E-04
  -19.0000  2.1037535E-04  2.3148064E-04  2.1298837E-04
  -18.0000  2.1954697E-04  2.4237899E-04  2.2230983E-04
  -17.0000  2.2946652E-04  2.5426229E-04  2.3239848E-04
  -16.0000  2.4022603E-04  2.6726631E-04  2.4334980E-04
  -15.0000  2.5193302E-04  2.8155252E-04  2.5527553E-04
  -14.0000  2.6471393E-04  2.9731436E-04  2.6830739E-04
  -13.0000  2.7871846E-04  3.1478550E-04  2.8260159E-04
  -12.0000  2.9412516E-04  3.3425074E-04  2.9834495E-04
  -11.0000  3.1114878E-04  3.5606056E-04  3.1576270E-04
  -10.0000  3.3004994E-04  3.8065103E-04  3.3512897E-04
  -9.00000  3.5114819E-04  4.0857118E-04  3.5678094E-04
  -8.00000  3.7483977E-04  4.4052174E-04  3.8113825E-04
  -7.00000  4.0162251E-04  4.7741060E-04  4.0873029E-04
  -6.00000  4.3213117E-04  5.2043463E-04  4.4023536E-04
  -5.00000  4.6718926E-04  5.7120331E-04  4.7653852E-04
  -4.00000  5.0788715E-04  6.3193163E-04  5.1881993E-04
  -3.00000  5.5570452E-04  7.0575286E-04  5.6869523E-04
  -2.00000  6.1271112E-04  7.9724908E-04  6.2845037E-04
  -1.00000  6.8191625E-04  9.1340466E-04  7.0146024E-04
   0.00000  7.6792524E-04  1.0654514E-03  7.9300169E-04
   1.00000  8.7831060E-04  1.2728186E-03  9.1202632E-04
   2.00000  1.0269450E-03  1.5729055E-03  1.0757201E-03
   3.00000  1.2442231E-03  2.0513233E-03  1.3245016E-03
   4.00000  1.6225084E-03  2.9765430E-03  1.7940076E-03
   5.00000  2.5522264E-03  5.4913458E-03  3.1064838E-03
   5.20000  2.8360389E-03  6.2697898E-03  3.5128817E-03
   5.40000  3.1226984E-03  7.0492361E-03  3.9042394E-03
   5.60000  3.4052509E-03  7.8136875E-03  4.2561653E-03
   5.80000  3.6872520E-03  8.5792284E-03  4.5602502E-03
   6.00000  3.9758129E-03  9.3704494E-03  4.8161923E-03
   6.20000  4.2783875E-03  1.0210136E-02  5.0301926E-03
   6.40000  4.6016708E-03  1.1118028E-02  5.2156471E-03
   6.60000  4.9507191E-03  1.2112340E-02  5.3921656E-03
   6.80000  5.3286213E-03  1.3211761E-02  5.5824023E-03
   7.00000  5.7375358E-03  1.4437151E-02  5.8080878E-03
   7.20000  6.1804489E-03  1.5812408E-02  6.0873071E-03
   7.40000  6.6621751E-03  1.7364528E-02  6.4341061E-03
   7.60000  7.1890915E-03  1.9123244E-02  6.8597000E-03
   7.80000  7.7681271E-03  2.1120430E-02  7.3738361E-03
   8.00000  8.4055463E-03  2.3389084E-02  7.9854047E-03
   8.20000  9.1056875E-03  2.5961524E-02  8.7020845E-03
   8.40000  9.8696614E-03  2.8866142E-02  9.5291269E-03
   8.60000  1.0694198E-02  3.2121791E-02  1.0467536E-02
   8.80000  1.1571258E-02  3.5729225E-02  1.1512137E-02
   9.00000  1.2489294E-02  3.9659559E-02  1.2650382E-02
   9.20000  1.3436706E-02  4.3840637E-02  1.3862972E-02
   9.40000  1.4406701E-02  4.8143882E-02  1.5126928E-02
   9.60000  1.5401142E-02  5.2376556E-02  1.6420510E-02
   9.80000  1.6430598E-02  5.6286611E-02  1.7727934E-02
   10.0000  1.7509899E-02  5.9587106E-02  1.9041676E-02
   10.2500  1.8947473E-02  6.2440336E-02  2.0692842E-02
   10.5000  2.0489528E-02  6.3542238E-02  2.2362070E-02
   10.7500  2.2122194E-02  6.2829033E-02  2.4059271E-02
   11.0000  2.3812922E-02  6.0556471E-02  2.5789316E-02
   11.2500  2.5514800E-02  5.7178413E-02  2.7547831E-02
   11.5000  2.7172721E-02  5.3184259E-02  2.9318690E-02
   11.7500  2.8732595E-02  4.8985609E-02  3.1072376E-02
   12.0000  3.0151519E-02  4.4876098E-02  3.2766347E-02
   12.2500  3.1405441E-02  4.1038946E-02  3.4348943E-02
   12.5000  3.2491968E-02  3.7572100E-02  3.5767255E-02
   12.7500  3.3427802E-02  3.4514190E-02  3.6977145E-02
   13.0000  3.4241738E-02  3.1865027E-02  3.7953010E-02
   13.2500  3.4966281E-02  2.9600130E-02  3.8693932E-02
   13.5000  3.5631346E-02  2.7681561E-02  3.9223114E-02
   13.7500  3.6260704E-02  2.6066800E-02  3.9581065E-02
   14.0000  3.6870461E-02  2.4715030E-02  3.9816151E-02
   14.2500  3.7469053E-02  2.3589882E-02  3.9976172E-02
   14.5000  3.8058228E-02  2.2659828E-02  4.0102565E-02
   14.7500  3.8634464E-02  2.1897894E-02  4.0227223E-02
   15.0000  3.9190467E-02  2.1281255E-02  4.0371370E-02
   15.2500  3.9716585E-02  2.0790788E-02  4.0545880E-02
   15.5000  4.0202052E-02  2.0410584E-02  4.0752452E-02
   15.7500  4.0636074E-02  2.0127454E-02  4.0985241E-02
   16.0000  4.1008743E-02  1.9930461E-02  4.1232686E-02
   16.2500  4.1311816E-02  1.9810492E-02  4.1479435E-02
   16.5000  4.1539386E-02  1.9759893E-02  4.1708267E-02
   16.7500  4.1688426E-02  1.9772158E-02  4.1901985E-02
   17.0000  4.1759185E-02  1.9841674E-02  4.2045140E-02
   17.2500  4.1755378E-02  1.9963513E-02  4.2125473E-02
   17.5000  4.1684099E-02  2.0133272E-02  4.2134919E-02
   17.7500  4.1555444E-02  2.0346940E-02  4.2070074E-02
   18.0000  4.1381834E-02  2.0600812E-02  4.1932112E-02
   18.2500  4.1177125E-02  2.0891417E-02  4.1726196E-02
   18.5000  4.0955594E-02  2.1215487E-02  4.1460545E-02
   18.7500  4.0730941E-02  2.1569947E-02  4.1145314E-02
   19.0000  4.0515401E-02  2.1951943E-02  4.0791452E-02
   19.2500  4.0319060E-02  2.2358890E-02  4.0409672E-02
   19.5000  4.0149388E-02  2.2788539E-02  4.0009614E-02
   19.7500  4.0010988E-02  2.3238970E-02  3.9599307E-02
   20.0000  3.9905558E-02  2.3708370E-02  3.9185063E-02
   21.0000  3.9763366E-02  2.5723190E-02  3.7574907E-02
   22.0000  3.9785826E-02  2.7809781E-02  3.6127496E-02
   23.0000  3.9510592E-02  2.9767055E-02  3.4808443E-02
   24.0000  3.8621887E-02  3.1392889E-02  3.3540405E-02
   25.0000  3.7077903E-02  3.2540560E-02  3.2283292E-02
   26.0000  3.5069498E-02  3.3160782E-02  3.1052729E-02
   27.0000  3.2902685E-02  3.3296044E-02  2.9909828E-02
   28.0000  3.0866865E-02  3.3045906E-02  2.8930226E-02
   29.0000  2.9153513E-02  3.2531861E-02  2.8165567E-02
   30.0000  2.7836625E-02  3.1867246E-02  2.7617192E-02
   31.0000  2.6881867E-02  3.1125558E-02  2.7234228E-02
   32.0000  2.6204063E-02  3.0344215E-02  2.6944444E-02
   33.0000  2.5711024E-02  2.9540124E-02  2.6679056E-02
   34.0000  2.5319142E-02  2.8722033E-02  2.6381950E-02
   35.0000  2.4957721E-02  2.7899380E-02  2.6013204E-02
   36.0000  2.4570657E-02  2.7085240E-02  2.5551662E-02
   37.0000  2.4121683E-02  2.6294596E-02  2.4997802E-02
   38.0000  2.3605724E-02  2.5545035E-02  2.4378297E-02
   39.0000  2.3063305E-02  2.4867661E-02  2.3753636E-02
   40.0000  2.2581966E-02  2.4317830E-02  2.3217527E-02
