    Energy   (100,001)      (010,001)      (001,110)   
  -25.0000  1.6502411E-04  1.9210331E-04  1.8052426E-04
  -24.0000  1.7108992E-04  1.9902582E-04  1.8720554E-04
  -23.0000  1.7756718E-04  2.0643029E-04  1.9435404E-04
  -22.0000  1.8449751E-04  2.1436808E-04  2.0201912E-04
  -21.0000  1.9192821E-04  2.2289806E-04  2.1025726E-04
  -20.0000  1.9991325E-04  2.3208799E-04  2.1913336E-04
  -19.0000  2.0851454E-04  2.4201628E-04  2.2872241E-04
  -18.0000  2.1780335E-04  2.5277418E-04  2.3911142E-04
  -17.0000  2.2786221E-04  2.6446845E-04  2.5040203E-04
  -16.0000  2.3878714E-04  2.7722478E-04  2.6271363E-04
  -15.0000  2.5069059E-04  2.9119220E-04  2.7618744E-04
  -14.0000  2.6370500E-04  3.0654865E-04  2.9099168E-04
  -13.0000  2.7798755E-04  3.2350837E-04  3.0732842E-04
  -12.0000  2.9372610E-04  3.4233147E-04  3.2544245E-04
  -11.0000  3.1114717E-04  3.6333694E-04  3.4563325E-04
  -10.0000  3.3052637E-04  3.8692004E-04  3.6827123E-04
  -9.00000  3.5220260E-04  4.1357650E-04  3.9382013E-04
  -8.00000  3.7659749E-04  4.4393632E-04  4.2286856E-04
  -7.00000  4.0424257E-04  4.7881228E-04  4.5617543E-04
  -6.00000  4.3581829E-04  5.1927113E-04  4.9473711E-04
  -5.00000  4.7221131E-04  5.6674098E-04  5.3988954E-04
  -4.00000  5.1460154E-04  6.2317865E-04  5.9346910E-04
  -3.00000  5.6459929E-04  6.9134061E-04  6.5807675E-04
  -2.00000  6.2447205E-04  7.7524310E-04  7.3753396E-04
  -1.00000  6.9754206E-04  8.8099123E-04  8.3772027E-04
   0.00000  7.8894052E-04  1.0183928E-03  9.6823879E-04
   1.00000  9.0719900E-04  1.2044462E-03  1.1460932E-03
   2.00000  1.0681650E-03  1.4720968E-03  1.4050691E-03
   3.00000  1.3071815E-03  1.8978469E-03  1.8253709E-03
   4.00000  1.7341054E-03  2.7270571E-03  2.6646541E-03
   5.00000  2.8191228E-03  5.0322139E-03  5.0682042E-03
   5.20000  3.1489870E-03  5.7575317E-03  5.8915362E-03
   5.40000  3.4773559E-03  6.4869278E-03  6.7885363E-03
   5.60000  3.7962991E-03  7.1996888E-03  7.7426733E-03
   5.80000  4.1114739E-03  7.9020313E-03  8.7510985E-03
   6.00000  4.4323456E-03  8.6069536E-03  9.8088415E-03
   6.20000  4.7675308E-03  9.3259675E-03  1.0901085E-02
   6.40000  5.1237088E-03  1.0069093E-02  1.2003105E-02
   6.60000  5.5055659E-03  1.0846997E-02  1.3084806E-02
   6.80000  5.9159690E-03  1.1672620E-02  1.4117654E-02
   7.00000  6.3564392E-03  1.2561552E-02  1.5081382E-02
   7.20000  6.8281741E-03  1.3531294E-02  1.5967627E-02
   7.40000  7.3336526E-03  1.4600022E-02  1.6779083E-02
   7.60000  7.8783473E-03  1.5785545E-02  1.7525378E-02
   7.80000  8.4717059E-03  1.7104904E-02  1.8218652E-02
   8.00000  9.1268594E-03  1.8574584E-02  1.8871487E-02
   8.20000  9.8592447E-03  2.0210960E-02  1.9497752E-02
   8.40000  1.0684745E-02  2.2030534E-02  2.0114599E-02
   8.60000  1.1617796E-02  2.4049710E-02  2.0743171E-02
   8.80000  1.2669515E-02  2.6283728E-02  2.1406939E-02
   9.00000  1.3845707E-02  2.8744376E-02  2.2128056E-02
   9.20000  1.5144606E-02  3.1436487E-02  2.2922654E-02
   9.40000  1.6554549E-02  3.4353430E-02  2.3796380E-02
   9.60000  1.8052292E-02  3.7471815E-02  2.4741910E-02
   9.80000  1.9603140E-02  4.0745588E-02  2.5739756E-02
   10.0000  2.1163853E-02  4.4099706E-02  2.6762484E-02
   10.2500  2.3058550E-02  4.8234326E-02  2.8031972E-02
   10.5000  2.4817558E-02  5.2025530E-02  2.9249754E-02
   10.7500  2.6388920E-02  5.5114571E-02  3.0389129E-02
   11.0000  2.7752584E-02  5.7147409E-02  3.1436639E-02
   11.2500  2.8914167E-02  5.7880005E-02  3.2384705E-02
   11.5000  2.9893774E-02  5.7268003E-02  3.3228806E-02
   11.7500  3.0715096E-02  5.5480456E-02  3.3966995E-02
   12.0000  3.1400412E-02  5.2831918E-02  3.4599077E-02
   12.2500  3.1971834E-02  4.9681735E-02  3.5126662E-02
   12.5000  3.2452400E-02  4.6349358E-02  3.5555682E-02
   12.7500  3.2865529E-02  4.3070058E-02  3.5898746E-02
   13.0000  3.3234681E-02  3.9989985E-02  3.6174669E-02
   13.2500  3.3582613E-02  3.7183682E-02  3.6405794E-02
   13.5000  3.3929911E-02  3.4677021E-02  3.6614979E-02
   13.7500  3.4293346E-02  3.2466623E-02  3.6823434E-02
   14.0000  3.4684880E-02  3.0533592E-02  3.7049376E-02
   14.2500  3.5111937E-02  2.8852242E-02  3.7306976E-02
   14.5000  3.5578297E-02  2.7395166E-02  3.7605522E-02
   14.7500  3.6084817E-02  2.6135955E-02  3.7948955E-02
   15.0000  3.6629771E-02  2.5050515E-02  3.8335768E-02
   15.2500  3.7208892E-02  2.4117592E-02  3.8759175E-02
   15.5000  3.7815330E-02  2.3318844E-02  3.9207507E-02
   15.7500  3.8439644E-02  2.2638671E-02  3.9664842E-02
   16.0000  3.9070037E-02  2.2063925E-02  4.0111945E-02
   16.2500  3.9692889E-02  2.1583563E-02  4.0527542E-02
   16.5000  4.0293650E-02  2.1188304E-02  4.0889936E-02
   16.7500  4.0858004E-02  2.0870298E-02  4.1178818E-02
   17.0000  4.1373153E-02  2.0622840E-02  4.1377089E-02
   17.2500  4.1829005E-02  2.0440126E-02  4.1472393E-02
   17.5000  4.2219073E-02  2.0317058E-02  4.1458126E-02
   17.7500  4.2540917E-02  2.0249097E-02  4.1333746E-02
   18.0000  4.2796081E-02  2.0232163E-02  4.1104385E-02
   18.2500  4.2989572E-02  2.0262563E-02  4.0779892E-02
   18.5000  4.3129020E-02  2.0336948E-02  4.0373534E-02
   18.7500  4.3223660E-02  2.0452302E-02  3.9900593E-02
   19.0000  4.3283310E-02  2.0605936E-02  3.9377026E-02
   19.2500  4.3317430E-02  2.0795512E-02  3.8818296E-02
   19.5000  4.3334348E-02  2.1019062E-02  3.8238431E-02
   19.7500  4.3340676E-02  2.1274973E-02  3.7649418E-02
   20.0000  4.3340947E-02  2.1561838E-02  3.7061126E-02
   21.0000  4.3299159E-02  2.2986451E-02  3.4865977E-02
   22.0000  4.3043586E-02  2.4784218E-02  3.3116181E-02
   23.0000  4.2199180E-02  2.6873563E-02  3.1799640E-02
   24.0000  4.0434054E-02  2.9129413E-02  3.0767691E-02
   25.0000  3.7760445E-02  3.1318027E-02  2.9878198E-02
   26.0000  3.4605551E-02  3.3131167E-02  2.9053617E-02
   27.0000  3.1488362E-02  3.4376535E-02  2.8272423E-02
   28.0000  2.8777357E-02  3.5016780E-02  2.7550252E-02
   29.0000  2.6626085E-02  3.5135970E-02  2.6918752E-02
   30.0000  2.5026644E-02  3.4884899E-02  2.6404018E-02
   31.0000  2.3893939E-02  3.4416528E-02  2.6013706E-02
   32.0000  2.3121532E-02  3.3844868E-02  2.5736295E-02
   33.0000  2.2606947E-02  3.3234341E-02  2.5547490E-02
   34.0000  2.2260816E-02  3.2608065E-02  2.5416075E-02
   35.0000  2.2009703E-02  3.1963542E-02  2.5306685E-02
   36.0000  2.1797428E-02  3.1289336E-02  2.5182369E-02
   37.0000  2.1586898E-02  3.0580203E-02  2.5010489E-02
   38.0000  2.1362876E-02  2.9850742E-02  2.4774188E-02
   39.0000  2.1134424E-02  2.9149358E-02  2.4489603E-02
   40.0000  2.0931284E-02  2.8562326E-02  2.4216465E-02
