    Energy   (100,001)      (010,001)      (001,110)   
  -25.0000  1.7379336E-04  1.8433818E-04  1.8189704E-04
  -24.0000  1.7987713E-04  1.9133835E-04  1.8808477E-04
  -23.0000  1.8636205E-04  1.9884488E-04  1.9467441E-04
  -22.0000  1.9328810E-04  2.0691329E-04  2.0170564E-04
  -21.0000  2.0070069E-04  2.1560743E-04  2.0922350E-04
  -20.0000  2.0865162E-04  2.2500104E-04  2.1727932E-04
  -19.0000  2.1720027E-04  2.3517972E-04  2.2593186E-04
  -18.0000  2.2641497E-04  2.4624340E-04  2.3524868E-04
  -17.0000  2.3637485E-04  2.5830944E-04  2.4530786E-04
  -16.0000  2.4717198E-04  2.7151653E-04  2.5620014E-04
  -15.0000  2.5891417E-04  2.8602974E-04  2.6803159E-04
  -14.0000  2.7172852E-04  3.0204699E-04  2.8092701E-04
  -13.0000  2.8576592E-04  3.1980759E-04  2.9503423E-04
  -12.0000  3.0120699E-04  3.3960347E-04  3.1052974E-04
  -11.0000  3.1826981E-04  3.6179430E-04  3.2762603E-04
  -10.0000  3.3722032E-04  3.8682812E-04  3.4658137E-04
  -9.00000  3.5838644E-04  4.1526986E-04  3.6771293E-04
  -8.00000  3.8217754E-04  4.4784165E-04  3.9141494E-04
  -7.00000  4.0911212E-04  4.8548086E-04  4.1818402E-04
  -6.00000  4.3985772E-04  5.2942583E-04  4.4865562E-04
  -5.00000  4.7529060E-04  5.8134590E-04  4.8365778E-04
  -4.00000  5.1658761E-04  6.4354525E-04  5.2429303E-04
  -3.00000  5.6537397E-04  7.1929471E-04  5.7206851E-04
  -2.00000  6.2397278E-04  8.1339799E-04  6.2911295E-04
  -1.00000  6.9585424E-04  9.3321580E-04  6.9856218E-04
   0.00000  7.8651382E-04  1.0906634E-03  7.8530414E-04
   1.00000  9.0539113E-04  1.3065253E-03  8.9759231E-04
   2.00000  1.0707796E-03  1.6212423E-03  1.0511623E-03
   3.00000  1.3257548E-03  2.1286560E-03  1.2826864E-03
   4.00000  1.8131614E-03  3.1277011E-03  1.7144528E-03
   5.00000  3.1659703E-03  5.9069779E-03  2.8841387E-03
   5.20000  3.5736561E-03  6.7728557E-03  3.2186394E-03
   5.40000  3.9649464E-03  7.6379972E-03  3.5247375E-03
   5.60000  4.3298811E-03  8.4821300E-03  3.7964928E-03
   5.80000  4.6791254E-03  9.3215500E-03  4.0468722E-03
   6.00000  5.0282196E-03  1.0183269E-02  4.2916497E-03
   6.20000  5.3904535E-03  1.1093387E-02  4.5436863E-03
   6.40000  5.7755110E-03  1.2075269E-02  4.8131188E-03
   6.60000  6.1898433E-03  1.3150529E-02  5.1087651E-03
   6.80000  6.6374315E-03  1.4340241E-02  5.4392305E-03
   7.00000  7.1207409E-03  1.5665831E-02  5.8134427E-03
   7.20000  7.6418589E-03  1.7149536E-02  6.2406317E-03
   7.40000  8.2036849E-03  1.8814397E-02  6.7298742E-03
   7.60000  8.8108871E-03  2.0683624E-02  7.2892330E-03
   7.80000  9.4702761E-03  2.2779274E-02  7.9242276E-03
   8.00000  1.0190296E-02  2.5120582E-02  8.6352897E-03
   8.20000  1.0979466E-02  2.7722833E-02  9.4145479E-03
   8.40000  1.1843739E-02  3.0597109E-02  1.0243698E-02
   8.60000  1.2782927E-02  3.3749479E-02  1.1095740E-02
   8.80000  1.3786843E-02  3.7176506E-02  1.1942232E-02
   9.00000  1.4832497E-02  4.0853518E-02  1.2763715E-02
   9.20000  1.5884294E-02  4.4715933E-02  1.3557336E-02
   9.40000  1.6899177E-02  4.8641486E-02  1.4336917E-02
   9.60000  1.7836751E-02  5.2445307E-02  1.5126389E-02
   9.80000  1.8670857E-02  5.5894884E-02  1.5951481E-02
   10.0000  1.9396674E-02  5.8741654E-02  1.6833658E-02
   10.2500  2.0176033E-02  6.1113221E-02  1.8037788E-02
   10.5000  2.0863600E-02  6.1897847E-02  1.9364252E-02
   10.7500  2.1514265E-02  6.1048562E-02  2.0807335E-02
   11.0000  2.2170515E-02  5.8791323E-02  2.2347865E-02
   11.2500  2.2858670E-02  5.5540575E-02  2.3957444E-02
   11.5000  2.3588893E-02  5.1757417E-02  2.5600187E-02
   11.7500  2.4356803E-02  4.7834072E-02  2.7232688E-02
   12.0000  2.5146871E-02  4.4043536E-02  2.8806165E-02
   12.2500  2.5937352E-02  4.0541989E-02  3.0271099E-02
   12.5000  2.6706193E-02  3.7397785E-02  3.1584621E-02
   12.7500  2.7436816E-02  3.4625497E-02  3.2718482E-02
   13.0000  2.8122356E-02  3.2211684E-02  3.3663370E-02
   13.2500  2.8766873E-02  3.0129520E-02  3.4428482E-02
   13.5000  2.9383257E-02  2.8346402E-02  3.5037911E-02
   13.7500  2.9988514E-02  2.6828364E-02  3.5525480E-02
   14.0000  3.0598924E-02  2.5542779E-02  3.5929287E-02
   14.2500  3.1227462E-02  2.4459889E-02  3.6286969E-02
   14.5000  3.1883014E-02  2.3553511E-02  3.6632140E-02
   14.7500  3.2570087E-02  2.2801090E-02  3.6992133E-02
   15.0000  3.3288702E-02  2.2183383E-02  3.7386884E-02
   15.2500  3.4034472E-02  2.1683998E-02  3.7828561E-02
   15.5000  3.4798911E-02  2.1288930E-02  3.8321560E-02
   15.7500  3.5569942E-02  2.0986153E-02  3.8862688E-02
   16.0000  3.6332619E-02  2.0765265E-02  3.9441472E-02
   16.2500  3.7070026E-02  2.0617229E-02  4.0040715E-02
   16.5000  3.7764375E-02  2.0534168E-02  4.0637480E-02
   16.7500  3.8398280E-02  2.0509230E-02  4.1204662E-02
   17.0000  3.8956158E-02  2.0536499E-02  4.1713229E-02
   17.2500  3.9425632E-02  2.0610919E-02  4.2134990E-02
   17.5000  3.9798780E-02  2.0728236E-02  4.2445565E-02
   17.7500  4.0073035E-02  2.0884910E-02  4.2627062E-02
   18.0000  4.0251567E-02  2.1078018E-02  4.2669951E-02
   18.2500  4.0343051E-02  2.1305144E-02  4.2573778E-02
   18.5000  4.0360808E-02  2.1564264E-02  4.2346611E-02
   18.7500  4.0321464E-02  2.1853638E-02  4.2003409E-02
   19.0000  4.0243317E-02  2.2171736E-02  4.1563713E-02
   19.2500  4.0144658E-02  2.2517202E-02  4.1049100E-02
   19.5000  4.0042260E-02  2.2888832E-02  4.0480833E-02
   19.7500  3.9950214E-02  2.3285515E-02  3.9878104E-02
   20.0000  3.9879248E-02  2.3705994E-02  3.9257233E-02
   21.0000  3.9908326E-02  2.5578050E-02  3.6838154E-02
   22.0000  4.0374631E-02  2.7601869E-02  3.4843033E-02
   23.0000  4.0810522E-02  2.9553191E-02  3.3333456E-02
   24.0000  4.0615173E-02  3.1205346E-02  3.2198701E-02
   25.0000  3.9433321E-02  3.2387515E-02  3.1307237E-02
   26.0000  3.7371286E-02  3.3023853E-02  3.0555913E-02
   27.0000  3.4889796E-02  3.3139597E-02  2.9891258E-02
   28.0000  3.2482970E-02  3.2839621E-02  2.9310227E-02
   29.0000  3.0445727E-02  3.2264894E-02  2.8837401E-02
   30.0000  2.8857328E-02  3.1546119E-02  2.8492938E-02
   31.0000  2.7676358E-02  3.0776149E-02  2.8273716E-02
   32.0000  2.6822363E-02  3.0010217E-02  2.8154764E-02
   33.0000  2.6214079E-02  2.9276498E-02  2.8101123E-02
   34.0000  2.5785468E-02  2.8576720E-02  2.8078639E-02
   35.0000  2.5484467E-02  2.7901119E-02  2.8059194E-02
   36.0000  2.5266702E-02  2.7240024E-02  2.8021043E-02
   37.0000  2.5092137E-02  2.6587230E-02  2.7948361E-02
   38.0000  2.4926932E-02  2.5946926E-02  2.7833917E-02
   39.0000  2.4753824E-02  2.5348030E-02  2.7687201E-02
   40.0000  2.4587600E-02  2.4851372E-02  2.7542416E-02
