    Energy   (100,001)      (010,001)      (001,110)   
  -25.0000  1.6466865E-04  1.8052225E-04  1.7284034E-04
  -24.0000  1.7081060E-04  1.8751398E-04  1.7936953E-04
  -23.0000  1.7737454E-04  1.9501708E-04  1.8635957E-04
  -22.0000  1.8440364E-04  2.0308804E-04  1.9385932E-04
  -21.0000  1.9194703E-04  2.1179186E-04  2.0192472E-04
  -20.0000  2.0006086E-04  2.2120365E-04  2.1062004E-04
  -19.0000  2.0880957E-04  2.3141070E-04  2.2001953E-04
  -18.0000  2.1826749E-04  2.4251498E-04  2.3020937E-04
  -17.0000  2.2852080E-04  2.5463634E-04  2.4129023E-04
  -16.0000  2.3966993E-04  2.6791656E-04  2.5338033E-04
  -15.0000  2.5183262E-04  2.8252452E-04  2.6661950E-04
  -14.0000  2.6514784E-04  2.9866292E-04  2.8117430E-04
  -13.0000  2.7978072E-04  3.1657708E-04  2.9724471E-04
  -12.0000  2.9592898E-04  3.3656656E-04  3.1507294E-04
  -11.0000  3.1383141E-04  3.5900082E-04  3.3495518E-04
  -10.0000  3.3377912E-04  3.8434058E-04  3.5725757E-04
  -9.00000  3.5613066E-04  4.1316737E-04  3.8243819E-04
  -8.00000  3.8133291E-04  4.4622527E-04  4.1107798E-04
  -7.00000  4.0995031E-04  4.8448117E-04  4.4392531E-04
  -6.00000  4.4270670E-04  5.2921349E-04  4.8196158E-04
  -5.00000  4.8054704E-04  5.8214699E-04  5.2650109E-04
  -4.00000  5.2473093E-04  6.4566353E-04  5.7934825E-04
  -3.00000  5.7698039E-04  7.2314476E-04  6.4305583E-04
  -2.00000  6.3972392E-04  8.1955501E-04  7.2137195E-04
  -1.00000  7.1652487E-04  9.4249084E-04  8.2006562E-04
   0.00000  8.1289444E-04  1.1042150E-03  9.4858510E-04
   1.00000  9.3801008E-04  1.3260092E-03  1.1237855E-03
   2.00000  1.1089573E-03  1.6489164E-03  1.3797296E-03
   3.00000  1.3640042E-03  2.1667754E-03  1.8001841E-03
   4.00000  1.8231440E-03  3.1717540E-03  2.6728704E-03
   5.00000  3.0041125E-03  5.9028333E-03  5.3369765E-03
   5.20000  3.3617222E-03  6.7580049E-03  6.2106414E-03
   5.40000  3.7128937E-03  7.6243300E-03  7.0937466E-03
   5.60000  4.0462520E-03  8.4830667E-03  7.9413178E-03
   5.80000  4.3661990E-03  9.3484199E-03  8.7284713E-03
   6.00000  4.6828972E-03  1.0244684E-02  9.4351672E-03
   6.20000  5.0075734E-03  1.1196458E-02  1.0048777E-02
   6.40000  5.3513435E-03  1.2227656E-02  1.0573310E-02
   6.60000  5.7248517E-03  1.3362684E-02  1.1032581E-02
   6.80000  6.1379711E-03  1.4627448E-02  1.1464671E-02
   7.00000  6.5995802E-03  1.6049979E-02  1.1912258E-02
   7.20000  7.1174314E-03  1.7660850E-02  1.2414203E-02
   7.40000  7.6980017E-03  1.9493363E-02  1.3000846E-02
   7.60000  8.3462022E-03  2.1583425E-02  1.3692739E-02
   7.80000  9.0649955E-03  2.3969183E-02  1.4501551E-02
   8.00000  9.8550978E-03  2.6689915E-02  1.5432256E-02
   8.20000  1.0714933E-02  2.9782799E-02  1.6486328E-02
   8.40000  1.1641106E-02  3.3276561E-02  1.7665239E-02
   8.60000  1.2629582E-02  3.7181273E-02  1.8972651E-02
   8.80000  1.3677436E-02  4.1473511E-02  2.0413460E-02
   9.00000  1.4784738E-02  4.6077225E-02  2.1989223E-02
   9.20000  1.5956064E-02  5.0843529E-02  2.3692077E-02
   9.40000  1.7201163E-02  5.5537324E-02  2.5500866E-02
   9.60000  1.8533921E-02  5.9842971E-02  2.7381743E-02
   9.80000  1.9968483E-02  6.3400746E-02  2.9292329E-02
   10.0000  2.1513453E-02  6.5875074E-02  3.1186447E-02
   10.2500  2.3595755E-02  6.7108202E-02  3.3458327E-02
   10.5000  2.5813483E-02  6.6215282E-02  3.5533824E-02
   10.7500  2.8099809E-02  6.3513968E-02  3.7315445E-02
   11.0000  3.0358380E-02  5.9565158E-02  3.8718040E-02
   11.2500  3.2475683E-02  5.4965410E-02  3.9689110E-02
   11.5000  3.4342349E-02  5.0207393E-02  4.0221169E-02
   11.7500  3.5877992E-02  4.5630514E-02  4.0350076E-02
   12.0000  3.7048713E-02  4.1430503E-02  4.0142313E-02
   12.2500  3.7869008E-02  3.7694660E-02  3.9679601E-02
   12.5000  3.8390042E-02  3.4439896E-02  3.9045774E-02
   12.7500  3.8682358E-02  3.1642943E-02  3.8317095E-02
   13.0000  3.8820201E-02  2.9260916E-02  3.7557380E-02
   13.2500  3.8870818E-02  2.7243884E-02  3.6818393E-02
   13.5000  3.8888582E-02  2.5542026E-02  3.6141423E-02
   13.7500  3.8912839E-02  2.4109620E-02  3.5556743E-02
   14.0000  3.8968683E-02  2.2906826E-02  3.5083543E-02
   14.2500  3.9069465E-02  2.1899887E-02  3.4731733E-02
   14.5000  3.9219556E-02  2.1060553E-02  3.4504192E-02
   14.7500  3.9416570E-02  2.0365331E-02  3.4398404E-02
   15.0000  3.9653050E-02  1.9794759E-02  3.4407434E-02
   15.2500  3.9917806E-02  1.9332749E-02  3.4520466E-02
   15.5000  4.0197120E-02  1.8966031E-02  3.4723151E-02
   15.7500  4.0475900E-02  1.8683665E-02  3.4997938E-02
   16.0000  4.0738837E-02  1.8476644E-02  3.5324552E-02
   16.2500  4.0971568E-02  1.8337550E-02  3.5680734E-02
   16.5000  4.1161807E-02  1.8260273E-02  3.6043278E-02
   16.7500  4.1300330E-02  1.8239784E-02  3.6389359E-02
   17.0000  4.1381716E-02  1.8271942E-02  3.6698004E-02
   17.2500  4.1404707E-02  1.8353337E-02  3.6951547E-02
   17.5000  4.1372135E-02  1.8481163E-02  3.7136814E-02
   17.7500  4.1290426E-02  1.8653095E-02  3.7245875E-02
   18.0000  4.1168755E-02  1.8867202E-02  3.7276223E-02
   18.2500  4.1017991E-02  1.9121853E-02  3.7230391E-02
   18.5000  4.0849597E-02  1.9415650E-02  3.7115095E-02
   18.7500  4.0674607E-02  1.9747384E-02  3.6940076E-02
   19.0000  4.0502792E-02  2.0116011E-02  3.6716818E-02
   19.2500  4.0342049E-02  2.0520666E-02  3.6457300E-02
   19.5000  4.0198020E-02  2.0960687E-02  3.6172916E-02
   19.7500  4.0073893E-02  2.1435570E-02  3.5873676E-02
   20.0000  3.9970367E-02  2.1944727E-02  3.5567852E-02
   21.0000  3.9701486E-02  2.4289902E-02  3.4393918E-02
   22.0000  3.9362373E-02  2.7006306E-02  3.3414671E-02
   23.0000  3.8456830E-02  2.9869557E-02  3.2577538E-02
   24.0000  3.6712192E-02  3.2522299E-02  3.1766819E-02
   25.0000  3.4330321E-02  3.4545841E-02  3.0917772E-02
   26.0000  3.1789577E-02  3.5701240E-02  3.0028024E-02
   27.0000  2.9513886E-02  3.5991453E-02  2.9144914E-02
   28.0000  2.7695201E-02  3.5596212E-02  2.8338016E-02
   29.0000  2.6332421E-02  3.4760916E-02  2.7664876E-02
   30.0000  2.5342238E-02  3.3701427E-02  2.7146839E-02
   31.0000  2.4623791E-02  3.2563004E-02  2.6764512E-02
   32.0000  2.4081696E-02  3.1422289E-02  2.6469862E-02
   33.0000  2.3636253E-02  3.0307993E-02  2.6203865E-02
   34.0000  2.3228245E-02  2.9223177E-02  2.5910294E-02
   35.0000  2.2819153E-02  2.8162086E-02  2.5543359E-02
   36.0000  2.2389377E-02  2.7121425E-02  2.5072671E-02
   37.0000  2.1936976E-02  2.6107912E-02  2.4490021E-02
   38.0000  2.1477806E-02  2.5144717E-02  2.3819871E-02
   39.0000  2.1046125E-02  2.4279346E-02  2.3131447E-02
   40.0000  2.0689173E-02  2.3583523E-02  2.2535938E-02
