    Energy   (100,001)      (010,001)      (001,110)   
  -25.0000  1.7436349E-04  1.7976347E-04  1.7520174E-04
  -24.0000  1.8052453E-04  1.8666996E-04  1.8149845E-04
  -23.0000  1.8709614E-04  1.9407747E-04  1.8822097E-04
  -22.0000  1.9411966E-04  2.0204088E-04  1.9541270E-04
  -21.0000  2.0164214E-04  2.1062328E-04  2.0312307E-04
  -20.0000  2.0971726E-04  2.1989752E-04  2.1140858E-04
  -19.0000  2.1840667E-04  2.2994810E-04  2.2033416E-04
  -18.0000  2.2778140E-04  2.4087366E-04  2.2997473E-04
  -17.0000  2.3792380E-04  2.5278998E-04  2.4041724E-04
  -16.0000  2.4892985E-04  2.6583382E-04  2.5176312E-04
  -15.0000  2.6091208E-04  2.8016784E-04  2.6413150E-04
  -14.0000  2.7400339E-04  2.9598700E-04  2.7766313E-04
  -13.0000  2.8836178E-04  3.1352684E-04  2.9252558E-04
  -12.0000  3.0417672E-04  3.3307453E-04  3.0891995E-04
  -11.0000  3.2167737E-04  3.5498359E-04  3.2708963E-04
  -10.0000  3.4114372E-04  3.7969406E-04  3.4733216E-04
  -9.00000  3.6292166E-04  4.0776030E-04  3.7001518E-04
  -8.00000  3.8744396E-04  4.3989028E-04  3.9559857E-04
  -7.00000  4.1525994E-04  4.7700205E-04  4.2466561E-04
  -6.00000  4.4707866E-04  5.2030715E-04  4.5796795E-04
  -5.00000  4.8383343E-04  5.7143689E-04  4.9649235E-04
  -4.00000  5.2678188E-04  6.3264016E-04  5.4156274E-04
  -3.00000  5.7766757E-04  7.0710511E-04  5.9500279E-04
  -2.00000  6.3899519E-04  7.9950744E-04  6.5940712E-04
  -1.00000  7.1453099E-04  9.1700108E-04  7.3862192E-04
   0.00000  8.1029462E-04  1.0711484E-03  8.3866643E-04
   1.00000  9.3676680E-04  1.2820851E-03  9.6969894E-04
   2.00000  1.1146779E-03  1.5889171E-03  1.1509075E-03
   3.00000  1.3943795E-03  2.0821812E-03  1.4258878E-03
   4.00000  1.9503185E-03  3.0492828E-03  1.9328586E-03
   5.00000  3.5749900E-03  5.7282659E-03  3.2642865E-03
   5.20000  4.0555273E-03  6.5667739E-03  3.6647954E-03
   5.40000  4.4979832E-03  7.4093126E-03  4.0594831E-03
   5.60000  4.8888829E-03  8.2360895E-03  4.4436009E-03
   5.80000  5.2433264E-03  9.0618283E-03  4.8288633E-03
   6.00000  5.5820055E-03  9.9117802E-03  5.2278573E-03
   6.20000  5.9207978E-03  1.0810665E-02  5.6478070E-03
   6.40000  6.2694481E-03  1.1780566E-02  6.0906135E-03
   6.60000  6.6335543E-03  1.2841325E-02  6.5552642E-03
   6.80000  7.0171619E-03  1.4011188E-02  7.0410612E-03
   7.00000  7.4247349E-03  1.5307296E-02  7.5507800E-03
   7.20000  7.8619886E-03  1.6746199E-02  8.0928848E-03
   7.40000  8.3357318E-03  1.8344764E-02  8.6822177E-03
   7.60000  8.8532586E-03  2.0121262E-02  9.3391428E-03
   7.80000  9.4217794E-03  2.2095706E-02  1.0087549E-02
   8.00000  1.0048103E-02  2.4289026E-02  1.0952119E-02
   8.20000  1.0738428E-02  2.6721014E-02  1.1955021E-02
   8.40000  1.1497874E-02  2.9406671E-02  1.3111906E-02
   8.60000  1.2329354E-02  3.2350568E-02  1.4427123E-02
   8.80000  1.3231751E-02  3.5539097E-02  1.5888623E-02
   9.00000  1.4197901E-02  3.8931288E-02  1.7464127E-02
   9.20000  1.5213661E-02  4.2450234E-02  1.9101365E-02
   9.40000  1.6259583E-02  4.5978616E-02  2.0735015E-02
   9.60000  1.7315716E-02  4.9362360E-02  2.2300165E-02
   9.80000  1.8367792E-02  5.2424764E-02  2.3747355E-02
   10.0000  1.9411167E-02  5.4989386E-02  2.5051850E-02
   10.2500  2.0709746E-02  5.7270631E-02  2.6482621E-02
   10.5000  2.2016039E-02  5.8362809E-02  2.7723127E-02
   10.7500  2.3339235E-02  5.8249464E-02  2.8820318E-02
   11.0000  2.4675212E-02  5.7071353E-02  2.9818477E-02
   11.2500  2.6002706E-02  5.5067638E-02  3.0747342E-02
   11.5000  2.7284261E-02  5.2502924E-02  3.1615994E-02
   11.7500  2.8476761E-02  4.9618306E-02  3.2416733E-02
   12.0000  2.9544978E-02  4.6610744E-02  3.3135552E-02
   12.2500  3.0469414E-02  4.3627152E-02  3.3760873E-02
   12.5000  3.1248431E-02  4.0765532E-02  3.4287207E-02
   12.7500  3.1897638E-02  3.8083523E-02  3.4717015E-02
   13.0000  3.2446190E-02  3.5610664E-02  3.5061581E-02
   13.2500  3.2930426E-02  3.3358997E-02  3.5339956E-02
   13.5000  3.3387375E-02  3.1330009E-02  3.5576399E-02
   13.7500  3.3849949E-02  2.9518718E-02  3.5797189E-02
   14.0000  3.4344264E-02  2.7916178E-02  3.6027463E-02
   14.2500  3.4888531E-02  2.6511017E-02  3.6288828E-02
   14.5000  3.5492682E-02  2.5290270E-02  3.6598236E-02
   14.7500  3.6158463E-02  2.4239900E-02  3.6967500E-02
   15.0000  3.6880064E-02  2.3345370E-02  3.7402468E-02
   15.2500  3.7645083E-02  2.2592221E-02  3.7902058E-02
   15.5000  3.8435535E-02  2.1966547E-02  3.8457719E-02
   15.7500  3.9228906E-02  2.1455301E-02  3.9053576E-02
   16.0000  3.9999381E-02  2.1046486E-02  3.9667257E-02
   16.2500  4.0719319E-02  2.0729255E-02  4.0271430E-02
   16.5000  4.1360988E-02  2.0493952E-02  4.0835980E-02
   16.7500  4.1898458E-02  2.0332106E-02  4.1330686E-02
   17.0000  4.2309473E-02  2.0236388E-02  4.1728087E-02
   17.2500  4.2577111E-02  2.0200534E-02  4.2006097E-02
   17.5000  4.2691034E-02  2.0219247E-02  4.2149983E-02
   17.7500  4.2648208E-02  2.0288080E-02  4.2153382E-02
   18.0000  4.2453026E-02  2.0403314E-02  4.2018278E-02
   18.2500  4.2116828E-02  2.0561832E-02  4.1754051E-02
   18.5000  4.1656883E-02  2.0761005E-02  4.1375876E-02
   18.7500  4.1094920E-02  2.0998593E-02  4.0902801E-02
   19.0000  4.0455357E-02  2.1272674E-02  4.0355771E-02
   19.2500  3.9763374E-02  2.1581610E-02  3.9755819E-02
   19.5000  3.9043047E-02  2.1924027E-02  3.9122546E-02
   19.7500  3.8315865E-02  2.2298751E-02  3.8473070E-02
   20.0000  3.7600041E-02  2.2704583E-02  3.7821720E-02
   21.0000  3.5124375E-02  2.4597117E-02  3.5416037E-02
   22.0000  3.3604056E-02  2.6790929E-02  3.3615353E-02
   23.0000  3.2994289E-02  2.9081807E-02  3.2434228E-02
   24.0000  3.2967863E-02  3.1216578E-02  3.1682158E-02
   25.0000  3.3120079E-02  3.2941838E-02  3.1127275E-02
   26.0000  3.3080904E-02  3.4079398E-02  3.0579695E-02
   27.0000  3.2643678E-02  3.4579802E-02  2.9953789E-02
   28.0000  3.1838762E-02  3.4515909E-02  2.9283788E-02
   29.0000  3.0837300E-02  3.4023476E-02  2.8654808E-02
   30.0000  2.9825641E-02  3.3246839E-02  2.8135409E-02
   31.0000  2.8926819E-02  3.2309857E-02  2.7745807E-02
   32.0000  2.8184457E-02  3.1301323E-02  2.7462589E-02
   33.0000  2.7587462E-02  3.0272895E-02  2.7240130E-02
   34.0000  2.7100172E-02  2.9247682E-02  2.7028050E-02
   35.0000  2.6681999E-02  2.8232356E-02  2.6780000E-02
   36.0000  2.6296752E-02  2.7228286E-02  2.6459107E-02
   37.0000  2.5916717E-02  2.6241485E-02  2.6045642E-02
   38.0000  2.5527956E-02  2.5293168E-02  2.5548624E-02
   39.0000  2.5142194E-02  2.4431588E-02  2.5019054E-02
   40.0000  2.4805968E-02  2.3733719E-02  2.4550330E-02
