    Energy   (100,001)      (010,001)      (001,110)   
  -25.0000  1.8020014E-04  1.8496270E-04  1.8570757E-04
  -24.0000  1.8639091E-04  1.9207846E-04  1.9196897E-04
  -23.0000  1.9298655E-04  1.9971383E-04  1.9863630E-04
  -22.0000  2.0002732E-04  2.0792624E-04  2.0574982E-04
  -21.0000  2.0755897E-04  2.1678177E-04  2.1335524E-04
  -20.0000  2.1563373E-04  2.2635683E-04  2.2150473E-04
  -19.0000  2.2431145E-04  2.3674019E-04  2.3025805E-04
  -18.0000  2.3366107E-04  2.4803562E-04  2.3968405E-04
  -17.0000  2.4376240E-04  2.6036508E-04  2.4986243E-04
  -16.0000  2.5470840E-04  2.7387293E-04  2.6088597E-04
  -15.0000  2.6660796E-04  2.8873115E-04  2.7286337E-04
  -14.0000  2.7958952E-04  3.0514629E-04  2.8592282E-04
  -13.0000  2.9380570E-04  3.2336840E-04  3.0021659E-04
  -12.0000  3.0943930E-04  3.4370303E-04  3.1592707E-04
  -11.0000  3.2671122E-04  3.6652729E-04  3.3327466E-04
  -10.0000  3.4589110E-04  3.9231177E-04  3.5252836E-04
  -9.00000  3.6731175E-04  4.2165104E-04  3.7402022E-04
  -8.00000  3.9138913E-04  4.5530679E-04  3.9816535E-04
  -7.00000  4.1865063E-04  4.9427013E-04  4.2549033E-04
  -6.00000  4.4977615E-04  5.3985387E-04  4.5667456E-04
  -5.00000  4.8565925E-04  5.9383303E-04  4.9261223E-04
  -4.00000  5.2750163E-04  6.5866589E-04  5.3450873E-04
  -3.00000  5.7696489E-04  7.3785542E-04  5.8403719E-04
  -2.00000  6.3642713E-04  8.3656925E-04  6.4360706E-04
  -1.00000  7.0944477E-04  9.6276767E-04  7.1685802E-04
   0.00000  8.0165587E-04  1.1294199E-03  8.0965546E-04
   1.00000  9.2275551E-04  1.3593343E-03  9.3236125E-04
   2.00000  1.0915603E-03  1.6973699E-03  1.1060057E-03
   3.00000  1.3525020E-03  2.2491758E-03  1.3840290E-03
   4.00000  1.8537212E-03  3.3581945E-03  1.9656179E-03
   5.00000  3.2576908E-03  6.5254867E-03  3.7620467E-03
   5.20000  3.6824617E-03  7.5079696E-03  4.2293305E-03
   5.40000  4.0875320E-03  8.4747456E-03  4.5883601E-03
   5.60000  4.4583287E-03  9.3990983E-03  4.8368004E-03
   5.80000  4.8021988E-03  1.0299719E-02  5.0149853E-03
   6.00000  5.1330730E-03  1.1209372E-02  5.1652294E-03
   6.20000  5.4643291E-03  1.2160353E-02  5.3182916E-03
   6.40000  5.8074920E-03  1.3181539E-02  5.4947166E-03
   6.60000  6.1727256E-03  1.4298804E-02  5.7086626E-03
   6.80000  6.5695987E-03  1.5535961E-02  5.9705387E-03
   7.00000  7.0076976E-03  1.6915762E-02  6.2884548E-03
   7.20000  7.4969609E-03  1.8460975E-02  6.6691544E-03
   7.40000  8.0477201E-03  2.0195496E-02  7.1188716E-03
   7.60000  8.6704594E-03  2.2145377E-02  7.6441634E-03
   7.80000  9.3753000E-03  2.4339464E-02  8.2524619E-03
   8.00000  1.0171181E-02  2.6809176E-02  8.9519133E-03
   8.20000  1.1064655E-02  2.9586824E-02  9.7500777E-03
   8.40000  1.2058186E-02  3.2701712E-02  1.0651289E-02
   8.60000  1.3147849E-02  3.6173125E-02  1.1652963E-02
   8.80000  1.4320501E-02  3.9999311E-02  1.2741818E-02
   9.00000  1.5551273E-02  4.4142625E-02  1.3891564E-02
   9.20000  1.6803098E-02  4.8512564E-02  1.5064023E-02
   9.40000  1.8029885E-02  5.2949833E-02  1.6215046E-02
   9.60000  1.9183904E-02  5.7217262E-02  1.7304376E-02
   9.80000  2.0226203E-02  6.1007785E-02  1.8306201E-02
   10.0000  2.1136510E-02  6.3980377E-02  1.9215951E-02
   10.2500  2.2095527E-02  6.6083796E-02  2.0249457E-02
   10.5000  2.2903218E-02  6.6092640E-02  2.1222219E-02
   10.7500  2.3630686E-02  6.4095929E-02  2.2194363E-02
   11.0000  2.4342631E-02  6.0567709E-02  2.3210560E-02
   11.2500  2.5078462E-02  5.6153727E-02  2.4293667E-02
   11.5000  2.5846113E-02  5.1450766E-02  2.5445244E-02
   11.7500  2.6625773E-02  4.6884826E-02  2.6649664E-02
   12.0000  2.7380351E-02  4.2695565E-02  2.7879127E-02
   12.2500  2.8069274E-02  3.8980842E-02  2.9099231E-02
   12.5000  2.8661570E-02  3.5752749E-02  3.0274571E-02
   12.7500  2.9143716E-02  3.2979991E-02  3.1372674E-02
   13.0000  2.9519898E-02  3.0613531E-02  3.2367073E-02
   13.2500  2.9807897E-02  2.8600815E-02  3.3240022E-02
   13.5000  3.0034588E-02  2.6892847E-02  3.3983792E-02
   13.7500  3.0230549E-02  2.5446675E-02  3.4600641E-02
   14.0000  3.0424280E-02  2.4225568E-02  3.5101798E-02
   14.2500  3.0638263E-02  2.3198391E-02  3.5505010E-02
   14.5000  3.0887528E-02  2.2338809E-02  3.5831365E-02
   14.7500  3.1179933E-02  2.1624618E-02  3.6102436E-02
   15.0000  3.1517356E-02  2.1037177E-02  3.6338105E-02
   15.2500  3.1897181E-02  2.0560909E-02  3.6554986E-02
   15.5000  3.2313718E-02  2.0182835E-02  3.6765382E-02
   15.7500  3.2759342E-02  1.9892143E-02  3.6976703E-02
   16.0000  3.3225315E-02  1.9679807E-02  3.7191337E-02
   16.2500  3.3702365E-02  1.9538268E-02  3.7406951E-02
   16.5000  3.4181119E-02  1.9461173E-02  3.7617221E-02
   16.7500  3.4652507E-02  1.9443170E-02  3.7812939E-02
   17.0000  3.5108198E-02  1.9479733E-02  3.7983394E-02
   17.2500  3.5541078E-02  1.9567022E-02  3.8117885E-02
   17.5000  3.5945697E-02  1.9701747E-02  3.8207178E-02
   17.7500  3.6318631E-02  1.9881057E-02  3.8244674E-02
   18.0000  3.6658657E-02  2.0102423E-02  3.8227169E-02
   18.2500  3.6966698E-02  2.0363555E-02  3.8155071E-02
   18.5000  3.7245554E-02  2.0662320E-02  3.8032139E-02
   18.7500  3.7499447E-02  2.0996699E-02  3.7864813E-02
   19.0000  3.7733454E-02  2.1364775E-02  3.7661310E-02
   19.2500  3.7952914E-02  2.1764763E-02  3.7430635E-02
   19.5000  3.8162870E-02  2.2195047E-02  3.7181662E-02
   19.7500  3.8367567E-02  2.2654176E-02  3.6922418E-02
   20.0000  3.8570005E-02  2.3140635E-02  3.6659737E-02
   21.0000  3.9361534E-02  2.5308745E-02  3.5676175E-02
   22.0000  3.9988128E-02  2.7681453E-02  3.4914514E-02
   23.0000  4.0145535E-02  3.0033727E-02  3.4333524E-02
   24.0000  3.9605347E-02  3.2087932E-02  3.3795469E-02
   25.0000  3.8378589E-02  3.3576036E-02  3.3178527E-02
   26.0000  3.6677476E-02  3.4351791E-02  3.2432663E-02
   27.0000  3.4783564E-02  3.4443501E-02  3.1592145E-02
   28.0000  3.2944026E-02  3.4007435E-02  3.0750664E-02
   29.0000  3.1322662E-02  3.3240085E-02  3.0013117E-02
   30.0000  2.9995693E-02  3.2312731E-02  2.9451700E-02
   31.0000  2.8977765E-02  3.1352565E-02  2.9090277E-02
   32.0000  2.8244665E-02  3.0441494E-02  2.8910710E-02
   33.0000  2.7740900E-02  2.9601833E-02  2.8863703E-02
   34.0000  2.7405084E-02  2.8818995E-02  2.8892380E-02
   35.0000  2.7186058E-02  2.8067216E-02  2.8947690E-02
   36.0000  2.7042482E-02  2.7321879E-02  2.8991257E-02
   37.0000  2.6937695E-02  2.6568447E-02  2.8994539E-02
   38.0000  2.6838408E-02  2.5813072E-02  2.8941313E-02
   39.0000  2.6725645E-02  2.5096927E-02  2.8837256E-02
   40.0000  2.6611149E-02  2.4499834E-02  2.8719249E-02
