    Energy   (100,001)      (010,001)      (001,110)   
  -25.0000  1.6708365E-04  1.8096713E-04  1.7001363E-04
  -24.0000  1.7310755E-04  1.8792756E-04  1.7602359E-04
  -23.0000  1.7953638E-04  1.9539506E-04  1.8243143E-04
  -22.0000  1.8641103E-04  2.0342549E-04  1.8927673E-04
  -21.0000  1.9377804E-04  2.1208310E-04  1.9660446E-04
  -20.0000  2.0169056E-04  2.2144211E-04  2.0446583E-04
  -19.0000  2.1020957E-04  2.3158874E-04  2.1291950E-04
  -18.0000  2.1940538E-04  2.4262368E-04  2.2203291E-04
  -17.0000  2.2935950E-04  2.5466527E-04  2.3188400E-04
  -16.0000  2.4016689E-04  2.6785340E-04  2.4256333E-04
  -15.0000  2.5193894E-04  2.8235472E-04  2.5417678E-04
  -14.0000  2.6480712E-04  2.9836913E-04  2.6684883E-04
  -13.0000  2.7892779E-04  3.1613855E-04  2.8072693E-04
  -12.0000  2.9448832E-04  3.3595831E-04  2.9598703E-04
  -11.0000  3.1171531E-04  3.5819261E-04  3.1284084E-04
  -10.0000  3.3088545E-04  3.8329560E-04  3.3154549E-04
  -9.00000  3.5234037E-04  4.1184055E-04  3.5241652E-04
  -8.00000  3.7650710E-04  4.4456123E-04  3.7584571E-04
  -7.00000  4.0392702E-04  4.8241157E-04  4.0232605E-04
  -6.00000  4.3529777E-04  5.2665401E-04  4.3248752E-04
  -5.00000  4.7153564E-04  5.7899402E-04  4.6714980E-04
  -4.00000  5.1387148E-04  6.4179158E-04  5.0740263E-04
  -3.00000  5.6400462E-04  7.1840719E-04  5.5473330E-04
  -2.00000  6.2436209E-04  8.1379546E-04  6.1123948E-04
  -1.00000  6.9856405E-04  9.3558587E-04  6.8000862E-04
   0.00000  7.9233215E-04  1.0962086E-03  7.6585534E-04
   1.00000  9.1547449E-04  1.3175344E-03  8.7693486E-04
   2.00000  1.0869848E-03  1.6426225E-03  1.0289257E-03
   3.00000  1.3517558E-03  2.1730319E-03  1.2590011E-03
   4.00000  1.8606719E-03  3.2391774E-03  1.6946326E-03
   5.00000  3.2869625E-03  6.2885423E-03  2.9115387E-03
   5.20000  3.7080557E-03  7.2420623E-03  3.2605703E-03
   5.40000  4.1004361E-03  8.1898160E-03  3.5734186E-03
   5.60000  4.4520762E-03  9.1068578E-03  3.8392857E-03
   5.80000  4.7739602E-03  1.0007593E-02  4.0688067E-03
   6.00000  5.0822061E-03  1.0916673E-02  4.2764556E-03
   6.20000  5.3908429E-03  1.1857022E-02  4.4735124E-03
   6.40000  5.7114210E-03  1.2848942E-02  4.6683007E-03
   6.60000  6.0542334E-03  1.3911934E-02  4.8685386E-03
   6.80000  6.4291173E-03  1.5066234E-02  5.0830665E-03
   7.00000  6.8454980E-03  1.6333508E-02  5.3219074E-03
   7.20000  7.3121004E-03  1.7737085E-02  5.5951649E-03
   7.40000  7.8368475E-03  1.9302356E-02  5.9119868E-03
   7.60000  8.4270492E-03  2.1057371E-02  6.2803201E-03
   7.80000  9.0896383E-03  2.3032990E-02  6.7073698E-03
   8.00000  9.8312742E-03  2.5262116E-02  7.2003244E-03
   8.20000  1.0658247E-02  2.7777636E-02  7.7670003E-03
   8.40000  1.1576133E-02  3.0608403E-02  8.4162383E-03
   8.60000  1.2589169E-02  3.3772504E-02  9.1579756E-03
   8.80000  1.3699398E-02  3.7267153E-02  1.0002926E-02
   9.00000  1.4905717E-02  4.1055137E-02  1.0961800E-02
   9.20000  1.6203057E-02  4.5049291E-02  1.2044007E-02
   9.40000  1.7581888E-02  4.9099303E-02  1.3255882E-02
   9.60000  1.9028059E-02  5.2988487E-02  1.4598536E-02
   9.80000  2.0522488E-02  5.6449309E-02  1.6065465E-02
   10.0000  2.2039930E-02  5.9201857E-02  1.7639967E-02
   10.2500  2.3917584E-02  6.1292776E-02  1.9713867E-02
   10.5000  2.5695540E-02  6.1668372E-02  2.1826147E-02
   10.7500  2.7278941E-02  6.0395106E-02  2.3873228E-02
   11.0000  2.8579472E-02  5.7802053E-02  2.5748943E-02
   11.2500  2.9539617E-02  5.4346619E-02  2.7367693E-02
   11.5000  3.0150861E-02  5.0478672E-02  2.8684040E-02
   11.7500  3.0455577E-02  4.6556038E-02  2.9699578E-02
   12.0000  3.0532592E-02  4.2818108E-02  3.0456286E-02
   12.2500  3.0474776E-02  3.9398354E-02  3.1020286E-02
   12.5000  3.0369647E-02  3.6353079E-02  3.1462555E-02
   12.7500  3.0288705E-02  3.3690153E-02  3.1844738E-02
   13.0000  3.0284297E-02  3.1390455E-02  3.2213927E-02
   13.2500  3.0390694E-02  2.9421803E-02  3.2603454E-02
   13.5000  3.0626157E-02  2.7747362E-02  3.3035663E-02
   13.7500  3.0995153E-02  2.6330376E-02  3.3524725E-02
   14.0000  3.1491387E-02  2.5136688E-02  3.4078824E-02
   14.2500  3.2100917E-02  2.4135934E-02  3.4701610E-02
   14.5000  3.2804366E-02  2.3301942E-02  3.5392993E-02
   14.7500  3.3578239E-02  2.2612654E-02  3.6149381E-02
   15.0000  3.4395733E-02  2.2049788E-02  3.6963484E-02
   15.2500  3.5227383E-02  2.1598366E-02  3.7823842E-02
   15.5000  3.6041806E-02  2.1246182E-02  3.8714334E-02
   15.7500  3.6806731E-02  2.0983255E-02  3.9613911E-02
   16.0000  3.7490461E-02  2.0801316E-02  4.0496865E-02
   16.2500  3.8063787E-02  2.0693354E-02  4.1333874E-02
   16.5000  3.8502212E-02  2.0653238E-02  4.2093947E-02
   16.7500  3.8788207E-02  2.0675419E-02  4.2747154E-02
   17.0000  3.8913090E-02  2.0754714E-02  4.3267759E-02
   17.2500  3.8878109E-02  2.0886176E-02  4.3637188E-02
   17.5000  3.8694434E-02  2.1065032E-02  4.3846153E-02
   17.7500  3.8382003E-02  2.1286684E-02  4.3895475E-02
   18.0000  3.7967387E-02  2.1546738E-02  4.3795431E-02
   18.2500  3.7481078E-02  2.1841057E-02  4.3563872E-02
   18.5000  3.6954666E-02  2.2165802E-02  4.3223593E-02
   18.7500  3.6418325E-02  2.2517468E-02  4.2799535E-02
   19.0000  3.5898879E-02  2.2892913E-02  4.2316295E-02
   19.2500  3.5418568E-02  2.3289386E-02  4.1796192E-02
   19.5000  3.4994450E-02  2.3704547E-02  4.1258018E-02
   19.7500  3.4638361E-02  2.4136418E-02  4.0716473E-02
   20.0000  3.4357353E-02  2.4583137E-02  4.0182357E-02
   21.0000  3.4011237E-02  2.6465397E-02  3.8249198E-02
   22.0000  3.4758302E-02  2.8356182E-02  3.6749655E-02
   23.0000  3.6159827E-02  3.0080500E-02  3.5593696E-02
   24.0000  3.7629647E-02  3.1483697E-02  3.4585108E-02
   25.0000  3.8551989E-02  3.2454559E-02  3.3536863E-02
   26.0000  3.8472609E-02  3.2947754E-02  3.2357350E-02
   27.0000  3.7318601E-02  3.2989405E-02  3.1091788E-02
   28.0000  3.5417785E-02  3.2659620E-02  2.9872383E-02
   29.0000  3.3258750E-02  3.2063095E-02  2.8819885E-02
   30.0000  3.1227827E-02  3.1302048E-02  2.7984721E-02
   31.0000  2.9512745E-02  3.0464335E-02  2.7350514E-02
   32.0000  2.8141353E-02  2.9617582E-02  2.6865464E-02
   33.0000  2.7055486E-02  2.8793534E-02  2.6472667E-02
   34.0000  2.6175956E-02  2.7998255E-02  2.6122450E-02
   35.0000  2.5432568E-02  2.7226252E-02  2.5774879E-02
   36.0000  2.4771763E-02  2.6468458E-02  2.5402801E-02
   37.0000  2.4159996E-02  2.5720658E-02  2.4997250E-02
   38.0000  2.3587622E-02  2.4993751E-02  2.4572645E-02
   39.0000  2.3071980E-02  2.4324634E-02  2.4167188E-02
   40.0000  2.2652331E-02  2.3777349E-02  2.3832053E-02
