    Energy   (100,001)      (010,001)      (001,110)   
  -25.0000  1.7554638E-04  1.8541511E-04  1.8462404E-04
  -24.0000  1.8164420E-04  1.9241371E-04  1.9103739E-04
  -23.0000  1.8814248E-04  1.9991582E-04  1.9787753E-04
  -22.0000  1.9508102E-04  2.0797645E-04  2.0518778E-04
  -21.0000  2.0250503E-04  2.1665879E-04  2.1301748E-04
  -20.0000  2.1046607E-04  2.2603580E-04  2.2142310E-04
  -19.0000  2.1902321E-04  2.3619214E-04  2.3046957E-04
  -18.0000  2.2824442E-04  2.4722664E-04  2.4023190E-04
  -17.0000  2.3820838E-04  2.5925525E-04  2.5079725E-04
  -16.0000  2.4900660E-04  2.7241500E-04  2.6226746E-04
  -15.0000  2.6074623E-04  2.8686889E-04  2.7476237E-04
  -14.0000  2.7355350E-04  3.0281230E-04  2.8842389E-04
  -13.0000  2.8757826E-04  3.2048136E-04  3.0342147E-04
  -12.0000  3.0299976E-04  3.4016400E-04  3.1995911E-04
  -11.0000  3.2003438E-04  3.6221487E-04  3.3828475E-04
  -10.0000  3.3894587E-04  3.8707559E-04  3.5870295E-04
  -9.00000  3.6005927E-04  4.1530281E-04  3.8159224E-04
  -8.00000  3.8378025E-04  4.4760788E-04  4.0742952E-04
  -7.00000  4.1062234E-04  4.8491399E-04  4.3682486E-04
  -6.00000  4.4124645E-04  5.2844053E-04  4.7057276E-04
  -5.00000  4.7651982E-04  5.7983122E-04  5.0972975E-04
  -4.00000  5.1760693E-04  6.4135495E-04  5.5573610E-04
  -3.00000  5.6611566E-04  7.1623313E-04  6.1061534E-04
  -2.00000  6.2434457E-04  8.0919885E-04  6.7731847E-04
  -1.00000  6.9572859E-04  9.2750951E-04  7.6035859E-04
   0.00000  7.8571190E-04  1.0829252E-03  8.6708374E-04
   1.00000  9.0365918E-04  1.2959892E-03  1.0105356E-03
   2.00000  1.0677552E-03  1.6067421E-03  1.2169735E-03
   3.00000  1.3209180E-03  2.1082361E-03  1.5509690E-03
   4.00000  1.8056691E-03  3.0967041E-03  2.2365491E-03
   5.00000  3.1547324E-03  5.8510799E-03  4.2816201E-03
   5.20000  3.5635645E-03  6.7182413E-03  4.8862421E-03
   5.40000  3.9583472E-03  7.5951526E-03  5.4442848E-03
   5.60000  4.3292192E-03  8.4630928E-03  5.9481292E-03
   5.80000  4.6860171E-03  9.3366858E-03  6.4318718E-03
   6.00000  5.0428892E-03  1.0238808E-02  6.9373874E-03
   6.20000  5.4118367E-03  1.1189842E-02  7.4964817E-03
   6.40000  5.8020073E-03  1.2206811E-02  8.1261632E-03
   6.60000  6.2203955E-03  1.3305162E-02  8.8288025E-03
   6.80000  6.6724130E-03  1.4500226E-02  9.5935404E-03
   7.00000  7.1621326E-03  1.5807692E-02  1.0398718E-02
   7.20000  7.6923815E-03  1.7243341E-02  1.1216125E-02
   7.40000  8.2648570E-03  1.8822667E-02  1.2017104E-02
   7.60000  8.8803352E-03  2.0561072E-02  1.2779334E-02
   7.80000  9.5388349E-03  2.2474835E-02  1.3492008E-02
   8.00000  1.0239429E-02  2.4582243E-02  1.4157222E-02
   8.20000  1.0979457E-02  2.6903865E-02  1.4786871E-02
   8.40000  1.1753229E-02  2.9461114E-02  1.5396453E-02
   8.60000  1.2550737E-02  3.2272450E-02  1.5998392E-02
   8.80000  1.3357240E-02  3.5346724E-02  1.6597473E-02
   9.00000  1.4154587E-02  3.8673302E-02  1.7189941E-02
   9.20000  1.4924677E-02  4.2209294E-02  1.7766476E-02
   9.40000  1.5654398E-02  4.5865893E-02  1.8317874E-02
   9.60000  1.6340245E-02  4.9498768E-02  1.8840888E-02
   9.80000  1.6990349E-02  5.2909644E-02  1.9341529E-02
   10.0000  1.7622747E-02  5.5864665E-02  1.9834653E-02
   10.2500  1.8423837E-02  5.8564590E-02  2.0471182E-02
   10.5000  1.9276623E-02  5.9847669E-02  2.1165798E-02
   10.7500  2.0209000E-02  5.9604419E-02  2.1944642E-02
   11.0000  2.1226519E-02  5.7981735E-02  2.2816033E-02
   11.2500  2.2312792E-02  5.5307003E-02  2.3773209E-02
   11.5000  2.3436184E-02  5.1976979E-02  2.4799348E-02
   11.7500  2.4558939E-02  4.8362021E-02  2.5871398E-02
   12.0000  2.5645192E-02  4.4749537E-02  2.6963023E-02
   12.2500  2.6666345E-02  4.1329308E-02  2.8047155E-02
   12.5000  2.7603611E-02  3.8206294E-02  2.9098462E-02
   12.7500  2.8448337E-02  3.5423223E-02  3.0095639E-02
   13.0000  2.9200762E-02  3.2981903E-02  3.1022497E-02
   13.2500  2.9867710E-02  3.0860099E-02  3.1867834E-02
   13.5000  3.0459997E-02  2.9024981E-02  3.2626968E-02
   13.7500  3.0990458E-02  2.7442624E-02  3.3304749E-02
   14.0000  3.1472756E-02  2.6082147E-02  3.3915636E-02
   14.2500  3.1920607E-02  2.4916417E-02  3.4480512E-02
   14.5000  3.2347107E-02  2.3921845E-02  3.5022774E-02
   14.7500  3.2764143E-02  2.3078137E-02  3.5564927E-02
   15.0000  3.3181911E-02  2.2367998E-02  3.6125884E-02
   15.2500  3.3608577E-02  2.1776778E-02  3.6718945E-02
   15.5000  3.4050100E-02  2.1292086E-02  3.7350404E-02
   15.7500  3.4510175E-02  2.0903411E-02  3.8018755E-02
   16.0000  3.4990294E-02  2.0601774E-02  3.8714513E-02
   16.2500  3.5489916E-02  2.0379436E-02  3.9420726E-02
   16.5000  3.6006740E-02  2.0229653E-02  4.0114267E-02
   16.7500  3.6537078E-02  2.0146480E-02  4.0767951E-02
   17.0000  3.7076297E-02  2.0124614E-02  4.1353334E-02
   17.2500  3.7619288E-02  2.0159271E-02  4.1843903E-02
   17.5000  3.8160919E-02  2.0246094E-02  4.2218126E-02
   17.7500  3.8696409E-02  2.0381071E-02  4.2461820E-02
   18.0000  3.9221582E-02  2.0560494E-02  4.2569378E-02
   18.2500  3.9732982E-02  2.0780917E-02  4.2543683E-02
   18.5000  4.0227851E-02  2.1039152E-02  4.2394863E-02
   18.7500  4.0704009E-02  2.1332275E-02  4.2138278E-02
   19.0000  4.1159686E-02  2.1657649E-02  4.1792207E-02
   19.2500  4.1593351E-02  2.2012982E-02  4.1375660E-02
   19.5000  4.2003561E-02  2.2396377E-02  4.0906583E-02
   19.7500  4.2388796E-02  2.2806319E-02  4.0400683E-02
   20.0000  4.2747174E-02  2.3241474E-02  3.9871066E-02
   21.0000  4.3842716E-02  2.5195876E-02  3.7713176E-02
   22.0000  4.4175179E-02  2.7385286E-02  3.5760753E-02
   23.0000  4.3485135E-02  2.9643740E-02  3.4093039E-02
   24.0000  4.1697389E-02  3.1735236E-02  3.2660913E-02
   25.0000  3.9021860E-02  3.3391372E-02  3.1402757E-02
   26.0000  3.5903487E-02  3.4413904E-02  3.0279019E-02
   27.0000  3.2843288E-02  3.4760069E-02  2.9287641E-02
   28.0000  3.0206470E-02  3.4540241E-02  2.8463761E-02
   29.0000  2.8143549E-02  3.3939608E-02  2.7854432E-02
   30.0000  2.6642293E-02  3.3134153E-02  2.7483353E-02
   31.0000  2.5621222E-02  3.2248358E-02  2.7332628E-02
   32.0000  2.4984041E-02  3.1360749E-02  2.7350705E-02
   33.0000  2.4635942E-02  3.0517582E-02  2.7471448E-02
   34.0000  2.4496716E-02  2.9721262E-02  2.7628690E-02
   35.0000  2.4500006E-02  2.8951381E-02  2.7767218E-02
   36.0000  2.4588479E-02  2.8187547E-02  2.7846839E-02
   37.0000  2.4711703E-02  2.7419623E-02  2.7842619E-02
   38.0000  2.4826387E-02  2.6657281E-02  2.7747639E-02
   39.0000  2.4902804E-02  2.5941980E-02  2.7582607E-02
   40.0000  2.4936887E-02  2.5349786E-02  2.7404562E-02
