    Energy   (100,001)      (010,001)      (001,110)   
  -25.0000  1.6545228E-04  1.8774752E-04  1.7925136E-04
  -24.0000  1.7157081E-04  1.9468942E-04  1.8581425E-04
  -23.0000  1.7810699E-04  2.0212365E-04  1.9283046E-04
  -22.0000  1.8510332E-04  2.1010344E-04  2.0034717E-04
  -21.0000  1.9260817E-04  2.1868985E-04  2.0841825E-04
  -20.0000  2.0067676E-04  2.2795334E-04  2.1710544E-04
  -19.0000  2.0937246E-04  2.3797555E-04  2.2647986E-04
  -18.0000  2.1876831E-04  2.4885164E-04  2.3662381E-04
  -17.0000  2.2894894E-04  2.6069316E-04  2.4763307E-04
  -16.0000  2.4001294E-04  2.7363173E-04  2.5961977E-04
  -15.0000  2.5207583E-04  2.8782368E-04  2.7271593E-04
  -14.0000  2.6527383E-04  3.0345613E-04  2.8707814E-04
  -13.0000  2.7976873E-04  3.2075483E-04  3.0289344E-04
  -12.0000  2.9575415E-04  3.3999461E-04  3.2038712E-04
  -11.0000  3.1346375E-04  3.6151331E-04  3.3983293E-04
  -10.0000  3.3318215E-04  3.8573080E-04  3.6156688E-04
  -9.00000  3.5525969E-04  4.1317516E-04  3.8600593E-04
  -8.00000  3.8013267E-04  4.4451962E-04  4.1367399E-04
  -7.00000  4.0835169E-04  4.8063563E-04  4.4523871E-04
  -6.00000  4.4062224E-04  5.2267096E-04  4.8156475E-04
  -5.00000  4.7786437E-04  5.7216785E-04  5.2379316E-04
  -4.00000  5.2130321E-04  6.3124752E-04  5.7346332E-04
  -3.00000  5.7261148E-04  7.0290949E-04  6.3270791E-04
  -2.00000  6.3414467E-04  7.9154020E-04  7.0457962E-04
  -1.00000  7.0935254E-04  9.0382858E-04  7.9363271E-04
   0.00000  8.0355754E-04  1.0505417E-03  9.0704288E-04
   1.00000  9.2559249E-04  1.2503331E-03  1.0570077E-03
   2.00000  1.0918186E-03  1.5391702E-03  1.2667454E-03
   3.00000  1.3386029E-03  1.9994160E-03  1.5894348E-03
   4.00000  1.7787351E-03  2.8879862E-03  2.1948691E-03
   5.00000  2.8924430E-03  5.2987077E-03  3.8213185E-03
   5.20000  3.2275499E-03  6.0601489E-03  4.3206866E-03
   5.40000  3.5587899E-03  6.8396257E-03  4.8153749E-03
   5.60000  3.8792678E-03  7.6227945E-03  5.2920135E-03
   5.80000  4.1963406E-03  8.4235448E-03  5.7566651E-03
   6.00000  4.5204278E-03  9.2636786E-03  6.2203552E-03
   6.20000  4.8599600E-03  1.0163425E-02  6.6939309E-03
   6.40000  5.2209452E-03  1.1139616E-02  7.1878406E-03
   6.60000  5.6080843E-03  1.2206088E-02  7.7122907E-03
   6.80000  6.0259128E-03  1.3374319E-02  8.2770622E-03
   7.00000  6.4794716E-03  1.4653985E-02  8.8915223E-03
   7.20000  6.9745313E-03  1.6053530E-02  9.5650829E-03
   7.40000  7.5175858E-03  1.7580885E-02  1.0307924E-02
   7.60000  8.1157611E-03  1.9244099E-02  1.1131628E-02
   7.80000  8.7766465E-03  2.1051330E-02  1.2049345E-02
   8.00000  9.5080455E-03  2.3010045E-02  1.3075121E-02
   8.20000  1.0317639E-02  2.5125696E-02  1.4222134E-02
   8.40000  1.1212528E-02  2.7400159E-02  1.5499939E-02
   8.60000  1.2198615E-02  2.9830216E-02  1.6911382E-02
   8.80000  1.3279792E-02  3.2406572E-02  1.8450378E-02
   9.00000  1.4456955E-02  3.5113488E-02  2.0101627E-02
   9.20000  1.5726935E-02  3.7927575E-02  2.1842395E-02
   9.40000  1.7081789E-02  4.0814163E-02  2.3645510E-02
   9.60000  1.8509097E-02  4.3721655E-02  2.5482533E-02
   9.80000  1.9993545E-02  4.6576266E-02  2.7326409E-02
   10.0000  2.1518977E-02  4.9279601E-02  2.9152884E-02
   10.2500  2.3459744E-02  5.2261343E-02  3.1379088E-02
   10.5000  2.5411674E-02  5.4561931E-02  3.3507468E-02
   10.7500  2.7345416E-02  5.5952912E-02  3.5502102E-02
   11.0000  2.9225586E-02  5.6290993E-02  3.7324414E-02
   11.2500  3.1008690E-02  5.5557743E-02  3.8934961E-02
   11.5000  3.2647167E-02  5.3866939E-02  4.0300155E-02
   11.7500  3.4096857E-02  5.1435032E-02  4.1398400E-02
   12.0000  3.5324452E-02  4.8526925E-02  4.2223344E-02
   12.2500  3.6313881E-02  4.5399382E-02  4.2783129E-02
   12.5000  3.7069832E-02  4.2261717E-02  4.3095679E-02
   12.7500  3.7615518E-02  3.9260786E-02  4.3185331E-02
   13.0000  3.7986044E-02  3.6484772E-02  4.3082439E-02
   13.2500  3.8221734E-02  3.3976042E-02  4.2822435E-02
   13.5000  3.8362881E-02  3.1745599E-02  4.2443781E-02
   13.7500  3.8445821E-02  2.9785338E-02  4.1985783E-02
   14.0000  3.8500616E-02  2.8076829E-02  4.1486381E-02
   14.2500  3.8550180E-02  2.6597036E-02  4.0979966E-02
   14.5000  3.8610357E-02  2.5321844E-02  4.0495559E-02
   14.7500  3.8690553E-02  2.4228092E-02  4.0055560E-02
   15.0000  3.8794632E-02  2.3294637E-02  3.9675080E-02
   15.2500  3.8921888E-02  2.2502796E-02  3.9361780E-02
   15.5000  3.9067972E-02  2.1836417E-02  3.9116106E-02
   15.7500  3.9225759E-02  2.1281739E-02  3.8931873E-02
   16.0000  3.9386189E-02  2.0827153E-02  3.8797185E-02
   16.2500  3.9539143E-02  2.0462923E-02  3.8695736E-02
   16.5000  3.9674399E-02  2.0180895E-02  3.8608495E-02
   16.7500  3.9782643E-02  1.9974232E-02  3.8515684E-02
   17.0000  3.9856463E-02  1.9837152E-02  3.8398874E-02
   17.2500  3.9891222E-02  1.9764691E-02  3.8242910E-02
   17.5000  3.9885645E-02  1.9752492E-02  3.8037387E-02
   17.7500  3.9842039E-02  1.9796627E-02  3.7777421E-02
   18.0000  3.9766048E-02  1.9893441E-02  3.7463641E-02
   18.2500  3.9666014E-02  2.0039454E-02  3.7101467E-02
   18.5000  3.9552011E-02  2.0231286E-02  3.6699894E-02
   18.7500  3.9434755E-02  2.0465636E-02  3.6270043E-02
   19.0000  3.9324537E-02  2.0739300E-02  3.5823733E-02
   19.2500  3.9230341E-02  2.1049233E-02  3.5372248E-02
   19.5000  3.9159186E-02  2.1392637E-02  3.4925408E-02
   19.7500  3.9115738E-02  2.1766988E-02  3.4491008E-02
   20.0000  3.9102131E-02  2.2169891E-02  3.4074728E-02
   21.0000  3.9309777E-02  2.4008413E-02  3.2654180E-02
   22.0000  3.9681252E-02  2.6072000E-02  3.1648749E-02
   23.0000  3.9724356E-02  2.8206192E-02  3.0934919E-02
   24.0000  3.8971600E-02  3.0255277E-02  3.0340485E-02
   25.0000  3.7246689E-02  3.2036776E-02  2.9731838E-02
   26.0000  3.4793451E-02  3.3369386E-02  2.9046845E-02
   27.0000  3.2068793E-02  3.4179679E-02  2.8289837E-02
   28.0000  2.9510950E-02  3.4500267E-02  2.7522102E-02
   29.0000  2.7398584E-02  3.4430850E-02  2.6835827E-02
   30.0000  2.5819805E-02  3.4095362E-02  2.6311932E-02
   31.0000  2.4719931E-02  3.3600641E-02  2.5985999E-02
   32.0000  2.3976834E-02  3.3015504E-02  2.5839457E-02
   33.0000  2.3464243E-02  3.2371329E-02  2.5814026E-02
   34.0000  2.3081383E-02  3.1673939E-02  2.5835217E-02
   35.0000  2.2755713E-02  3.0918256E-02  2.5832166E-02
   36.0000  2.2437576E-02  3.0101767E-02  2.5750019E-02
   37.0000  2.2098324E-02  2.9235840E-02  2.5557645E-02
   38.0000  2.1733604E-02  2.8354961E-02  2.5255180E-02
   39.0000  2.1367974E-02  2.7525263E-02  2.4884692E-02
   40.0000  2.1050966E-02  2.6842745E-02  2.4533548E-02
