    Energy   (100,001)      (010,001)      (001,110)   
  -25.0000  1.7178932E-04  1.8886806E-04  1.7472394E-04
  -24.0000  1.7796912E-04  1.9578692E-04  1.8116231E-04
  -23.0000  1.8456505E-04  2.0319215E-04  1.8804591E-04
  -22.0000  1.9161922E-04  2.1113588E-04  1.9542110E-04
  -21.0000  1.9917953E-04  2.1967785E-04  2.0334079E-04
  -20.0000  2.0730070E-04  2.2888689E-04  2.1186569E-04
  -19.0000  2.1604550E-04  2.3884270E-04  2.2106571E-04
  -18.0000  2.2548631E-04  2.4963801E-04  2.3102183E-04
  -17.0000  2.3570697E-04  2.6138138E-04  2.4182830E-04
  -16.0000  2.4680521E-04  2.7420072E-04  2.5359555E-04
  -15.0000  2.5889558E-04  2.8824768E-04  2.6645370E-04
  -14.0000  2.7211326E-04  3.0370347E-04  2.8055723E-04
  -13.0000  2.8661888E-04  3.2078629E-04  2.9609085E-04
  -12.0000  3.0260489E-04  3.3976122E-04  3.1327739E-04
  -11.0000  3.2030379E-04  3.6095339E-04  3.3238804E-04
  -10.0000  3.3999925E-04  3.8476589E-04  3.5375631E-04
  -9.00000  3.6204108E-04  4.1170435E-04  3.7779710E-04
  -8.00000  3.8686598E-04  4.4241155E-04  4.0503322E-04
  -7.00000  4.1502666E-04  4.7771688E-04  4.3613328E-04
  -6.00000  4.4723399E-04  5.1870907E-04  4.7196689E-04
  -5.00000  4.8441942E-04  5.6684560E-04  5.1368755E-04
  -4.00000  5.2783065E-04  6.2412323E-04  5.6286131E-04
  -3.00000  5.7918435E-04  6.9335356E-04  6.2167463E-04
  -2.00000  6.4092201E-04  7.7863035E-04  6.9328700E-04
  -1.00000  7.1666631E-04  8.8616912E-04  7.8246761E-04
   0.00000  8.1210435E-04  1.0259363E-03  8.9684104E-04
   1.00000  9.3689710E-04  1.2151551E-03  1.0496050E-03
   2.00000  1.1095116E-03  1.4870574E-03  1.2664535E-03
   3.00000  1.3727197E-03  1.9183137E-03  1.6078691E-03
   4.00000  1.8656345E-03  2.7528737E-03  2.2729746E-03
   5.00000  3.2057695E-03  5.0455510E-03  4.1526880E-03
   5.20000  3.6210207E-03  5.7589888E-03  4.7372651E-03
   5.40000  4.0321731E-03  6.4729652E-03  5.3053308E-03
   5.60000  4.4246663E-03  7.1707867E-03  5.8292947E-03
   5.80000  4.7988849E-03  7.8644873E-03  6.3116507E-03
   6.00000  5.1592590E-03  8.5731093E-03  6.7709070E-03
   6.20000  5.5112803E-03  9.3132551E-03  7.2311809E-03
   6.40000  5.8622067E-03  1.0098190E-02  7.7159080E-03
   6.60000  6.2212350E-03  1.0939340E-02  8.2451161E-03
   6.80000  6.5987322E-03  1.1847742E-02  8.8357274E-03
   7.00000  7.0053863E-03  1.2834920E-02  9.5032440E-03
   7.20000  7.4517223E-03  1.3913257E-02  1.0263293E-02
   7.40000  7.9479252E-03  1.5096096E-02  1.1132291E-02
   7.60000  8.5037593E-03  1.6397829E-02  1.2126996E-02
   7.80000  9.1283695E-03  1.7833975E-02  1.3262707E-02
   8.00000  9.8297897E-03  1.9420983E-02  1.4549806E-02
   8.20000  1.0614119E-02  2.1175636E-02  1.5988695E-02
   8.40000  1.1484449E-02  2.3113995E-02  1.7563951E-02
   8.60000  1.2439792E-02  2.5249752E-02  1.9239755E-02
   8.80000  1.3474491E-02  2.7592086E-02  2.0959522E-02
   9.00000  1.4578772E-02  3.0143465E-02  2.2652548E-02
   9.20000  1.5740791E-02  3.2897807E-02  2.4248545E-02
   9.40000  1.6949711E-02  3.5839117E-02  2.5696262E-02
   9.60000  1.8198411E-02  3.8940148E-02  2.6977616E-02
   9.80000  1.9484172E-02  4.2159850E-02  2.8109118E-02
   10.0000  2.0806671E-02  4.5438047E-02  2.9129414E-02
   10.2500  2.2508242E-02  4.9480992E-02  3.0310741E-02
   10.5000  2.4248333E-02  5.3225349E-02  3.1433086E-02
   10.7500  2.5993298E-02  5.6338120E-02  3.2499967E-02
   11.0000  2.7693051E-02  5.8456751E-02  3.3480083E-02
   11.2500  2.9288458E-02  5.9295050E-02  3.4331156E-02
   11.5000  3.0720630E-02  5.8751323E-02  3.5016694E-02
   11.7500  3.1940515E-02  5.6949329E-02  3.5513367E-02
   12.0000  3.2919193E-02  5.4189569E-02  3.5816165E-02
   12.2500  3.3655422E-02  5.0846938E-02  3.5938964E-02
   12.5000  3.4176290E-02  4.7272897E-02  3.5909513E-02
   12.7500  3.4528805E-02  4.3738391E-02  3.5764492E-02
   13.0000  3.4766935E-02  4.0419512E-02  3.5544910E-02
   13.2500  3.4941368E-02  3.7409895E-02  3.5290734E-02
   13.5000  3.5094345E-02  3.4743455E-02  3.5037309E-02
   13.7500  3.5258011E-02  3.2416749E-02  3.4814168E-02
   14.0000  3.5454640E-02  3.0406168E-02  3.4644945E-02
   14.2500  3.5697797E-02  2.8679329E-02  3.4547599E-02
   14.5000  3.5993812E-02  2.7201816E-02  3.4534702E-02
   14.7500  3.6343168E-02  2.5940776E-02  3.4613664E-02
   15.0000  3.6741608E-02  2.4866555E-02  3.4786854E-02
   15.2500  3.7180968E-02  2.3953232E-02  3.5051630E-02
   15.5000  3.7649837E-02  2.3178603E-02  3.5400345E-02
   15.7500  3.8134185E-02  2.2523902E-02  3.5820427E-02
   16.0000  3.8618071E-02  2.1973449E-02  3.6294671E-02
   16.2500  3.9084530E-02  2.1514287E-02  3.6801871E-02
   16.5000  3.9516661E-02  2.1135842E-02  3.7317874E-02
   16.7500  3.9898879E-02  2.0829620E-02  3.7817080E-02
   17.0000  4.0218213E-02  2.0588913E-02  3.8274304E-02
   17.2500  4.0465508E-02  2.0408513E-02  3.8666775E-02
   17.5000  4.0636316E-02  2.0284425E-02  3.8976014E-02
   17.7500  4.0731333E-02  2.0213574E-02  3.9189273E-02
   18.0000  4.0756244E-02  2.0193523E-02  3.9300319E-02
   18.2500  4.0720982E-02  2.0222217E-02  3.9309456E-02
   18.5000  4.0638513E-02  2.0297776E-02  3.9222824E-02
   18.7500  4.0523331E-02  2.0418341E-02  3.9051152E-02
   19.0000  4.0389917E-02  2.0582004E-02  3.8808189E-02
   19.2500  4.0251379E-02  2.0786799E-02  3.8509067E-02
   19.5000  4.0118405E-02  2.1030740E-02  3.8168786E-02
   19.7500  3.9998619E-02  2.1311843E-02  3.7801046E-02
   20.0000  3.9896339E-02  2.1627995E-02  3.7417679E-02
   21.0000  3.9650691E-02  2.3185834E-02  3.5907641E-02
   22.0000  3.9446784E-02  2.5067890E-02  3.4657984E-02
   23.0000  3.8884350E-02  2.7102087E-02  3.3667680E-02
   24.0000  3.7695240E-02  2.9132897E-02  3.2803468E-02
   25.0000  3.5891777E-02  3.1022267E-02  3.1953227E-02
   26.0000  3.3728999E-02  3.2647391E-02  3.1062672E-02
   27.0000  3.1537828E-02  3.3904152E-02  3.0131234E-02
   28.0000  2.9561244E-02  3.4724141E-02  2.9201598E-02
   29.0000  2.7903356E-02  3.5093142E-02  2.8340316E-02
   30.0000  2.6577252E-02  3.5056485E-02  2.7608704E-02
   31.0000  2.5561219E-02  3.4707682E-02  2.7035275E-02
   32.0000  2.4818190E-02  3.4154965E-02  2.6604292E-02
   33.0000  2.4298855E-02  3.3470853E-02  2.6268917E-02
   34.0000  2.3950926E-02  3.2692739E-02  2.5972653E-02
   35.0000  2.3725340E-02  3.1840959E-02  2.5664083E-02
   36.0000  2.3577582E-02  3.0930629E-02  2.5305327E-02
   37.0000  2.3467543E-02  2.9982045E-02  2.4878745E-02
   38.0000  2.3361296E-02  2.9031749E-02  2.4394368E-02
   39.0000  2.3240535E-02  2.8145190E-02  2.3897546E-02
   40.0000  2.3116869E-02  2.7419151E-02  2.3466331E-02
