    Energy   (100,001)      (010,001)      (001,110)   
  -25.0000  1.7051180E-04  1.9299491E-04  1.8126712E-04
  -24.0000  1.7650841E-04  1.9999221E-04  1.8771480E-04
  -23.0000  1.8289944E-04  2.0747915E-04  1.9459813E-04
  -22.0000  1.8972388E-04  2.1550812E-04  2.0196175E-04
  -21.0000  1.9702597E-04  2.2413919E-04  2.0985656E-04
  -20.0000  2.0485611E-04  2.3344156E-04  2.1834082E-04
  -19.0000  2.1327194E-04  2.4349533E-04  2.2748155E-04
  -18.0000  2.2233971E-04  2.5439372E-04  2.3735625E-04
  -17.0000  2.3213591E-04  2.6624589E-04  2.4805501E-04
  -16.0000  2.4274938E-04  2.7918042E-04  2.5968318E-04
  -15.0000  2.5428387E-04  2.9334981E-04  2.7236477E-04
  -14.0000  2.6686131E-04  3.0893628E-04  2.8624674E-04
  -13.0000  2.8062600E-04  3.2615928E-04  3.0150462E-04
  -12.0000  2.9574998E-04  3.4528546E-04  3.1834985E-04
  -11.0000  3.1244014E-04  3.6664193E-04  3.3703954E-04
  -10.0000  3.3094754E-04  3.9063430E-04  3.5788963E-04
  -9.00000  3.5158004E-04  4.1777154E-04  3.8129299E-04
  -8.00000  3.7471961E-04  4.4870081E-04  4.0774479E-04
  -7.00000  4.0084646E-04  4.8425752E-04  4.3787886E-04
  -6.00000  4.3057374E-04  5.2553867E-04  4.7252127E-04
  -5.00000  4.6469839E-04  5.7401365E-04  5.1277175E-04
  -4.00000  5.0427854E-04  6.3169671E-04  5.6013211E-04
  -3.00000  5.5075570E-04  7.0142638E-04  6.1671825E-04
  -2.00000  6.0615743E-04  7.8733972E-04  6.8563012E-04
  -1.00000  6.7345473E-04  8.9572666E-04  7.7164477E-04
   0.00000  7.5724543E-04  1.0366923E-03  8.8263801E-04
   1.00000  8.6521288E-04  1.2277497E-03  1.0328793E-03
   2.00000  1.0117688E-03  1.5028442E-03  1.2520761E-03
   3.00000  1.2295810E-03  1.9408957E-03  1.6171884E-03
   4.00000  1.6224490E-03  2.7962602E-03  2.4152836E-03
   5.00000  2.6473554E-03  5.1783909E-03  5.0140604E-03
   5.20000  2.9660440E-03  5.9139036E-03  5.7774958E-03
   5.40000  3.2848461E-03  6.6380692E-03  6.4359525E-03
   5.60000  3.5914464E-03  7.3301030E-03  6.9477060E-03
   5.80000  3.8854865E-03  8.0022825E-03  7.3303758E-03
   6.00000  4.1713115E-03  8.6769811E-03  7.6241238E-03
   6.20000  4.4544541E-03  9.3759587E-03  7.8703001E-03
   6.40000  4.7406953E-03  1.0118221E-02  8.1028549E-03
   6.60000  5.0358098E-03  1.0920470E-02  8.3464756E-03
   6.80000  5.3455086E-03  1.1797968E-02  8.6185143E-03
   7.00000  5.6755379E-03  1.2765289E-02  8.9319976E-03
   7.20000  6.0318150E-03  1.3836806E-02  9.2973425E-03
   7.40000  6.4205260E-03  1.5027036E-02  9.7218536E-03
   7.60000  6.8482230E-03  1.6351199E-02  1.0207885E-02
   7.80000  7.3219059E-03  1.7826038E-02  1.0751711E-02
   8.00000  7.8489518E-03  1.9470369E-02  1.1345052E-02
   8.20000  8.4368107E-03  2.1304779E-02  1.1979583E-02
   8.40000  9.0924867E-03  2.3349920E-02  1.2652217E-02
   8.60000  9.8219103E-03  2.5623088E-02  1.3367783E-02
   8.80000  1.0629346E-02  2.8133524E-02  1.4137534E-02
   9.00000  1.1516970E-02  3.0877079E-02  1.4975019E-02
   9.20000  1.2484713E-02  3.3830850E-02  1.5892132E-02
   9.40000  1.3530351E-02  3.6949180E-02  1.6896886E-02
   9.60000  1.4649737E-02  4.0162976E-02  1.7992806E-02
   9.80000  1.5836990E-02  4.3383437E-02  1.9179045E-02
   10.0000  1.7084289E-02  4.6509207E-02  2.0450297E-02
   10.2500  1.8711081E-02  5.0121097E-02  2.2142596E-02
   10.5000  2.0383920E-02  5.3213052E-02  2.3918963E-02
   10.7500  2.2059386E-02  5.5591661E-02  2.5735451E-02
   11.0000  2.3682304E-02  5.7089139E-02  2.7539757E-02
   11.2500  2.5192759E-02  5.7591377E-02  2.9278873E-02
   11.5000  2.6538719E-02  5.7074917E-02  3.0910928E-02
   11.7500  2.7688388E-02  5.5626459E-02  3.2413532E-02
   12.0000  2.8635711E-02  5.3426492E-02  3.3782457E-02
   12.2500  2.9398262E-02  5.0705518E-02  3.5023194E-02
   12.5000  3.0011451E-02  4.7695987E-02  3.6142230E-02
   12.7500  3.0520606E-02  4.4597574E-02  3.7141985E-02
   13.0000  3.0970635E-02  4.1561613E-02  3.8020608E-02
   13.2500  3.1396828E-02  3.8690881E-02  3.8775138E-02
   13.5000  3.1821822E-02  3.6047026E-02  3.9405002E-02
   13.7500  3.2257385E-02  3.3660111E-02  3.9913960E-02
   14.0000  3.2706809E-02  3.1537616E-02  4.0309894E-02
   14.2500  3.3167130E-02  2.9671961E-02  4.0603681E-02
   14.5000  3.3632045E-02  2.8046418E-02  4.0808554E-02
   14.7500  3.4094750E-02  2.6639525E-02  4.0939531E-02
   15.0000  3.4549620E-02  2.5428184E-02  4.1012298E-02
   15.2500  3.4992677E-02  2.4389697E-02  4.1041650E-02
   15.5000  3.5421306E-02  2.3502990E-02  4.1039933E-02
   15.7500  3.5833641E-02  2.2749235E-02  4.1015816E-02
   16.0000  3.6227924E-02  2.2112075E-02  4.0973582E-02
   16.2500  3.6602048E-02  2.1577567E-02  4.0913031E-02
   16.5000  3.6953430E-02  2.1133966E-02  4.0830018E-02
   16.7500  3.7279261E-02  2.0771435E-02  4.0717570E-02
   17.0000  3.7577105E-02  2.0481736E-02  4.0567430E-02
   17.2500  3.7845686E-02  2.0257944E-02  4.0371806E-02
   17.5000  3.8085671E-02  2.0094191E-02  4.0125029E-02
   17.7500  3.8300188E-02  1.9985469E-02  3.9824803E-02
   18.0000  3.8494924E-02  1.9927461E-02  3.9472834E-02
   18.2500  3.8677724E-02  1.9916423E-02  3.9074741E-02
   18.5000  3.8857787E-02  1.9949091E-02  3.8639334E-02
   18.7500  3.9044630E-02  2.0022619E-02  3.8177488E-02
   19.0000  3.9247058E-02  2.0134549E-02  3.7700865E-02
   19.2500  3.9472319E-02  2.0282804E-02  3.7220720E-02
   19.5000  3.9725538E-02  2.0465689E-02  3.6746949E-02
   19.7500  4.0009391E-02  2.0681864E-02  3.6287504E-02
   20.0000  4.0323869E-02  2.0930213E-02  3.5848312E-02
   21.0000  4.1794276E-02  2.2220805E-02  3.4366485E-02
   22.0000  4.3210626E-02  2.3936689E-02  3.3373737E-02
   23.0000  4.3958020E-02  2.6014994E-02  3.2764836E-02
   24.0000  4.3529462E-02  2.8335763E-02  3.2353024E-02
   25.0000  4.1764897E-02  3.0680728E-02  3.1952603E-02
   26.0000  3.8950115E-02  3.2761772E-02  3.1423837E-02
   27.0000  3.5665392E-02  3.4321682E-02  3.0707283E-02
   28.0000  3.2488614E-02  3.5238978E-02  2.9838294E-02
   29.0000  2.9787147E-02  3.5553982E-02  2.8922738E-02
   30.0000  2.7692413E-02  3.5409237E-02  2.8082696E-02
   31.0000  2.6180848E-02  3.4966506E-02  2.7406764E-02
   32.0000  2.5160979E-02  3.4353586E-02  2.6929858E-02
   33.0000  2.4521516E-02  3.3658313E-02  2.6638532E-02
   34.0000  2.4151730E-02  3.2936463E-02  2.6485567E-02
   35.0000  2.3959099E-02  3.2198817E-02  2.6406851E-02
   36.0000  2.3867727E-02  3.1435982E-02  2.6340145E-02
   37.0000  2.3812807E-02  3.0647086E-02  2.6239646E-02
   38.0000  2.3745548E-02  2.9853172E-02  2.6086102E-02
   39.0000  2.3645975E-02  2.9106515E-02  2.5893668E-02
   40.0000  2.3531578E-02  2.8490973E-02  2.5707761E-02
