    Energy   (100,001)      (010,001)      (001,110)   
  -25.0000  1.6650165E-04  1.8479863E-04  1.7314945E-04
  -24.0000  1.7260725E-04  1.9177654E-04  1.7957015E-04
  -23.0000  1.7912844E-04  1.9925820E-04  1.8643744E-04
  -22.0000  1.8610755E-04  2.0729890E-04  1.9379805E-04
  -21.0000  1.9359276E-04  2.1596222E-04  2.0170539E-04
  -20.0000  2.0163915E-04  2.2532162E-04  2.1022070E-04
  -19.0000  2.1030993E-04  2.3546243E-04  2.1941461E-04
  -18.0000  2.1967804E-04  2.4648430E-04  2.2936893E-04
  -17.0000  2.2982806E-04  2.5850434E-04  2.4017897E-04
  -16.0000  2.4085861E-04  2.7166103E-04  2.5195645E-04
  -15.0000  2.5288542E-04  2.8611932E-04  2.6483310E-04
  -14.0000  2.6604517E-04  3.0207718E-04  2.7896540E-04
  -13.0000  2.8050044E-04  3.1977420E-04  2.9454061E-04
  -12.0000  2.9644622E-04  3.3950301E-04  3.1178473E-04
  -11.0000  3.1411840E-04  3.6162466E-04  3.3097301E-04
  -10.0000  3.3380518E-04  3.8658961E-04  3.5244422E-04
  -9.00000  3.5586252E-04  4.1496690E-04  3.7662002E-04
  -8.00000  3.8073563E-04  4.4748547E-04  4.0403214E-04
  -7.00000  4.0898925E-04  4.8509398E-04  4.3536105E-04
  -6.00000  4.4135159E-04  5.2904944E-04  4.7149242E-04
  -5.00000  4.7877976E-04  5.8105243E-04  5.1360197E-04
  -4.00000  5.2256075E-04  6.4346026E-04  5.6328739E-04
  -3.00000  5.7447361E-04  7.1963639E-04  6.2278180E-04
  -2.00000  6.3706347E-04  8.1455134E-04  6.9531747E-04
  -1.00000  7.1413537E-04  9.3587899E-04  7.8578606E-04
   0.00000  8.1172141E-04  1.0961558E-03  9.0204293E-04
   1.00000  9.4020207E-04  1.3174920E-03  1.0577983E-03
   2.00000  1.1197657E-03  1.6434566E-03  1.2801792E-03
   3.00000  1.3982583E-03  2.1764683E-03  1.6351684E-03
   4.00000  1.9358323E-03  3.2455464E-03  2.3542068E-03
   5.00000  3.4546251E-03  6.2803101E-03  4.4571766E-03
   5.20000  3.9218412E-03  7.2463170E-03  5.0176835E-03
   5.40000  4.3747818E-03  8.2297810E-03  5.4805988E-03
   5.60000  4.7964155E-03  9.2103667E-03  5.8491460E-03
   5.80000  5.1897986E-03  1.0204395E-02  6.1710767E-03
   6.00000  5.5632072E-03  1.1238179E-02  6.4949551E-03
   6.20000  5.9248020E-03  1.2336283E-02  6.8562708E-03
   6.40000  6.2827824E-03  1.3519748E-02  7.2797200E-03
   6.60000  6.6459588E-03  1.4806881E-02  7.7838758E-03
   6.80000  7.0235297E-03  1.6213879E-02  8.3842065E-03
   7.00000  7.4245796E-03  1.7754709E-02  9.0944004E-03
   7.20000  7.8578428E-03  1.9440185E-02  9.9264541E-03
   7.40000  8.3318617E-03  2.1276292E-02  1.0889668E-02
   7.60000  8.8553986E-03  2.3261860E-02  1.1988582E-02
   7.80000  9.4378753E-03  2.5386115E-02  1.3220217E-02
   8.00000  1.0089601E-02  2.7627226E-02  1.4571686E-02
   8.20000  1.0821560E-02  2.9953559E-02  1.6020016E-02
   8.40000  1.1644596E-02  3.2328941E-02  1.7535969E-02
   8.60000  1.2568088E-02  3.4721393E-02  1.9091976E-02
   8.80000  1.3598557E-02  3.7111814E-02  2.0671123E-02
   9.00000  1.4738436E-02  3.9497001E-02  2.2272083E-02
   9.20000  1.5984764E-02  4.1882924E-02  2.3905785E-02
   9.40000  1.7327662E-02  4.4269411E-02  2.5583524E-02
   9.60000  1.8749131E-02  4.6631960E-02  2.7302307E-02
   9.80000  2.0223030E-02  4.8907713E-02  2.9035686E-02
   10.0000  2.1716371E-02  5.0991310E-02  3.0733681E-02
   10.2500  2.3552977E-02  5.3113116E-02  3.2705987E-02
   10.5000  2.5286774E-02  5.4435481E-02  3.4391330E-02
   10.7500  2.6855368E-02  5.4754475E-02  3.5699372E-02
   11.0000  2.8217834E-02  5.4018294E-02  3.6603486E-02
   11.2500  2.9355165E-02  5.2337077E-02  3.7137623E-02
   11.5000  3.0268577E-02  4.9935607E-02  3.7376045E-02
   11.7500  3.0978018E-02  4.7084430E-02  3.7408677E-02
   12.0000  3.1517733E-02  4.4041183E-02  3.7320358E-02
   12.2500  3.1928900E-02  4.1013871E-02  3.7178810E-02
   12.5000  3.2252558E-02  3.8146435E-02  3.7031623E-02
   12.7500  3.2525080E-02  3.5522290E-02  3.6908739E-02
   13.0000  3.2776482E-02  3.3177642E-02  3.6826671E-02
   13.2500  3.3030537E-02  3.1116898E-02  3.6792500E-02
   13.5000  3.3305259E-02  2.9326029E-02  3.6807079E-02
   13.7500  3.3613453E-02  2.7782252E-02  3.6867306E-02
   14.0000  3.3963862E-02  2.6459833E-02  3.6967558E-02
   14.2500  3.4362258E-02  2.5333122E-02  3.7100378E-02
   14.5000  3.4811758E-02  2.4378080E-02  3.7256651E-02
   14.7500  3.5312493E-02  2.3572974E-02  3.7425573E-02
   15.0000  3.5861118E-02  2.2898628E-02  3.7594741E-02
   15.2500  3.6450458E-02  2.2338394E-02  3.7750530E-02
   15.5000  3.7069529E-02  2.1877994E-02  3.7878824E-02
   15.7500  3.7703982E-02  2.1505281E-02  3.7966077E-02
   16.0000  3.8337054E-02  2.1209969E-02  3.8000535E-02
   16.2500  3.8950939E-02  2.0983360E-02  3.7973430E-02
   16.5000  3.9528479E-02  2.0818089E-02  3.7879909E-02
   16.7500  4.0054923E-02  2.0707902E-02  3.7719512E-02
   17.0000  4.0519486E-02  2.0647469E-02  3.7496102E-02
   17.2500  4.0916416E-02  2.0632239E-02  3.7217273E-02
   17.5000  4.1245357E-02  2.0658335E-02  3.6893367E-02
   17.7500  4.1510947E-02  2.0722486E-02  3.6536303E-02
   18.0000  4.1721717E-02  2.0821980E-02  3.6158406E-02
   18.2500  4.1888559E-02  2.0954615E-02  3.5771415E-02
   18.5000  4.2023038E-02  2.1118664E-02  3.5385752E-02
   18.7500  4.2135853E-02  2.1312817E-02  3.5010067E-02
   19.0000  4.2235656E-02  2.1536136E-02  3.4651054E-02
   19.2500  4.2328341E-02  2.1788000E-02  3.4313443E-02
   19.5000  4.2416779E-02  2.2068054E-02  3.4000128E-02
   19.7500  4.2500895E-02  2.2376109E-02  3.3712385E-02
   20.0000  4.2577897E-02  2.2711906E-02  3.3450196E-02
   21.0000  4.2684472E-02  2.4310238E-02  3.2634240E-02
   22.0000  4.2099117E-02  2.6226224E-02  3.2104226E-02
   23.0000  4.0535021E-02  2.8287579E-02  3.1716048E-02
   24.0000  3.8126925E-02  3.0261262E-02  3.1329962E-02
   25.0000  3.5294778E-02  3.1903882E-02  3.0844251E-02
   26.0000  3.2464343E-02  3.3033035E-02  3.0226924E-02
   27.0000  2.9924818E-02  3.3580413E-02  2.9518470E-02
   28.0000  2.7829168E-02  3.3600923E-02  2.8803611E-02
   29.0000  2.6225954E-02  3.3231072E-02  2.8166164E-02
   30.0000  2.5072660E-02  3.2612971E-02  2.7642416E-02
   31.0000  2.4285515E-02  3.1854719E-02  2.7227740E-02
   32.0000  2.3773519E-02  3.1025590E-02  2.6894632E-02
   33.0000  2.3447581E-02  3.0166354E-02  2.6602532E-02
   34.0000  2.3224867E-02  2.9304301E-02  2.6305969E-02
   35.0000  2.3033447E-02  2.8463897E-02  2.5961962E-02
   36.0000  2.2818909E-02  2.7668225E-02  2.5537504E-02
   37.0000  2.2552870E-02  2.6933660E-02  2.5018486E-02
   38.0000  2.2239632E-02  2.6268445E-02  2.4421018E-02
   39.0000  2.1915209E-02  2.5685398E-02  2.3804174E-02
   40.0000  2.1633685E-02  2.5218342E-02  2.3268472E-02
