    Energy   (100,001)      (010,001)      (001,110)   
  -25.0000  1.6894206E-04  1.8246502E-04  1.8236341E-04
  -24.0000  1.7489577E-04  1.8945964E-04  1.8866828E-04
  -23.0000  1.8123974E-04  1.9696224E-04  1.9538830E-04
  -22.0000  1.8801231E-04  2.0502862E-04  2.0256498E-04
  -21.0000  1.9525690E-04  2.1372296E-04  2.1024552E-04
  -20.0000  2.0302292E-04  2.2311935E-04  2.1848377E-04
  -19.0000  2.1136683E-04  2.3330386E-04  2.2734147E-04
  -18.0000  2.2035343E-04  2.4437695E-04  2.3688976E-04
  -17.0000  2.3005745E-04  2.5645664E-04  2.4721103E-04
  -16.0000  2.4056553E-04  2.6968240E-04  2.5840120E-04
  -15.0000  2.5197870E-04  2.8422026E-04  2.7057269E-04
  -14.0000  2.6441553E-04  3.0026936E-04  2.8385806E-04
  -13.0000  2.7801604E-04  3.1807047E-04  2.9841481E-04
  -12.0000  2.9294692E-04  3.3791743E-04  3.1443155E-04
  -11.0000  3.0940822E-04  3.6017232E-04  3.3213614E-04
  -10.0000  3.2764224E-04  3.8528633E-04  3.5180658E-04
  -9.00000  3.4794550E-04  4.1382857E-04  3.7378580E-04
  -8.00000  3.7068521E-04  4.4652677E-04  3.9850218E-04
  -7.00000  3.9632225E-04  4.8432611E-04  4.2649853E-04
  -6.00000  4.2544419E-04  5.2847597E-04  4.5847419E-04
  -5.00000  4.5881400E-04  5.8066189E-04  4.9534796E-04
  -4.00000  4.9744458E-04  6.4321270E-04  5.3835567E-04
  -3.00000  5.4271748E-04  7.1943845E-04  5.8920811E-04
  -2.00000  5.9658236E-04  8.1420881E-04  6.5036115E-04
  -1.00000  6.6191519E-04  9.3500311E-04  7.2551130E-04
   0.00000  7.4321986E-04  1.0939690E-03  8.2059310E-04
   1.00000  8.4817520E-04  1.3124003E-03  9.4605707E-04
   2.00000  9.9166207E-04  1.6320350E-03  1.1230932E-03
   3.00000  1.2091772E-03  2.1508305E-03  1.4058150E-03
   4.00000  1.6220564E-03  3.1860570E-03  1.9991728E-03
   5.00000  2.7795440E-03  6.1232430E-03  3.8212158E-03
   5.20000  3.1215381E-03  7.0372440E-03  4.2549967E-03
   5.40000  3.4397291E-03  7.9417135E-03  4.5546526E-03
   5.60000  3.7247716E-03  8.8121619E-03  4.7361884E-03
   5.80000  3.9862461E-03  9.6642622E-03  4.8578162E-03
   6.00000  4.2368060E-03  1.0525329E-02  4.9704905E-03
   6.20000  4.4855157E-03  1.1421460E-02  5.1064486E-03
   6.40000  4.7375350E-03  1.2375470E-02  5.2846381E-03
   6.60000  4.9956512E-03  1.3407921E-02  5.5170006E-03
   6.80000  5.2618691E-03  1.4538534E-02  5.8119190E-03
   7.00000  5.5385810E-03  1.5787591E-02  6.1753399E-03
   7.20000  5.8291785E-03  1.7177243E-02  6.6106446E-03
   7.40000  6.1380975E-03  1.8732365E-02  7.1182472E-03
   7.60000  6.4704965E-03  2.0480762E-02  7.6957430E-03
   7.80000  6.8318821E-03  2.2452598E-02  8.3391050E-03
   8.00000  7.2278509E-03  2.4678913E-02  9.0447103E-03
   8.20000  7.6638752E-03  2.7189056E-02  9.8111769E-03
   8.40000  8.1449849E-03  3.0006733E-02  1.0640191E-02
   8.60000  8.6752797E-03  3.3144149E-02  1.1536243E-02
   8.80000  9.2572598E-03  3.6593867E-02  1.2505166E-02
   9.00000  9.8910541E-03  4.0318437E-02  1.3551433E-02
   9.20000  1.0573775E-02  4.4238861E-02  1.4674587E-02
   9.40000  1.1299369E-02  4.8224975E-02  1.5865716E-02
   9.60000  1.2059408E-02  5.2093289E-02  1.7105596E-02
   9.80000  1.2845071E-02  5.5618916E-02  1.8366187E-02
   10.0000  1.3649969E-02  5.8564561E-02  1.9616042E-02
   10.2500  1.4681177E-02  6.1116198E-02  2.1122839E-02
   10.5000  1.5748296E-02  6.2172183E-02  2.2543215E-02
   10.7500  1.6866954E-02  6.1683059E-02  2.3881340E-02
   11.0000  1.8052616E-02  5.9817464E-02  2.5162218E-02
   11.2500  1.9314225E-02  5.6900736E-02  2.6413748E-02
   11.5000  2.0650844E-02  5.3321000E-02  2.7654581E-02
   11.7500  2.2050882E-02  4.9444272E-02  2.8890300E-02
   12.0000  2.3493235E-02  4.5562660E-02  3.0114984E-02
   12.2500  2.4949934E-02  4.1877203E-02  3.1315734E-02
   12.5000  2.6389817E-02  3.8504919E-02  3.2477218E-02
   12.7500  2.7782577E-02  3.5498038E-02  3.3583057E-02
   13.0000  2.9102949E-02  3.2865096E-02  3.4615225E-02
   13.2500  3.0334254E-02  3.0588397E-02  3.5555319E-02
   13.5000  3.1469539E-02  2.8636821E-02  3.6389501E-02
   13.7500  3.2510458E-02  2.6974396E-02  3.7113954E-02
   14.0000  3.3465717E-02  2.5565286E-02  3.7736003E-02
   14.2500  3.4349375E-02  2.4376258E-02  3.8271047E-02
   14.5000  3.5178664E-02  2.3377707E-02  3.8738319E-02
   14.7500  3.5971589E-02  2.2543918E-02  3.9157178E-02
   15.0000  3.6744798E-02  2.1852928E-02  3.9544262E-02
   15.2500  3.7512022E-02  2.1286194E-02  3.9911481E-02
   15.5000  3.8283114E-02  2.0828186E-02  4.0264854E-02
   15.7500  3.9063596E-02  2.0465984E-02  4.0604143E-02
   16.0000  3.9854574E-02  2.0188890E-02  4.0923248E-02
   16.2500  4.0652945E-02  1.9988090E-02  4.1211295E-02
   16.5000  4.1451823E-02  1.9856346E-02  4.1454283E-02
   16.7500  4.2241152E-02  1.9787726E-02  4.1637127E-02
   17.0000  4.3008477E-02  1.9777370E-02  4.1745815E-02
   17.2500  4.3739847E-02  1.9821266E-02  4.1769390E-02
   17.5000  4.4420832E-02  1.9916066E-02  4.1701439E-02
   17.7500  4.5037599E-02  2.0058915E-02  4.1540873E-02
   18.0000  4.5577989E-02  2.0247313E-02  4.1291943E-02
   18.2500  4.6032485E-02  2.0478997E-02  4.0963548E-02
   18.5000  4.6394952E-02  2.0751856E-02  4.0568069E-02
   18.7500  4.6663047E-02  2.1063884E-02  4.0119957E-02
   19.0000  4.6838206E-02  2.1413160E-02  3.9634329E-02
   19.2500  4.6925223E-02  2.1797872E-02  3.9125706E-02
   19.5000  4.6931464E-02  2.2216356E-02  3.8607022E-02
   19.7500  4.6865924E-02  2.2667065E-02  3.8088999E-02
   20.0000  4.6738386E-02  2.3148334E-02  3.7580052E-02
   21.0000  4.5801880E-02  2.5322165E-02  3.5750346E-02
   22.0000  4.4488235E-02  2.7720623E-02  3.4368596E-02
   23.0000  4.2872699E-02  3.0084128E-02  3.3371279E-02
   24.0000  4.0843902E-02  3.2124658E-02  3.2596671E-02
   25.0000  3.8366768E-02  3.3600917E-02  3.1896132E-02
   26.0000  3.5600048E-02  3.4397094E-02  3.1183633E-02
   27.0000  3.2839478E-02  3.4543464E-02  3.0450096E-02
   28.0000  3.0377500E-02  3.4176358E-02  2.9744304E-02
   29.0000  2.8394659E-02  3.3470392E-02  2.9134204E-02
   30.0000  2.6931163E-02  3.2590392E-02  2.8674629E-02
   31.0000  2.5920540E-02  3.1663894E-02  2.8387156E-02
   32.0000  2.5250950E-02  3.0751824E-02  2.8248480E-02
   33.0000  2.4814785E-02  2.9867879E-02  2.8209263E-02
   34.0000  2.4525622E-02  2.9005624E-02  2.8214316E-02
   35.0000  2.4316651E-02  2.8152746E-02  2.8211661E-02
   36.0000  2.4136235E-02  2.7300171E-02  2.8157065E-02
   37.0000  2.3945769E-02  2.6448470E-02  2.8018619E-02
   38.0000  2.3721480E-02  2.5615431E-02  2.7785513E-02
   39.0000  2.3465031E-02  2.4846514E-02  2.7483712E-02
   40.0000  2.3217612E-02  2.4217063E-02  2.7187401E-02
