    Energy   (100,001)      (010,001)      (001,110)   
  -25.0000  1.7212421E-04  1.8530155E-04  1.8266258E-04
  -24.0000  1.7800948E-04  1.9230230E-04  1.8880665E-04
  -23.0000  1.8427378E-04  1.9980754E-04  1.9534589E-04
  -22.0000  1.9095402E-04  2.0787249E-04  2.0231908E-04
  -21.0000  1.9809201E-04  2.1656060E-04  2.0977019E-04
  -20.0000  2.0573535E-04  2.2594513E-04  2.1774934E-04
  -19.0000  2.1393840E-04  2.3611117E-04  2.2631387E-04
  -18.0000  2.2276356E-04  2.4715801E-04  2.3552974E-04
  -17.0000  2.3228282E-04  2.5920226E-04  2.4547318E-04
  -16.0000  2.4257972E-04  2.7238176E-04  2.5623281E-04
  -15.0000  2.5375170E-04  2.8686054E-04  2.6791229E-04
  -14.0000  2.6591322E-04  3.0283536E-04  2.8063364E-04
  -13.0000  2.7919967E-04  3.2054417E-04  2.9454162E-04
  -12.0000  2.9377242E-04  3.4027735E-04  3.0980930E-04
  -11.0000  3.0982553E-04  3.6239291E-04  3.2664550E-04
  -10.0000  3.2759462E-04  3.8733710E-04  3.4530470E-04
  -9.00000  3.4736892E-04  4.1567318E-04  3.6610062E-04
  -8.00000  3.6950791E-04  4.4812210E-04  3.8942496E-04
  -7.00000  3.9446480E-04  4.8562128E-04  4.1577417E-04
  -6.00000  4.2282055E-04  5.2941187E-04  4.4578846E-04
  -5.00000  4.5533463E-04  5.8117193E-04  4.8031050E-04
  -4.00000  4.9302349E-04  6.4322653E-04  5.2047716E-04
  -3.00000  5.3728724E-04  7.1889304E-04  5.6786935E-04
  -2.00000  5.9012548E-04  8.1307688E-04  6.2477082E-04
  -1.00000  6.5453033E-04  9.3336474E-04  6.9464788E-04
   0.00000  7.3526792E-04  1.0921961E-03  7.8312377E-04
   1.00000  8.4062516E-04  1.3116641E-03  9.0021837E-04
   2.00000  9.8701063E-04  1.6358703E-03  1.0664721E-03
   3.00000  1.2144024E-03  2.1709369E-03  1.3345991E-03
   4.00000  1.6616720E-03  3.2715466E-03  1.9025696E-03
   5.00000  2.9674667E-03  6.5215527E-03  3.6719307E-03
   5.20000  3.3618370E-03  7.5350795E-03  4.1222899E-03
   5.40000  3.7301126E-03  8.5261452E-03  4.4568019E-03
   5.60000  4.0563727E-03  9.4641821E-03  4.6807110E-03
   5.80000  4.3470768E-03  1.0366098E-02  4.8472722E-03
   6.00000  4.6155165E-03  1.1262094E-02  5.0099388E-03
   6.20000  4.8742693E-03  1.2179855E-02  5.2049092E-03
   6.40000  5.1336247E-03  1.3141839E-02  5.4529072E-03
   6.60000  5.4019395E-03  1.4166580E-02  5.7650666E-03
   6.80000  5.6862544E-03  1.5270440E-02  6.1471291E-03
   7.00000  5.9927158E-03  1.6468874E-02  6.6011554E-03
   7.20000  6.3267671E-03  1.7777093E-02  7.1253579E-03
   7.40000  6.6931822E-03  1.9210338E-02  7.7129230E-03
   7.60000  7.0960137E-03  2.0784154E-02  8.3508814E-03
   7.80000  7.5384880E-03  2.2514627E-02  9.0203397E-03
   8.00000  8.0228574E-03  2.4417908E-02  9.6991562E-03
   8.20000  8.5502350E-03  2.6508838E-02  1.0366839E-02
   8.40000  9.1204118E-03  2.8798777E-02  1.1009564E-02
   8.60000  9.7315883E-03  3.1292708E-02  1.1622485E-02
   8.80000  1.0379959E-02  3.3985751E-02  1.2208110E-02
   9.00000  1.1059177E-02  3.6859211E-02  1.2772144E-02
   9.20000  1.1759893E-02  3.9876172E-02  1.3319451E-02
   9.40000  1.2469688E-02  4.2976697E-02  1.3852064E-02
   9.60000  1.3173849E-02  4.6073700E-02  1.4369616E-02
   9.80000  1.3857213E-02  4.9051650E-02  1.4871326E-02
   10.0000  1.4506763E-02  5.1770204E-02  1.5358243E-02
   10.2500  1.5259110E-02  5.4567305E-02  1.5953048E-02
   10.5000  1.5944202E-02  5.6427934E-02  1.6548163E-02
   10.7500  1.6575741E-02  5.7145361E-02  1.7166167E-02
   11.0000  1.7177771E-02  5.6657749E-02  1.7830904E-02
   11.2500  1.7777402E-02  5.5069842E-02  1.8563080E-02
   11.5000  1.8399043E-02  5.2619035E-02  1.9377683E-02
   11.7500  1.9061552E-02  4.9604867E-02  2.0282498E-02
   12.0000  1.9777765E-02  4.6320415E-02  2.1276670E-02
   12.2500  2.0555014E-02  4.3007496E-02  2.2349899E-02
   12.5000  2.1395965E-02  3.9838951E-02  2.3483978E-02
   12.7500  2.2299718E-02  3.6920995E-02  2.4656631E-02
   13.0000  2.3262608E-02  3.4305852E-02  2.5845209E-02
   13.2500  2.4278403E-02  3.2007602E-02  2.7028363E-02
   13.5000  2.5338565E-02  3.0016720E-02  2.8187147E-02
   13.7500  2.6433207E-02  2.8310890E-02  2.9307559E-02
   14.0000  2.7552242E-02  2.6862117E-02  3.0382984E-02
   14.2500  2.8686096E-02  2.5641134E-02  3.1414619E-02
   14.5000  2.9825953E-02  2.4619928E-02  3.2409962E-02
   14.7500  3.0963676E-02  2.3773003E-02  3.3380277E-02
   15.0000  3.2091549E-02  2.3077865E-02  3.4337838E-02
   15.2500  3.3201939E-02  2.2515032E-02  3.5293426E-02
   15.5000  3.4286979E-02  2.2067809E-02  3.6254322E-02
   15.7500  3.5338350E-02  2.1721953E-02  3.7222890E-02
   16.0000  3.6347252E-02  2.1465307E-02  3.8195742E-02
   16.2500  3.7304580E-02  2.1287463E-02  3.9163508E-02
   16.5000  3.8201290E-02  2.1179476E-02  4.0111212E-02
   16.7500  3.9028898E-02  2.1133628E-02  4.1019312E-02
   17.0000  3.9780030E-02  2.1143251E-02  4.1865340E-02
   17.2500  4.0448941E-02  2.1202603E-02  4.2626064E-02
   17.5000  4.1031914E-02  2.1306775E-02  4.3279886E-02
   17.7500  4.1527515E-02  2.1451630E-02  4.3809151E-02
   18.0000  4.1936675E-02  2.1633748E-02  4.4201960E-02
   18.2500  4.2262623E-02  2.1850355E-02  4.4453207E-02
   18.5000  4.2510685E-02  2.2099257E-02  4.4564683E-02
   18.7500  4.2687977E-02  2.2378738E-02  4.4544311E-02
   19.0000  4.2802983E-02  2.2687471E-02  4.4404728E-02
   19.2500  4.2865050E-02  2.3024417E-02  4.4161513E-02
   19.5000  4.2883806E-02  2.3388740E-02  4.3831378E-02
   19.7500  4.2868587E-02  2.3779662E-02  4.3430681E-02
   20.0000  4.2828019E-02  2.4196155E-02  4.2974622E-02
   21.0000  4.2551614E-02  2.6069320E-02  4.0862702E-02
   22.0000  4.2261612E-02  2.8102891E-02  3.8726022E-02
   23.0000  4.1901223E-02  3.0030023E-02  3.6814869E-02
   24.0000  4.1245437E-02  3.1592929E-02  3.5180505E-02
   25.0000  4.0093013E-02  3.2634927E-02  3.3797825E-02
   26.0000  3.8384919E-02  3.3137092E-02  3.2612795E-02
   27.0000  3.6250963E-02  3.3180739E-02  3.1576818E-02
   28.0000  3.3965794E-02  3.2887586E-02  3.0671296E-02
   29.0000  3.1819584E-02  3.2378515E-02  2.9905987E-02
   30.0000  2.9999642E-02  3.1752238E-02  2.9296963E-02
   31.0000  2.8564628E-02  3.1076227E-02  2.8846962E-02
   32.0000  2.7485731E-02  3.0392782E-02  2.8541495E-02
   33.0000  2.6696673E-02  2.9725597E-02  2.8354908E-02
   34.0000  2.6130033E-02  2.9071117E-02  2.8255691E-02
   35.0000  2.5730712E-02  2.8414159E-02  2.8211733E-02
   36.0000  2.5455085E-02  2.7744394E-02  2.8192175E-02
   37.0000  2.5266701E-02  2.7062579E-02  2.8168256E-02
   38.0000  2.5133063E-02  2.6385125E-02  2.8117809E-02
   39.0000  2.5028284E-02  2.5751642E-02  2.8035279E-02
   40.0000  2.4940974E-02  2.5228565E-02  2.7942134E-02
