    Energy   (100,001)      (010,001)      (001,110)   
  -25.0000  1.7096019E-04  1.8948587E-04  1.8803235E-04
  -24.0000  1.7676621E-04  1.9662747E-04  1.9425039E-04
  -23.0000  1.8294231E-04  2.0428406E-04  2.0086381E-04
  -22.0000  1.8952410E-04  2.1251209E-04  2.0791108E-04
  -21.0000  1.9655186E-04  2.2137642E-04  2.1543583E-04
  -20.0000  2.0407133E-04  2.3095201E-04  2.2348772E-04
  -19.0000  2.1213470E-04  2.4132586E-04  2.3212356E-04
  -18.0000  2.2080172E-04  2.5259955E-04  2.4140859E-04
  -17.0000  2.3014122E-04  2.6489234E-04  2.5141819E-04
  -16.0000  2.4023282E-04  2.7834525E-04  2.6223987E-04
  -15.0000  2.5116920E-04  2.9312604E-04  2.7397590E-04
  -14.0000  2.6305888E-04  3.0943596E-04  2.8674653E-04
  -13.0000  2.7602982E-04  3.2751827E-04  3.0069424E-04
  -12.0000  2.9023400E-04  3.4766978E-04  3.1598914E-04
  -11.0000  3.0585345E-04  3.7025619E-04  3.3283617E-04
  -10.0000  3.2310815E-04  3.9573306E-04  3.5148468E-04
  -9.00000  3.4226675E-04  4.2467480E-04  3.7224143E-04
  -8.00000  3.6366116E-04  4.5781568E-04  3.9548863E-04
  -7.00000  3.8770695E-04  4.9610883E-04  4.2170951E-04
  -6.00000  4.1493253E-04  5.4081342E-04  4.5152537E-04
  -5.00000  4.4602217E-04  5.9362684E-04  4.8575122E-04
  -4.00000  4.8188139E-04  6.5689193E-04  5.2548211E-04
  -3.00000  5.2374092E-04  7.3393445E-04  5.7223329E-04
  -2.00000  5.7333031E-04  8.2963908E-04  6.2818039E-04
  -1.00000  6.3318790E-04  9.5149167E-04  6.9660028E-04
   0.00000  7.0726406E-04  1.1116139E-03  7.8275528E-04
   1.00000  8.0224161E-04  1.3311632E-03  8.9589039E-04
   2.00000  9.3094926E-04  1.6513436E-03  1.0545529E-03
   3.00000  1.1236713E-03  2.1678745E-03  1.3046394E-03
   4.00000  1.4830386E-03  3.1857476E-03  1.8079443E-03
   5.00000  2.4696134E-03  6.0215143E-03  3.3196299E-03
   5.20000  2.7572060E-03  6.9107432E-03  3.7862012E-03
   5.40000  3.0228394E-03  7.8063388E-03  4.2294735E-03
   5.60000  3.2592821E-03  8.6896892E-03  4.6294244E-03
   5.80000  3.4756984E-03  9.5781174E-03  4.9884005E-03
   6.00000  3.6841937E-03  1.0497979E-02  5.3139982E-03
   6.20000  3.8940056E-03  1.1471850E-02  5.6117592E-03
   6.40000  4.1108776E-03  1.2515797E-02  5.8848886E-03
   6.60000  4.3380636E-03  1.3640560E-02  6.1361094E-03
   6.80000  4.5775251E-03  1.4854647E-02  6.3695045E-03
   7.00000  4.8309036E-03  1.6168258E-02  6.5916401E-03
   7.20000  5.1001954E-03  1.7596479E-02  6.8118313E-03
   7.40000  5.3881602E-03  1.9160570E-02  7.0416347E-03
   7.60000  5.6985015E-03  2.0887352E-02  7.2937556E-03
   7.80000  6.0358656E-03  2.2807295E-02  7.5806436E-03
   8.00000  6.4057235E-03  2.4951814E-02  7.9131070E-03
   8.20000  6.8142017E-03  2.7349970E-02  8.2992576E-03
   8.40000  7.2678593E-03  3.0024669E-02  8.7440439E-03
   8.60000  7.7733053E-03  3.2988137E-02  9.2494877E-03
   8.80000  8.3366027E-03  3.6235608E-02  9.8152719E-03
   9.00000  8.9625325E-03  3.9736951E-02  1.0439212E-02
   9.20000  9.6537420E-03  4.3427937E-02  1.1117701E-02
   9.40000  1.0409818E-02  4.7203367E-02  1.1846270E-02
   9.60000  1.1226522E-02  5.0915237E-02  1.2620183E-02
   9.80000  1.2095583E-02  5.4380435E-02  1.3435032E-02
   10.0000  1.3005398E-02  5.7400840E-02  1.4287279E-02
   10.2500  1.4179570E-02  6.0276405E-02  1.5401696E-02
   10.5000  1.5371493E-02  6.1930628E-02  1.6568880E-02
   10.7500  1.6561351E-02  6.2296963E-02  1.7788960E-02
   11.0000  1.7734395E-02  6.1471612E-02  1.9063058E-02
   11.2500  1.8879111E-02  5.9644057E-02  2.0391844E-02
   11.5000  1.9986721E-02  5.7033561E-02  2.1773035E-02
   11.7500  2.1049716E-02  5.3864166E-02  2.3196831E-02
   12.0000  2.2060348E-02  5.0357443E-02  2.4641722E-02
   12.2500  2.3012886E-02  4.6721154E-02  2.6074305E-02
   12.5000  2.3907961E-02  4.3133049E-02  2.7454055E-02
   12.7500  2.4754549E-02  3.9727880E-02  2.8740838E-02
   13.0000  2.5567219E-02  3.6593672E-02  2.9901339E-02
   13.2500  2.6361243E-02  3.3776736E-02  3.0913002E-02
   13.5000  2.7149945E-02  3.1291049E-02  3.1766964E-02
   13.7500  2.7944343E-02  2.9128311E-02  3.2469523E-02
   14.0000  2.8753136E-02  2.7266798E-02  3.3040634E-02
   14.2500  2.9582385E-02  2.5678185E-02  3.3509753E-02
   14.5000  3.0435111E-02  2.4332199E-02  3.3910702E-02
   14.7500  3.1310964E-02  2.3199435E-02  3.4276983E-02
   15.0000  3.2206004E-02  2.2252838E-02  3.4638270E-02
   15.2500  3.3112613E-02  2.1468336E-02  3.5018187E-02
   15.5000  3.4019559E-02  2.0824949E-02  3.5433191E-02
   15.7500  3.4912266E-02  2.0304607E-02  3.5892236E-02
   16.0000  3.5773374E-02  1.9891851E-02  3.6396949E-02
   16.2500  3.6583647E-02  1.9573480E-02  3.6942123E-02
   16.5000  3.7323261E-02  1.9338222E-02  3.7516476E-02
   16.7500  3.7973423E-02  1.9176443E-02  3.8103683E-02
   17.0000  3.8518164E-02  1.9079908E-02  3.8683742E-02
   17.2500  3.8946085E-02  1.9041580E-02  3.9234698E-02
   17.5000  3.9251765E-02  1.9055466E-02  3.9734657E-02
   17.7500  3.9436551E-02  1.9116484E-02  4.0163905E-02
   18.0000  3.9508547E-02  1.9220357E-02  4.0506865E-02
   18.2500  3.9481771E-02  1.9363519E-02  4.0753551E-02
   18.5000  3.9374657E-02  1.9543026E-02  4.0900286E-02
   18.7500  3.9208166E-02  1.9756484E-02  4.0949556E-02
   19.0000  3.9003870E-02  2.0001993E-02  4.0909093E-02
   19.2500  3.8782250E-02  2.0278106E-02  4.0790396E-02
   19.5000  3.8561412E-02  2.0583800E-02  4.0606995E-02
   19.7500  3.8356303E-02  2.0918399E-02  4.0372846E-02
   20.0000  3.8178516E-02  2.1281354E-02  4.0101240E-02
   21.0000  3.7881842E-02  2.2994556E-02  3.8866611E-02
   22.0000  3.8352994E-02  2.5053617E-02  3.7724066E-02
   23.0000  3.9404684E-02  2.7330137E-02  3.6766837E-02
   24.0000  4.0602757E-02  2.9625474E-02  3.5897800E-02
   25.0000  4.1409797E-02  3.1686543E-02  3.5009949E-02
   26.0000  4.1362671E-02  3.3267560E-02  3.4057383E-02
   27.0000  4.0287245E-02  3.4215870E-02  3.3062389E-02
   28.0000  3.8400081E-02  3.4528037E-02  3.2093622E-02
   29.0000  3.6161159E-02  3.4327851E-02  3.1232593E-02
   30.0000  3.3999176E-02  3.3787306E-02  3.0542450E-02
   31.0000  3.2154381E-02  3.3062908E-02  3.0055533E-02
   32.0000  3.0684130E-02  3.2265601E-02  2.9772525E-02
   33.0000  2.9527185E-02  3.1440513E-02  2.9660327E-02
   34.0000  2.8595967E-02  3.0596540E-02  2.9668373E-02
   35.0000  2.7822878E-02  2.9738696E-02  2.9741507E-02
   36.0000  2.7163478E-02  2.8881186E-02  2.9826004E-02
   37.0000  2.6589058E-02  2.8049869E-02  2.9876986E-02
   38.0000  2.6082901E-02  2.7278980E-02  2.9867180E-02
   39.0000  2.5645217E-02  2.6608875E-02  2.9797231E-02
   40.0000  2.5294677E-02  2.6084545E-02  2.9702971E-02
