    Energy   (100,001)      (010,001)      (001,110)   
  -25.0000  1.6861927E-04  1.7676780E-04  1.7209398E-04
  -24.0000  1.7492424E-04  1.8367465E-04  1.7849227E-04
  -23.0000  1.8166765E-04  1.9108939E-04  1.8533635E-04
  -22.0000  1.8889516E-04  1.9906832E-04  1.9267289E-04
  -21.0000  1.9665888E-04  2.0767623E-04  2.0055521E-04
  -20.0000  2.0501853E-04  2.1698803E-04  2.0904446E-04
  -19.0000  2.1404287E-04  2.2709081E-04  2.1821113E-04
  -18.0000  2.2381149E-04  2.3808633E-04  2.2813686E-04
  -17.0000  2.3441696E-04  2.5009424E-04  2.3891674E-04
  -16.0000  2.4596764E-04  2.6325616E-04  2.5066217E-04
  -15.0000  2.5859108E-04  2.7774082E-04  2.6350445E-04
  -14.0000  2.7243855E-04  2.9375085E-04  2.7759945E-04
  -13.0000  2.8769069E-04  3.1153158E-04  2.9313357E-04
  -12.0000  3.0456506E-04  3.3138275E-04  3.1033160E-04
  -11.0000  3.2332597E-04  3.5367422E-04  3.2946699E-04
  -10.0000  3.4429782E-04  3.7886745E-04  3.5087588E-04
  -9.00000  3.6788317E-04  4.0754525E-04  3.7497600E-04
  -8.00000  3.9458784E-04  4.4045380E-04  4.0229311E-04
  -7.00000  4.2505646E-04  4.7856332E-04  4.3349844E-04
  -6.00000  4.6012400E-04  5.2315753E-04  4.6946312E-04
  -5.00000  5.0089245E-04  5.7596947E-04  5.1133933E-04
  -4.00000  5.4884859E-04  6.3939412E-04  5.6068564E-04
  -3.00000  6.0605186E-04  7.1683391E-04  6.1966810E-04
  -2.00000  6.7544804E-04  8.1328619E-04  6.9139893E-04
  -1.00000  7.6142405E-04  9.3640004E-04  7.8054398E-04
   0.00000  8.7086466E-04  1.0985195E-03  8.9450456E-04
   1.00000  1.0153775E-03  1.3210400E-03  1.0459912E-03
   2.00000  1.2166993E-03  1.6450896E-03  1.2596158E-03
   3.00000  1.5230625E-03  2.1640472E-03  1.5935210E-03
   4.00000  2.0800812E-03  3.1648397E-03  2.2438899E-03
   5.00000  3.4915022E-03  5.8517358E-03  4.0845708E-03
   5.20000  3.9285441E-03  6.6967391E-03  4.6154500E-03
   5.40000  4.3772515E-03  7.5601019E-03  5.0922524E-03
   5.60000  4.8323367E-03  8.4243972E-03  5.4967878E-03
   5.80000  5.3048826E-03  9.3046274E-03  5.8452411E-03
   6.00000  5.8107278E-03  1.0227082E-02  6.1637330E-03
   6.20000  6.3650697E-03  1.1219318E-02  6.4775226E-03
   6.40000  6.9812872E-03  1.2308299E-02  6.8094799E-03
   6.60000  7.6709213E-03  1.3521116E-02  7.1812634E-03
   6.80000  8.4438299E-03  1.4886118E-02  7.6145243E-03
   7.00000  9.3083202E-03  1.6433830E-02  8.1313390E-03
   7.20000  1.0270884E-02  1.8197493E-02  8.7538664E-03
   7.40000  1.1334773E-02  2.0213083E-02  9.5035214E-03
   7.60000  1.2496718E-02  2.2518587E-02  1.0399872E-02
   7.80000  1.3742121E-02  2.5152223E-02  1.1459329E-02
   8.00000  1.5041082E-02  2.8149136E-02  1.2693793E-02
   8.20000  1.6350129E-02  3.1535848E-02  1.4109818E-02
   8.40000  1.7624444E-02  3.5321748E-02  1.5708878E-02
   8.60000  1.8838148E-02  3.9487031E-02  1.7488355E-02
   8.80000  1.9999289E-02  4.3967185E-02  1.9441288E-02
   9.00000  2.1146206E-02  4.8636066E-02  2.1553354E-02
   9.20000  2.2327453E-02  5.3292864E-02  2.3798413E-02
   9.40000  2.3580340E-02  5.7661631E-02  2.6135881E-02
   9.60000  2.4919481E-02  6.1413066E-02  2.8511863E-02
   9.80000  2.6335538E-02  6.4213690E-02  3.0863529E-02
   10.0000  2.7798947E-02  6.5795489E-02  3.3124887E-02
   10.2500  2.9626116E-02  6.5868559E-02  3.5728140E-02
   10.5000  3.1353678E-02  6.3941839E-02  3.7984461E-02
   10.7500  3.2877796E-02  6.0467980E-02  3.9819800E-02
   11.0000  3.4113417E-02  5.6063940E-02  4.1199919E-02
   11.2500  3.5013546E-02  5.1310221E-02  4.2125770E-02
   11.5000  3.5577775E-02  4.6634681E-02  4.2621476E-02
   11.7500  3.5846963E-02  4.2293943E-02  4.2724636E-02
   12.0000  3.5889482E-02  3.8408950E-02  4.2483610E-02
   12.2500  3.5784112E-02  3.5012710E-02  4.1956119E-02
   12.5000  3.5605474E-02  3.2089287E-02  4.1206332E-02
   12.7500  3.5416114E-02  2.9598683E-02  4.0303685E-02
   13.0000  3.5263776E-02  2.7491112E-02  3.9320694E-02
   13.2500  3.5181105E-02  2.5715605E-02  3.8326743E-02
   13.5000  3.5186478E-02  2.4224989E-02  3.7381166E-02
   13.7500  3.5285588E-02  2.2977868E-02  3.6529314E-02
   14.0000  3.5473530E-02  2.1938810E-02  3.5801930E-02
   14.2500  3.5737051E-02  2.1077898E-02  3.5216437E-02
   14.5000  3.6056822E-02  2.0370111E-02  3.4778929E-02
   14.7500  3.6409684E-02  1.9794691E-02  3.4486152E-02
   15.0000  3.6770884E-02  1.9334535E-02  3.4327224E-02
   15.2500  3.7116295E-02  1.8975644E-02  3.4285145E-02
   15.5000  3.7424521E-02  1.8706639E-02  3.4338261E-02
   15.7500  3.7678747E-02  1.8518336E-02  3.4461829E-02
   16.0000  3.7868119E-02  1.8403367E-02  3.4629792E-02
   16.2500  3.7988462E-02  1.8355842E-02  3.4816672E-02
   16.5000  3.8042191E-02  1.8371030E-02  3.4999432E-02
   16.7500  3.8037426E-02  1.8445078E-02  3.5159038E-02
   17.0000  3.7986466E-02  1.8574748E-02  3.5281486E-02
   17.2500  3.7903941E-02  1.8757198E-02  3.5358184E-02
   17.5000  3.7804976E-02  1.8989800E-02  3.5385688E-02
   17.7500  3.7703629E-02  1.9270002E-02  3.5364946E-02
   18.0000  3.7611774E-02  1.9595234E-02  3.5300249E-02
   18.2500  3.7538436E-02  1.9962851E-02  3.5198096E-02
   18.5000  3.7489546E-02  2.0370115E-02  3.5066124E-02
   18.7500  3.7467981E-02  2.0814210E-02  3.4912206E-02
   19.0000  3.7473839E-02  2.1292306E-02  3.4743749E-02
   19.2500  3.7504823E-02  2.1801652E-02  3.4567196E-02
   19.5000  3.7556720E-02  2.2339699E-02  3.4387707E-02
   19.7500  3.7623844E-02  2.2904133E-02  3.4209015E-02
   20.0000  3.7699363E-02  2.3492650E-02  3.4033481E-02
   21.0000  3.7919994E-02  2.6019051E-02  3.3376697E-02
   22.0000  3.7654653E-02  2.8628750E-02  3.2759473E-02
   23.0000  3.6675925E-02  3.1057479E-02  3.2093597E-02
   24.0000  3.5065293E-02  3.3026104E-02  3.1315856E-02
   25.0000  3.3076736E-02  3.4312972E-02  3.0419159E-02
   26.0000  3.1017125E-02  3.4833202E-02  2.9461262E-02
   27.0000  2.9161849E-02  3.4661897E-02  2.8547639E-02
   28.0000  2.7648633E-02  3.3987632E-02  2.7770404E-02
   29.0000  2.6498449E-02  3.3023350E-02  2.7181179E-02
   30.0000  2.5666073E-02  3.1941170E-02  2.6780420E-02
   31.0000  2.5074300E-02  3.0848989E-02  2.6521194E-02
   32.0000  2.4641126E-02  2.9795872E-02  2.6331583E-02
   33.0000  2.4295336E-02  2.8790243E-02  2.6139552E-02
   34.0000  2.3981707E-02  2.7819196E-02  2.5888154E-02
   35.0000  2.3660445E-02  2.6864373E-02  2.5540940E-02
   36.0000  2.3305737E-02  2.5914224E-02  2.5084930E-02
   37.0000  2.2906487E-02  2.4973103E-02  2.4535415E-02
   38.0000  2.2470910E-02  2.4067546E-02  2.3938680E-02
   39.0000  2.2034105E-02  2.3250127E-02  2.3366462E-02
   40.0000  2.1657805E-02  2.2593253E-02  2.2897936E-02
