    Energy   (100,001)      (010,001)      (001,110)   
  -25.0000  1.7841359E-04  1.8216476E-04  1.8504116E-04
  -24.0000  1.8430538E-04  1.8923044E-04  1.9119889E-04
  -23.0000  1.9056747E-04  1.9681398E-04  1.9775038E-04
  -22.0000  1.9723524E-04  2.0497270E-04  2.0473409E-04
  -21.0000  2.0434871E-04  2.1377258E-04  2.1219370E-04
  -20.0000  2.1195330E-04  2.2328987E-04  2.2017891E-04
  -19.0000  2.2010083E-04  2.3361322E-04  2.2874660E-04
  -18.0000  2.2885061E-04  2.4484622E-04  2.3796214E-04
  -17.0000  2.3827091E-04  2.5711069E-04  2.4790104E-04
  -16.0000  2.4844072E-04  2.7055075E-04  2.5865103E-04
  -15.0000  2.5945194E-04  2.8533819E-04  2.7031465E-04
  -14.0000  2.7141217E-04  3.0167930E-04  2.8301248E-04
  -13.0000  2.8444827E-04  3.1982387E-04  2.9688745E-04
  -12.0000  2.9871088E-04  3.4007714E-04  3.1211021E-04
  -11.0000  3.1438044E-04  3.6281591E-04  3.2888639E-04
  -10.0000  3.3167502E-04  3.8851045E-04  3.4746617E-04
  -9.00000  3.5086101E-04  4.1775503E-04  3.6815736E-04
  -8.00000  3.7226762E-04  4.5131112E-04  3.9134340E-04
  -7.00000  3.9630725E-04  4.9016981E-04  4.1750901E-04
  -6.00000  4.2350471E-04  5.3564435E-04  4.4727726E-04
  -5.00000  4.5454023E-04  5.8951108E-04  4.8146536E-04
  -4.00000  4.9031528E-04  6.5423140E-04  5.2117129E-04
  -3.00000  5.3205709E-04  7.3331507E-04  5.6791504E-04
  -2.00000  5.8149403E-04  8.3194395E-04  6.2388232E-04
  -1.00000  6.4116917E-04  9.5810815E-04  6.9237706E-04
   0.00000  7.1505146E-04  1.1248402E-03  7.7874711E-04
   1.00000  8.0987347E-04  1.3550852E-03  8.9254172E-04
   2.00000  9.3858100E-04  1.6939965E-03  1.0535470E-03
   3.00000  1.1316944E-03  2.2477686E-03  1.3138280E-03
   4.00000  1.4919196E-03  3.3594164E-03  1.8772138E-03
   5.00000  2.4812625E-03  6.5236287E-03  3.6907784E-03
   5.20000  2.7750628E-03  7.5182252E-03  4.1311742E-03
   5.40000  3.0503475E-03  8.5144702E-03  4.4224567E-03
   5.60000  3.2977246E-03  9.4893051E-03  4.5664911E-03
   5.80000  3.5245442E-03  1.0462063E-02  4.6197679E-03
   6.00000  3.7424685E-03  1.1463642E-02  4.6402769E-03
   6.20000  3.9615230E-03  1.2521761E-02  4.6677862E-03
   6.40000  4.1890336E-03  1.3658131E-02  4.7249190E-03
   6.60000  4.4301263E-03  1.4889660E-02  4.8231514E-03
   6.80000  4.6884448E-03  1.6230582E-02  4.9679640E-03
   7.00000  4.9667638E-03  1.7694596E-02  5.1622600E-03
   7.20000  5.2675067E-03  1.9296590E-02  5.4084056E-03
   7.40000  5.5932179E-03  2.1053606E-02  5.7093324E-03
   7.60000  5.9469715E-03  2.2984819E-02  6.0690410E-03
   7.80000  6.3326467E-03  2.5110529E-02  6.4927366E-03
   8.00000  6.7550004E-03  2.7450299E-02  6.9867280E-03
   8.20000  7.2194783E-03  3.0020419E-02  7.5581167E-03
   8.40000  7.7317274E-03  3.2830709E-02  8.2142339E-03
   8.60000  8.2967825E-03  3.5880510E-02  8.9617433E-03
   8.80000  8.9179121E-03  3.9153588E-02  9.8053358E-03
   9.00000  9.5951669E-03  4.2611716E-02  1.0745997E-02
   9.20000  1.0323801E-02  4.6187247E-02  1.1778981E-02
   9.40000  1.1092987E-02  4.9776286E-02  1.2891992E-02
   9.60000  1.1885580E-02  5.3235663E-02  1.4064576E-02
   9.80000  1.2679743E-02  5.6387489E-02  1.5269682E-02
   10.0000  1.3452753E-02  5.9034143E-02  1.6477680E-02
   10.2500  1.4362240E-02  6.1343804E-02  1.7952183E-02
   10.5000  1.5196780E-02  6.2291567E-02  1.9358929E-02
   10.7500  1.5970938E-02  6.1788426E-02  2.0694077E-02
   11.0000  1.6718764E-02  5.9959856E-02  2.1972855E-02
   11.2500  1.7476535E-02  5.7097789E-02  2.3212544E-02
   11.5000  1.8268892E-02  5.3568868E-02  2.4419244E-02
   11.7500  1.9103530E-02  4.9725808E-02  2.5584420E-02
   12.0000  1.9972223E-02  4.5852789E-02  2.6689419E-02
   12.2500  2.0855488E-02  4.2147937E-02  2.7713352E-02
   12.5000  2.1729872E-02  3.8730342E-02  2.8641202E-02
   12.7500  2.2575388E-02  3.5657722E-02  2.9468962E-02
   13.0000  2.3380939E-02  3.2945543E-02  3.0202440E-02
   13.2500  2.4146512E-02  3.0583142E-02  3.0852919E-02
   13.5000  2.4880985E-02  2.8545290E-02  3.1435181E-02
   13.7500  2.5597667E-02  2.6799943E-02  3.1967431E-02
   14.0000  2.6311421E-02  2.5313378E-02  3.2470701E-02
   14.2500  2.7037298E-02  2.4053350E-02  3.2967043E-02
   14.5000  2.7789212E-02  2.2990714E-02  3.3477082E-02
   14.7500  2.8578558E-02  2.2100019E-02  3.4017747E-02
   15.0000  2.9413137E-02  2.1359494E-02  3.4600621E-02
   15.2500  3.0296543E-02  2.0750743E-02  3.5230954E-02
   15.5000  3.1227909E-02  2.0258325E-02  3.5907234E-02
   15.7500  3.2201921E-02  1.9869312E-02  3.6621208E-02
   16.0000  3.3209035E-02  1.9572886E-02  3.7358278E-02
   16.2500  3.4235907E-02  1.9359977E-02  3.8098338E-02
   16.5000  3.5266086E-02  1.9222952E-02  3.8817085E-02
   16.7500  3.6281010E-02  1.9155345E-02  3.9487861E-02
   17.0000  3.7261332E-02  1.9151631E-02  4.0083949E-02
   17.2500  3.8188494E-02  1.9207029E-02  4.0581108E-02
   17.5000  3.9046380E-02  1.9317343E-02  4.0960010E-02
   17.7500  3.9822812E-02  1.9478834E-02  4.1208183E-02
   18.0000  4.0510618E-02  1.9688118E-02  4.1321094E-02
   18.2500  4.1108079E-02  1.9942099E-02  4.1302218E-02
   18.5000  4.1618665E-02  2.0237918E-02  4.1162102E-02
   18.7500  4.2050148E-02  2.0572942E-02  4.0916674E-02
   19.0000  4.2413279E-02  2.0944770E-02  4.0585140E-02
   19.2500  4.2720271E-02  2.1351275E-02  4.0187812E-02
   19.5000  4.2983347E-02  2.1790649E-02  3.9744191E-02
   19.7500  4.3213498E-02  2.2261375E-02  3.9271562E-02
   20.0000  4.3419570E-02  2.2761981E-02  3.8784404E-02
   21.0000  4.4087556E-02  2.5014729E-02  3.6902362E-02
   22.0000  4.4446441E-02  2.7521023E-02  3.5390979E-02
   23.0000  4.4159869E-02  3.0045427E-02  3.4281106E-02
   24.0000  4.2932321E-02  3.2277830E-02  3.3456965E-02
   25.0000  4.0789582E-02  3.3906415E-02  3.2788569E-02
   26.0000  3.8072185E-02  3.4749981E-02  3.2175464E-02
   27.0000  3.5233255E-02  3.4832258E-02  3.1569670E-02
   28.0000  3.2643895E-02  3.4333927E-02  3.0978533E-02
   29.0000  3.0512559E-02  3.3481733E-02  3.0441188E-02
   30.0000  2.8900085E-02  3.2464008E-02  2.9996243E-02
   31.0000  2.7773655E-02  3.1402914E-02  2.9663018E-02
   32.0000  2.7055804E-02  3.0367880E-02  2.9440058E-02
   33.0000  2.6656217E-02  2.9393249E-02  2.9311576E-02
   34.0000  2.6494411E-02  2.8477378E-02  2.9252398E-02
   35.0000  2.6504732E-02  2.7600286E-02  2.9235253E-02
   36.0000  2.6631107E-02  2.6741953E-02  2.9233098E-02
   37.0000  2.6820673E-02  2.5893062E-02  2.9218946E-02
   38.0000  2.7020787E-02  2.5065203E-02  2.9171701E-02
   39.0000  2.7186476E-02  2.4301455E-02  2.9089017E-02
   40.0000  2.7297410E-02  2.3676223E-02  2.8996504E-02
