    Energy   (100,001)      (010,001)      (001,110)   
  -25.0000  1.7137142E-04  1.7911263E-04  1.7197570E-04
  -24.0000  1.7788670E-04  1.8592055E-04  1.7872125E-04
  -23.0000  1.8486360E-04  1.9321895E-04  1.8595931E-04
  -22.0000  1.9235103E-04  2.0106133E-04  1.9374371E-04
  -21.0000  2.0040497E-04  2.0950917E-04  2.0213627E-04
  -20.0000  2.0908969E-04  2.1863342E-04  2.1120830E-04
  -19.0000  2.1847938E-04  2.2851637E-04  2.2104249E-04
  -18.0000  2.2866006E-04  2.3925403E-04  2.3173522E-04
  -17.0000  2.3973206E-04  2.5095906E-04  2.4339951E-04
  -16.0000  2.5181311E-04  2.6376448E-04  2.5616872E-04
  -15.0000  2.6504214E-04  2.7782847E-04  2.7020130E-04
  -14.0000  2.7958435E-04  2.9334052E-04  2.8568692E-04
  -13.0000  2.9563761E-04  3.1052950E-04  3.0285450E-04
  -12.0000  3.1344090E-04  3.2967433E-04  3.2198283E-04
  -11.0000  3.3328550E-04  3.5111825E-04  3.4341479E-04
  -10.0000  3.5553004E-04  3.7528835E-04  3.6757684E-04
  -9.00000  3.8062109E-04  4.0272244E-04  3.9500590E-04
  -8.00000  4.0912180E-04  4.3410703E-04  4.2638753E-04
  -7.00000  4.4175264E-04  4.7033197E-04  4.6261094E-04
  -6.00000  4.7945059E-04  5.1257087E-04  5.0485067E-04
  -5.00000  5.2345772E-04  5.6240300E-04  5.5469110E-04
  -4.00000  5.7545791E-04  6.2200377E-04  6.1432292E-04
  -3.00000  6.3779615E-04  6.9445413E-04  6.8686608E-04
  -2.00000  7.1384768E-04  7.8426665E-04  7.7692668E-04
  -1.00000  8.0867708E-04  8.9833332E-04  8.9161761E-04
   0.00000  9.3031060E-04  1.0477647E-03  1.0425784E-03
   1.00000  1.0924656E-03  1.2518352E-03  1.2504019E-03
   2.00000  1.3213619E-03  1.5477509E-03  1.5558169E-03
   3.00000  1.6771282E-03  2.0207697E-03  2.0546047E-03
   4.00000  2.3510251E-03  2.9367883E-03  3.0503509E-03
   5.00000  4.1713157E-03  5.4329694E-03  5.8750449E-03
   5.20000  4.7327888E-03  6.2290957E-03  6.8358433E-03
   5.40000  5.2910395E-03  7.0489192E-03  7.8786266E-03
   5.60000  5.8321565E-03  7.8735968E-03  8.9818424E-03
   5.80000  6.3655583E-03  8.7106218E-03  1.0138589E-02
   6.00000  6.9067159E-03  9.5748980E-03  1.1339804E-02
   6.20000  7.4693993E-03  1.0480798E-02  1.2569564E-02
   6.40000  8.0646317E-03  1.1442061E-02  1.3810697E-02
   6.60000  8.7019081E-03  1.2473956E-02  1.5054265E-02
   6.80000  9.3909217E-03  1.3594989E-02  1.6307197E-02
   7.00000  1.0142843E-02  1.4826671E-02  1.7593993E-02
   7.20000  1.0970392E-02  1.6191343E-02  1.8951830E-02
   7.40000  1.1886542E-02  1.7709273E-02  2.0421058E-02
   7.60000  1.2902492E-02  1.9396440E-02  2.2033007E-02
   7.80000  1.4025908E-02  2.1264218E-02  2.3795755E-02
   8.00000  1.5260452E-02  2.3321864E-02  2.5679415E-02
   8.20000  1.6607194E-02  2.5581972E-02  2.7606980E-02
   8.40000  1.8067401E-02  2.8066326E-02  2.9461948E-02
   8.60000  1.9645198E-02  3.0806879E-02  3.1120477E-02
   8.80000  2.1348218E-02  3.3837311E-02  3.2495541E-02
   9.00000  2.3184639E-02  3.7175986E-02  3.3563477E-02
   9.20000  2.5157605E-02  4.0806228E-02  3.4357409E-02
   9.40000  2.7259613E-02  4.4659106E-02  3.4940292E-02
   9.60000  2.9468444E-02  4.8600612E-02  3.5378833E-02
   9.80000  3.1744741E-02  5.2425902E-02  3.5728301E-02
   10.0000  3.4031179E-02  5.5867254E-02  3.6026876E-02
   10.2500  3.6789643E-02  5.9172066E-02  3.6358078E-02
   10.5000  3.9281458E-02  6.0890978E-02  3.6646029E-02
   10.7500  4.1346600E-02  6.0766546E-02  3.6869470E-02
   11.0000  4.2867723E-02  5.8914092E-02  3.7000226E-02
   11.2500  4.3795372E-02  5.5760612E-02  3.7024349E-02
   11.5000  4.4154863E-02  5.1860663E-02  3.6951818E-02
   11.7500  4.4033075E-02  4.7717124E-02  3.6811390E-02
   12.0000  4.3549087E-02  4.3688743E-02  3.6639295E-02
   12.2500  4.2825524E-02  3.9981584E-02  3.6468394E-02
   12.5000  4.1970889E-02  3.6684528E-02  3.6320549E-02
   12.7500  4.1072210E-02  3.3813701E-02  3.6204123E-02
   13.0000  4.0195010E-02  3.1346842E-02  3.6116773E-02
   13.2500  3.9386991E-02  2.9244306E-02  3.6050890E-02
   13.5000  3.8681615E-02  2.7460791E-02  3.5999357E-02
   13.7500  3.8099494E-02  2.5951820E-02  3.5961041E-02
   14.0000  3.7648816E-02  2.4677077E-02  3.5943302E-02
   14.2500  3.7326968E-02  2.3601808E-02  3.5959054E-02
   14.5000  3.7123179E-02  2.2697057E-02  3.6021423E-02
   14.7500  3.7021024E-02  2.1939115E-02  3.6139611E-02
   15.0000  3.7000409E-02  2.1308642E-02  3.6316753E-02
   15.2500  3.7039199E-02  2.0789826E-02  3.6549178E-02
   15.5000  3.7114680E-02  2.0369707E-02  3.6826566E-02
   15.7500  3.7204931E-02  2.0037638E-02  3.7132737E-02
   16.0000  3.7290130E-02  1.9784852E-02  3.7446980E-02
   16.2500  3.7353752E-02  1.9604111E-02  3.7745887E-02
   16.5000  3.7383560E-02  1.9489422E-02  3.8005584E-02
   16.7500  3.7372278E-02  1.9435803E-02  3.8204132E-02
   17.0000  3.7317812E-02  1.9439076E-02  3.8323784E-02
   17.2500  3.7222949E-02  1.9495698E-02  3.8352707E-02
   17.5000  3.7094524E-02  1.9602611E-02  3.8285884E-02
   17.7500  3.6942176E-02  1.9757116E-02  3.8125051E-02
   18.0000  3.6776868E-02  1.9956767E-02  3.7877766E-02
   18.2500  3.6609420E-02  2.0199287E-02  3.7555881E-02
   18.5000  3.6449257E-02  2.0482518E-02  3.7173764E-02
   18.7500  3.6303495E-02  2.0804382E-02  3.6746603E-02
   19.0000  3.6176448E-02  2.1162897E-02  3.6288996E-02
   19.2500  3.6069503E-02  2.1556211E-02  3.5813922E-02
   19.5000  3.5981325E-02  2.1982661E-02  3.5332093E-02
   19.7500  3.5908239E-02  2.2440771E-02  3.4851695E-02
   20.0000  3.5844668E-02  2.2929033E-02  3.4378577E-02
   21.0000  3.5532335E-02  2.5131885E-02  3.2627987E-02
   22.0000  3.4789181E-02  2.7555505E-02  3.1157036E-02
   23.0000  3.3428862E-02  2.9923049E-02  2.9904224E-02
   24.0000  3.1612860E-02  3.2000550E-02  2.8774053E-02
   25.0000  2.9670228E-02  3.3604439E-02  2.7711359E-02
   26.0000  2.7884291E-02  3.4617678E-02  2.6714501E-02
   27.0000  2.6405358E-02  3.5018451E-02  2.5819360E-02
   28.0000  2.5268542E-02  3.4878294E-02  2.5075093E-02
   29.0000  2.4440287E-02  3.4327191E-02  2.4514470E-02
   30.0000  2.3856684E-02  3.3507072E-02  2.4129368E-02
   31.0000  2.3446968E-02  3.2536666E-02  2.3869641E-02
   32.0000  2.3145263E-02  3.1497371E-02  2.3664242E-02
   33.0000  2.2896998E-02  3.0436902E-02  2.3446091E-02
   34.0000  2.2663735E-02  2.9380843E-02  2.3167555E-02
   35.0000  2.2426037E-02  2.8344094E-02  2.2805728E-02
   36.0000  2.2182092E-02  2.7338743E-02  2.2364013E-02
   37.0000  2.1940808E-02  2.6378309E-02  2.1873822E-02
   38.0000  2.1713441E-02  2.5482396E-02  2.1391137E-02
   39.0000  2.1510814E-02  2.4686975E-02  2.0978539E-02
   40.0000  2.1346230E-02  2.4050339E-02  2.0673686E-02
