    Energy   (100,001)      (010,001)      (001,110)   
  -25.0000  1.7298888E-04  1.8183473E-04  1.8500281E-04
  -24.0000  1.7894311E-04  1.8879860E-04  1.9151974E-04
  -23.0000  1.8528313E-04  1.9626905E-04  1.9847640E-04
  -22.0000  1.9204666E-04  2.0430190E-04  2.0591807E-04
  -21.0000  1.9927646E-04  2.1296137E-04  2.1389642E-04
  -20.0000  2.0702117E-04  2.2232168E-04  2.2247070E-04
  -19.0000  2.1533640E-04  2.3246903E-04  2.3170916E-04
  -18.0000  2.2428597E-04  2.4350416E-04  2.4169084E-04
  -17.0000  2.3394348E-04  2.5554545E-04  2.5250779E-04
  -16.0000  2.4439432E-04  2.6873296E-04  2.6426789E-04
  -15.0000  2.5573807E-04  2.8323352E-04  2.7709836E-04
  -14.0000  2.6809164E-04  2.9924742E-04  2.9115040E-04
  -13.0000  2.8159317E-04  3.1701710E-04  3.0660508E-04
  -12.0000  2.9640718E-04  3.3683872E-04  3.2368119E-04
  -11.0000  3.1273119E-04  3.5907777E-04  3.4264575E-04
  -10.0000  3.3080459E-04  3.8419026E-04  3.6382809E-04
  -9.00000  3.5092050E-04  4.1275236E-04  3.8763959E-04
  -8.00000  3.7344209E-04  4.4550217E-04  4.1460123E-04
  -7.00000  3.9882535E-04  4.8340034E-04  4.4538346E-04
  -6.00000  4.2765177E-04  5.2771976E-04  4.8086537E-04
  -5.00000  4.6067641E-04  5.8018254E-04  5.2222491E-04
  -4.00000  4.9890122E-04  6.4317576E-04  5.7108224E-04
  -3.00000  5.4369130E-04  7.2010557E-04  6.2973739E-04
  -2.00000  5.9696897E-04  8.1600635E-04  7.0158669E-04
  -1.00000  6.6155959E-04  9.3865454E-04  7.9190426E-04
   0.00000  7.4186228E-04  1.1007697E-03  9.0944465E-04
   1.00000  8.4531206E-04  1.3248486E-03  1.0701432E-03
   2.00000  9.8614119E-04  1.6555051E-03  1.3072006E-03
   3.00000  1.1977825E-03  2.1991156E-03  1.7062130E-03
   4.00000  1.5928579E-03  3.3078271E-03  2.5833747E-03
   5.00000  2.6767273E-03  6.5231803E-03  5.4116281E-03
   5.20000  2.9938860E-03  7.4974921E-03  6.2212711E-03
   5.40000  3.2863206E-03  8.4352248E-03  6.9139491E-03
   5.60000  3.5435802E-03  9.3198267E-03  7.4670611E-03
   5.80000  3.7738142E-03  1.0183883E-02  7.9203848E-03
   6.00000  3.9902143E-03  1.1069022E-02  8.3252941E-03
   6.20000  4.2048192E-03  1.2010172E-02  8.7239245E-03
   6.40000  4.4274172E-03  1.3034940E-02  9.1473196E-03
   6.60000  4.6659925E-03  1.4166490E-02  9.6179253E-03
   6.80000  4.9273725E-03  1.5425990E-02  1.0151691E-02
   7.00000  5.2177240E-03  1.6834110E-02  1.0759386E-02
   7.20000  5.5428119E-03  1.8411819E-02  1.1447399E-02
   7.40000  5.9080080E-03  2.0180551E-02  1.2217943E-02
   7.60000  6.3180749E-03  2.2161483E-02  1.3068421E-02
   7.80000  6.7767972E-03  2.4373308E-02  1.3989890E-02
   8.00000  7.2865865E-03  2.6827867E-02  1.4965147E-02
   8.20000  7.8481545E-03  2.9523557E-02  1.5967681E-02
   8.40000  8.4602968E-03  3.2437793E-02  1.6963089E-02
   8.60000  9.1199238E-03  3.5521553E-02  1.7914173E-02
   8.80000  9.8225147E-03  3.8700005E-02  1.8789397E-02
   9.00000  1.0563082E-02  4.1881481E-02  1.9572224E-02
   9.20000  1.1337553E-02  4.4972275E-02  2.0267232E-02
   9.40000  1.2144191E-02  4.7889217E-02  2.0899397E-02
   9.60000  1.2984478E-02  5.0561108E-02  2.1506016E-02
   9.80000  1.3862973E-02  5.2917244E-02  2.2124503E-02
   10.0000  1.4786079E-02  5.4872080E-02  2.2781236E-02
   10.2500  1.6012114E-02  5.6591432E-02  2.3669100E-02
   10.5000  1.7324848E-02  5.7321523E-02  2.4617794E-02
   10.7500  1.8721888E-02  5.6960692E-02  2.5598140E-02
   11.0000  2.0187143E-02  5.5573770E-02  2.6584179E-02
   11.2500  2.1688219E-02  5.3375961E-02  2.7558881E-02
   11.5000  2.3177503E-02  5.0649815E-02  2.8508107E-02
   11.7500  2.4598630E-02  4.7657818E-02  2.9414881E-02
   12.0000  2.5897870E-02  4.4594808E-02  3.0260797E-02
   12.2500  2.7037314E-02  4.1585912E-02  3.1032544E-02
   12.5000  2.8003928E-02  3.8708242E-02  3.1723452E-02
   12.7500  2.8810614E-02  3.6011132E-02  3.2328824E-02
   13.0000  2.9490597E-02  3.3526623E-02  3.2845630E-02
   13.2500  3.0087834E-02  3.1274096E-02  3.3276759E-02
   13.5000  3.0647076E-02  2.9262425E-02  3.3633520E-02
   13.7500  3.1207126E-02  2.7490667E-02  3.3934132E-02
   14.0000  3.1797718E-02  2.5949220E-02  3.4200164E-02
   14.2500  3.2438661E-02  2.4622259E-02  3.4453334E-02
   14.5000  3.3140144E-02  2.3490630E-02  3.4713238E-02
   14.7500  3.3903586E-02  2.2534340E-02  3.4995725E-02
   15.0000  3.4722740E-02  2.1734272E-02  3.5311800E-02
   15.2500  3.5584927E-02  2.1073111E-02  3.5667012E-02
   15.5000  3.6472398E-02  2.0535712E-02  3.6061270E-02
   15.7500  3.7363801E-02  2.0109096E-02  3.6489021E-02
   16.0000  3.8235759E-02  1.9782253E-02  3.6939758E-02
   16.2500  3.9064473E-02  1.9545864E-02  3.7398822E-02
   16.5000  3.9827260E-02  1.9391992E-02  3.7848505E-02
   16.7500  4.0503916E-02  1.9313802E-02  3.8269428E-02
   17.0000  4.1077810E-02  1.9305298E-02  3.8642125E-02
   17.2500  4.1536673E-02  1.9361112E-02  3.8948699E-02
   17.5000  4.1873075E-02  1.9476326E-02  3.9174388E-02
   17.7500  4.2084613E-02  1.9646340E-02  3.9308824E-02
   18.0000  4.2173853E-02  1.9866777E-02  3.9346830E-02
   18.2500  4.2148032E-02  2.0133426E-02  3.9288630E-02
   18.5000  4.2018535E-02  2.0442217E-02  3.9139495E-02
   18.7500  4.1800153E-02  2.0789236E-02  3.8908876E-02
   19.0000  4.1510115E-02  2.1170774E-02  3.8609195E-02
   19.2500  4.1166939E-02  2.1583409E-02  3.8254458E-02
   19.5000  4.0789194E-02  2.2024106E-02  3.7858876E-02
   19.7500  4.0394365E-02  2.2490244E-02  3.7435739E-02
   20.0000  3.9998181E-02  2.2979415E-02  3.6996826E-02
   21.0000  3.8654951E-02  2.5105979E-02  3.5272627E-02
   22.0000  3.8020776E-02  2.7354938E-02  3.3855971E-02
   23.0000  3.7977741E-02  2.9540072E-02  3.2788786E-02
   24.0000  3.7985467E-02  3.1448310E-02  3.1972347E-02
   25.0000  3.7463976E-02  3.2870092E-02  3.1308793E-02
   26.0000  3.6204662E-02  3.3675109E-02  3.0733392E-02
   27.0000  3.4482332E-02  3.3859745E-02  3.0214878E-02
   28.0000  3.2734882E-02  3.3534975E-02  2.9750777E-02
   29.0000  3.1233738E-02  3.2876470E-02  2.9358964E-02
   30.0000  3.0041081E-02  3.2061247E-02  2.9059355E-02
   31.0000  2.9111143E-02  3.1203327E-02  2.8848358E-02
   32.0000  2.8381082E-02  3.0353029E-02  2.8703826E-02
   33.0000  2.7799320E-02  2.9521846E-02  2.8596663E-02
   34.0000  2.7324020E-02  2.8703578E-02  2.8496367E-02
   35.0000  2.6919956E-02  2.7889352E-02  2.8374653E-02
   36.0000  2.6557493E-02  2.7076258E-02  2.8208975E-02
   37.0000  2.6213045E-02  2.6271514E-02  2.7986836E-02
   38.0000  2.5872502E-02  2.5495607E-02  2.7711177E-02
   39.0000  2.5541252E-02  2.4788879E-02  2.7408380E-02
   40.0000  2.5253747E-02  2.4214760E-02  2.7133925E-02
