    Energy   (100,001)      (010,001)      (001,110)   
  -25.0000  1.7415787E-04  1.8560542E-04  1.7147101E-04
  -24.0000  1.8068606E-04  1.9244644E-04  1.7801688E-04
  -23.0000  1.8767393E-04  1.9977019E-04  1.8502871E-04
  -22.0000  1.9517016E-04  2.0762854E-04  1.9255619E-04
  -21.0000  2.0323042E-04  2.1608096E-04  2.0065617E-04
  -20.0000  2.1191867E-04  2.2519599E-04  2.0939403E-04
  -19.0000  2.2130874E-04  2.3505300E-04  2.1884529E-04
  -18.0000  2.3148628E-04  2.4574440E-04  2.2909763E-04
  -17.0000  2.4255124E-04  2.5737840E-04  2.4025342E-04
  -16.0000  2.5462091E-04  2.7008251E-04  2.5243289E-04
  -15.0000  2.6783383E-04  2.8400800E-04  2.6577821E-04
  -14.0000  2.8235481E-04  2.9933569E-04  2.8045862E-04
  -13.0000  2.9838138E-04  3.1628336E-04  2.9667714E-04
  -12.0000  3.1615230E-04  3.3511574E-04  3.1467946E-04
  -11.0000  3.3595881E-04  3.5615763E-04  3.3476557E-04
  -10.0000  3.5815984E-04  3.7981187E-04  3.5730563E-04
  -9.00000  3.8320275E-04  4.0658400E-04  3.8276163E-04
  -8.00000  4.1165230E-04  4.3711691E-04  4.1171767E-04
  -7.00000  4.4423178E-04  4.7224045E-04  4.4492307E-04
  -6.00000  4.8188288E-04  5.1304418E-04  4.8335537E-04
  -5.00000  5.2585516E-04  5.6098700E-04  5.2831472E-04
  -4.00000  5.7784396E-04  6.1806755E-04  5.8157010E-04
  -3.00000  6.4021118E-04  6.8709945E-04  6.4559451E-04
  -2.00000  7.1635496E-04  7.7217686E-04  7.2396138E-04
  -1.00000  8.1136488E-04  8.7950908E-04  8.2205256E-04
   0.00000  9.3327089E-04  1.0190343E-03  9.4842090E-04
   1.00000  1.0956703E-03  1.2078791E-03  1.1176888E-03
   2.00000  1.3240825E-03  1.4789615E-03  1.3576527E-03
   3.00000  1.6749966E-03  1.9078798E-03  1.7308621E-03
   4.00000  2.3168538E-03  2.7343482E-03  2.4272849E-03
   5.00000  3.9484536E-03  4.9941028E-03  4.2480937E-03
   5.20000  4.4701013E-03  5.6942297E-03  4.8402178E-03
   5.40000  5.0200978E-03  6.3899394E-03  5.4712733E-03
   5.60000  5.5884050E-03  7.0609705E-03  6.1319804E-03
   5.80000  6.1804803E-03  7.7159012E-03  6.8282462E-03
   6.00000  6.8082773E-03  8.3720087E-03  7.5694026E-03
   6.20000  7.4860526E-03  9.0466123E-03  8.3626339E-03
   6.40000  8.2292203E-03  9.7564339E-03  9.2121273E-03
   6.60000  9.0533065E-03  1.0519053E-02  1.0119990E-02
   6.80000  9.9721664E-03  1.1353904E-02  1.1087614E-02
   7.00000  1.0995995E-02  1.2282194E-02  1.2116592E-02
   7.20000  1.2129821E-02  1.3326150E-02  1.3208329E-02
   7.40000  1.3372211E-02  1.4508373E-02  1.4361934E-02
   7.60000  1.4713193E-02  1.5851754E-02  1.5571086E-02
   7.80000  1.6131439E-02  1.7379855E-02  1.6821781E-02
   8.00000  1.7593276E-02  1.9117243E-02  1.8093564E-02
   8.20000  1.9057967E-02  2.1089418E-02  1.9366123E-02
   8.40000  2.0491642E-02  2.3322220E-02  2.0629876E-02
   8.60000  2.1884722E-02  2.5840419E-02  2.1894612E-02
   8.80000  2.3261154E-02  2.8664930E-02  2.3189107E-02
   9.00000  2.4672144E-02  3.1808326E-02  2.4550556E-02
   9.20000  2.6179002E-02  3.5268571E-02  2.6010754E-02
   9.40000  2.7834559E-02  3.9020855E-02  2.7586479E-02
   9.60000  2.9667114E-02  4.3007022E-02  2.9275211E-02
   9.80000  3.1670112E-02  4.7122001E-02  3.1055248E-02
   10.0000  3.3801871E-02  5.1199991E-02  3.2890158E-02
   10.2500  3.6536825E-02  5.5886806E-02  3.5191590E-02
   10.5000  3.9169981E-02  5.9597150E-02  3.7412097E-02
   10.7500  4.1477777E-02  6.1800862E-02  3.9459253E-02
   11.0000  4.3248833E-02  6.2179647E-02  4.1253581E-02
   11.2500  4.4338821E-02  6.0759380E-02  4.2734743E-02
   11.5000  4.4704975E-02  5.7892484E-02  4.3862858E-02
   11.7500  4.4405732E-02  5.4106001E-02  4.4613918E-02
   12.0000  4.3574627E-02  4.9921866E-02  4.4975623E-02
   12.2500  4.2382789E-02  4.5742204E-02  4.4950605E-02
   12.5000  4.1002652E-02  4.1819167E-02  4.4564074E-02
   12.7500  3.9581314E-02  3.8279085E-02  4.3866045E-02
   13.0000  3.8227379E-02  3.5163714E-02  4.2925924E-02
   13.2500  3.7010764E-02  3.2466011E-02  4.1824351E-02
   13.5000  3.5969614E-02  3.0154496E-02  4.0643999E-02
   13.7500  3.5118695E-02  2.8187856E-02  3.9460704E-02
   14.0000  3.4456777E-02  2.6522968E-02  3.8337037E-02
   14.2500  3.3972378E-02  2.5118981E-02  3.7319196E-02
   14.5000  3.3647864E-02  2.3939129E-02  3.6436907E-02
   14.7500  3.3462173E-02  2.2951285E-02  3.5705271E-02
   15.0000  3.3392454E-02  2.2127878E-02  3.5127425E-02
   15.2500  3.3414986E-02  2.1445525E-02  3.4697216E-02
   15.5000  3.3505674E-02  2.0884583E-02  3.4401559E-02
   15.7500  3.3640435E-02  2.0428694E-02  3.4222447E-02
   16.0000  3.3795737E-02  2.0064357E-02  3.4138715E-02
   16.2500  3.3949453E-02  1.9780536E-02  3.4127701E-02
   16.5000  3.4082055E-02  1.9568295E-02  3.4166849E-02
   16.7500  3.4178012E-02  1.9420462E-02  3.4235212E-02
   17.0000  3.4227110E-02  1.9331309E-02  3.4314728E-02
   17.2500  3.4225347E-02  1.9296258E-02  3.4391115E-02
   17.5000  3.4175109E-02  1.9311610E-02  3.4454273E-02
   17.7500  3.4084499E-02  1.9374323E-02  3.4498174E-02
   18.0000  3.3965914E-02  1.9481822E-02  3.4520315E-02
   18.2500  3.3834132E-02  1.9631867E-02  3.4520912E-02
   18.5000  3.3704317E-02  1.9822456E-02  3.4501983E-02
   18.7500  3.3590256E-02  2.0051777E-02  3.4466492E-02
   19.0000  3.3503088E-02  2.0318190E-02  3.4417648E-02
   19.2500  3.3450591E-02  2.0620254E-02  3.4358385E-02
   19.5000  3.3436988E-02  2.0956762E-02  3.4291044E-02
   19.7500  3.3463099E-02  2.1326727E-02  3.4217206E-02
   20.0000  3.3526644E-02  2.1729209E-02  3.4137662E-02
   21.0000  3.4025682E-02  2.3632599E-02  3.3755778E-02
   22.0000  3.4507679E-02  2.5918496E-02  3.3209884E-02
   23.0000  3.4477833E-02  2.8456694E-02  3.2396681E-02
   24.0000  3.3675896E-02  3.1006078E-02  3.1276259E-02
   25.0000  3.2177783E-02  3.3205606E-02  2.9926132E-02
   26.0000  3.0302581E-02  3.4776686E-02  2.8498030E-02
   27.0000  2.8411391E-02  3.5601840E-02  2.7160764E-02
   28.0000  2.6760554E-02  3.5733211E-02  2.6048349E-02
   29.0000  2.5479144E-02  3.5344838E-02  2.5233719E-02
   30.0000  2.4591534E-02  3.4645284E-02  2.4723720E-02
   31.0000  2.4042872E-02  3.3807815E-02  2.4463151E-02
   32.0000  2.3737597E-02  3.2942101E-02  2.4354643E-02
   33.0000  2.3576673E-02  3.2097646E-02  2.4289898E-02
   34.0000  2.3478680E-02  3.1280916E-02  2.4176727E-02
   35.0000  2.3386724E-02  3.0474970E-02  2.3954683E-02
   36.0000  2.3268087E-02  2.9657805E-02  2.3601982E-02
   37.0000  2.3111129E-02  2.8818492E-02  2.3136840E-02
   38.0000  2.2922032E-02  2.7971497E-02  2.2612750E-02
   39.0000  2.2722780E-02  2.7169741E-02  2.2105958E-02
   40.0000  2.2547191E-02  2.6504775E-02  2.1692615E-02
