    Energy   (100,001)      (010,001)      (001,110)   
  -25.0000  1.7833304E-04  1.8006328E-04  1.7850517E-04
  -24.0000  1.8477866E-04  1.8699422E-04  1.8504963E-04
  -23.0000  1.9166611E-04  1.9443014E-04  1.9204825E-04
  -22.0000  1.9904122E-04  2.0242671E-04  1.9954870E-04
  -21.0000  2.0695630E-04  2.1104795E-04  2.0760547E-04
  -20.0000  2.1547132E-04  2.2036786E-04  2.1628111E-04
  -19.0000  2.2465535E-04  2.3047239E-04  2.2564781E-04
  -18.0000  2.3458833E-04  2.4146198E-04  2.3578926E-04
  -17.0000  2.4536332E-04  2.5345465E-04  2.4680309E-04
  -16.0000  2.5708925E-04  2.6659003E-04  2.5880382E-04
  -15.0000  2.6989446E-04  2.8103445E-04  2.7192669E-04
  -14.0000  2.8393117E-04  2.9698757E-04  2.8633256E-04
  -13.0000  2.9938135E-04  3.1469107E-04  3.0221421E-04
  -12.0000  3.1646426E-04  3.3444019E-04  3.1980470E-04
  -11.0000  3.3544653E-04  3.5659921E-04  3.3938841E-04
  -10.0000  3.5665566E-04  3.8162268E-04  3.6131598E-04
  -9.00000  3.8049845E-04  4.1008485E-04  3.8602483E-04
  -8.00000  4.0748655E-04  4.4272134E-04  4.1406776E-04
  -7.00000  4.3827274E-04  4.8048947E-04  4.4615387E-04
  -6.00000  4.7370344E-04  5.2465763E-04  4.8320821E-04
  -5.00000  5.1489693E-04  5.7694157E-04  5.2646143E-04
  -4.00000  5.6336345E-04  6.3971922E-04  5.7758866E-04
  -3.00000  6.2119655E-04  7.1638271E-04  6.3893287E-04
  -2.00000  6.9139196E-04  8.1194384E-04  7.1388093E-04
  -1.00000  7.7840933E-04  9.3413921E-04  8.0753265E-04
   0.00000  8.8923527E-04  1.0956092E-03  9.2797815E-04
   1.00000  1.0355981E-03  1.3186628E-03  1.0889738E-03
   2.00000  1.2392571E-03  1.6473474E-03  1.3163203E-03
   3.00000  1.5475868E-03  2.1856527E-03  1.6663218E-03
   4.00000  2.0985161E-03  3.2702581E-03  2.2992303E-03
   5.00000  3.4472603E-03  6.3777664E-03  3.8474620E-03
   5.20000  3.8700934E-03  7.3705809E-03  4.3576026E-03
   5.40000  4.3154694E-03  8.3803182E-03  4.9263420E-03
   5.60000  4.7796270E-03  9.3838477E-03  5.5570418E-03
   5.80000  5.2726812E-03  1.0395562E-02  6.2641287E-03
   6.00000  5.8102831E-03  1.1438891E-02  7.0656591E-03
   6.20000  6.4100001E-03  1.2532064E-02  7.9794601E-03
   6.40000  7.0908959E-03  1.3684098E-02  9.0218034E-03
   6.60000  7.8736276E-03  1.4894526E-02  1.0206534E-02
   6.80000  8.7796376E-03  1.6155718E-02  1.1543563E-02
   7.00000  9.8285423E-03  1.7458546E-02  1.3035866E-02
   7.20000  1.1033108E-02  1.8801067E-02  1.4673989E-02
   7.40000  1.2391662E-02  2.0197677E-02  1.6427247E-02
   7.60000  1.3878841E-02  2.1684147E-02  1.8232276E-02
   7.80000  1.5438093E-02  2.3315073E-02  1.9984358E-02
   8.00000  1.6982700E-02  2.5154511E-02  2.1544533E-02
   8.20000  1.8413004E-02  2.7264142E-02  2.2775895E-02
   8.40000  1.9649453E-02  2.9693351E-02  2.3602117E-02
   8.60000  2.0664957E-02  3.2472540E-02  2.4050069E-02
   8.80000  2.1493806E-02  3.5607933E-02  2.4238877E-02
   9.00000  2.2211668E-02  3.9075016E-02  2.4323336E-02
   9.20000  2.2903857E-02  4.2809233E-02  2.4436097E-02
   9.40000  2.3641509E-02  4.6696082E-02  2.4660548E-02
   9.60000  2.4471847E-02  5.0566079E-02  2.5033801E-02
   9.80000  2.5418160E-02  5.4200123E-02  2.5562515E-02
   10.0000  2.6483573E-02  5.7348472E-02  2.6237043E-02
   10.2500  2.7962227E-02  6.0227600E-02  2.7258176E-02
   10.5000  2.9556480E-02  6.1593839E-02  2.8437684E-02
   10.7500  3.1198857E-02  6.1307920E-02  2.9728338E-02
   11.0000  3.2812430E-02  5.9501502E-02  3.1076382E-02
   11.2500  3.4317001E-02  5.6515461E-02  3.2419919E-02
   11.5000  3.5633709E-02  5.2783066E-02  3.3690309E-02
   11.7500  3.6691930E-02  4.8719097E-02  3.4818624E-02
   12.0000  3.7443006E-02  4.4652968E-02  3.5745359E-02
   12.2500  3.7874906E-02  4.0808553E-02  3.6430936E-02
   12.5000  3.8017508E-02  3.7313685E-02  3.6863546E-02
   12.7500  3.7933928E-02  3.4222623E-02  3.7059241E-02
   13.0000  3.7702700E-02  3.1540498E-02  3.7054364E-02
   13.2500  3.7400611E-02  2.9243583E-02  3.6897173E-02
   13.5000  3.7091726E-02  2.7293792E-02  3.6641059E-02
   13.7500  3.6823121E-02  2.5648252E-02  3.6338118E-02
   14.0000  3.6625062E-02  2.4265073E-02  3.6033950E-02
   14.2500  3.6512889E-02  2.3106332E-02  3.5765091E-02
   14.5000  3.6489493E-02  2.2139202E-02  3.5558453E-02
   14.7500  3.6548189E-02  2.1336016E-02  3.5431683E-02
   15.0000  3.6675554E-02  2.0673821E-02  3.5393856E-02
   15.2500  3.6853851E-02  2.0133762E-02  3.5446279E-02
   15.5000  3.7062960E-02  1.9700454E-02  3.5583322E-02
   15.7500  3.7281887E-02  1.9361417E-02  3.5793287E-02
   16.0000  3.7489973E-02  1.9106580E-02  3.6059401E-02
   16.2500  3.7667881E-02  1.8927848E-02  3.6361012E-02
   16.5000  3.7798438E-02  1.8818719E-02  3.6675045E-02
   16.7500  3.7867366E-02  1.8773945E-02  3.6977709E-02
   17.0000  3.7863892E-02  1.8789219E-02  3.7246346E-02
   17.2500  3.7781226E-02  1.8860909E-02  3.7461244E-02
   17.5000  3.7616844E-02  1.8985837E-02  3.7607177E-02
   17.7500  3.7372526E-02  1.9161104E-02  3.7674460E-02
   18.0000  3.7054098E-02  1.9383974E-02  3.7659369E-02
   18.2500  3.6670886E-02  1.9651799E-02  3.7563887E-02
   18.5000  3.6234915E-02  1.9961990E-02  3.7394867E-02
   18.7500  3.5759951E-02  2.0312021E-02  3.7162776E-02
   19.0000  3.5260462E-02  2.0699468E-02  3.6880236E-02
   19.2500  3.4750598E-02  2.1122081E-02  3.6560563E-02
   19.5000  3.4243273E-02  2.1577867E-02  3.6216470E-02
   19.7500  3.3749476E-02  2.2065087E-02  3.5859098E-02
   20.0000  3.3278041E-02  2.2582040E-02  3.5497575E-02
   21.0000  3.1736607E-02  2.4894154E-02  3.4133670E-02
   22.0000  3.0846558E-02  2.7444835E-02  3.3014911E-02
   23.0000  3.0449490E-02  3.0007640E-02  3.2066440E-02
   24.0000  3.0245536E-02  3.2295628E-02  3.1156461E-02
   25.0000  3.0003823E-02  3.4011715E-02  3.0224477E-02
   26.0000  2.9671480E-02  3.4959257E-02  2.9297095E-02
   27.0000  2.9311348E-02  3.5128521E-02  2.8450906E-02
   28.0000  2.8960953E-02  3.4679172E-02  2.7762185E-02
   29.0000  2.8609132E-02  3.3845169E-02  2.7270747E-02
   30.0000  2.8252980E-02  3.2842706E-02  2.6966635E-02
   31.0000  2.7902235E-02  3.1807147E-02  2.6796438E-02
   32.0000  2.7561899E-02  3.0801189E-02  2.6691395E-02
   33.0000  2.7225543E-02  2.9841576E-02  2.6590627E-02
   34.0000  2.6880723E-02  2.8918465E-02  2.6450249E-02
   35.0000  2.6518552E-02  2.8011558E-02  2.6243978E-02
   36.0000  2.6140350E-02  2.7103575E-02  2.5961386E-02
   37.0000  2.5759518E-02  2.6191443E-02  2.5608032E-02
   38.0000  2.5398836E-02  2.5295756E-02  2.5207862E-02
   39.0000  2.5084916E-02  2.4469189E-02  2.4805936E-02
   40.0000  2.4841342E-02  2.3794198E-02  2.4464325E-02
