    Energy   (100,001)      (010,001)      (001,110)   
  -25.0000  1.6801338E-04  1.8793476E-04  1.7968230E-04
  -24.0000  1.7392539E-04  1.9510105E-04  1.8596461E-04
  -23.0000  1.8022444E-04  2.0278893E-04  1.9266289E-04
  -22.0000  1.8694853E-04  2.1105600E-04  1.9981885E-04
  -21.0000  1.9414070E-04  2.1996858E-04  2.0747992E-04
  -20.0000  2.0184993E-04  2.2960330E-04  2.1570027E-04
  -19.0000  2.1013217E-04  2.4004926E-04  2.2454202E-04
  -18.0000  2.1905166E-04  2.5141058E-04  2.3407678E-04
  -17.0000  2.2868245E-04  2.6380971E-04  2.4438753E-04
  -16.0000  2.3911040E-04  2.7739153E-04  2.5557093E-04
  -15.0000  2.5043562E-04  2.9232875E-04  2.6774035E-04
  -14.0000  2.6277552E-04  3.0882879E-04  2.8102959E-04
  -13.0000  2.7626878E-04  3.2714285E-04  2.9559778E-04
  -12.0000  2.9108038E-04  3.4757796E-04  3.1163567E-04
  -11.0000  3.0740818E-04  3.7051317E-04  3.2937407E-04
  -10.0000  3.2549167E-04  3.9642168E-04  3.4909500E-04
  -9.00000  3.4562357E-04  4.2590162E-04  3.7114710E-04
  -8.00000  3.6816584E-04  4.5971958E-04  3.9596689E-04
  -7.00000  3.9357184E-04  4.9887360E-04  4.2410915E-04
  -6.00000  4.2241794E-04  5.4468651E-04  4.5629122E-04
  -5.00000  4.5544975E-04  5.9894809E-04  4.9345977E-04
  -4.00000  4.9365203E-04  6.6413899E-04  5.3689509E-04
  -3.00000  5.3835852E-04  7.4379710E-04  5.8838131E-04
  -2.00000  5.9143324E-04  8.4314628E-04  6.5050018E-04
  -1.00000  6.5558895E-04  9.7024042E-04  7.2717377E-04
   0.00000  7.3499480E-04  1.1382097E-03  8.2476081E-04
   1.00000  8.3657453E-04  1.3701446E-03  9.5454934E-04
   2.00000  9.7326596E-04  1.7113751E-03  1.1394313E-03
   3.00000  1.1744628E-03  2.2679961E-03  1.4365799E-03
   4.00000  1.5348904E-03  3.3795213E-03  2.0480703E-03
   5.00000  2.4717833E-03  6.5244595E-03  3.9383638E-03
   5.20000  2.7534089E-03  7.5290000E-03  4.5554937E-03
   5.40000  3.0261532E-03  8.5507608E-03  5.1669918E-03
   5.60000  3.2803208E-03  9.5608292E-03  5.7311510E-03
   5.80000  3.5188464E-03  1.0567300E-02  6.2226362E-03
   6.00000  3.7491145E-03  1.1591289E-02  6.6263049E-03
   6.20000  3.9796237E-03  1.2656659E-02  6.9408219E-03
   6.40000  4.2190783E-03  1.3788405E-02  7.1814393E-03
   6.60000  4.4754086E-03  1.5012294E-02  7.3746523E-03
   6.80000  4.7545249E-03  1.6353927E-02  7.5477005E-03
   7.00000  5.0594423E-03  1.7837901E-02  7.7200458E-03
   7.20000  5.3903477E-03  1.9487638E-02  7.9015992E-03
   7.40000  5.7458428E-03  2.1325718E-02  8.0975675E-03
   7.60000  6.1249520E-03  2.3374217E-02  8.3153438E-03
   7.80000  6.5287965E-03  2.5654561E-02  8.5678575E-03
   8.00000  6.9610408E-03  2.8186318E-02  8.8716324E-03
   8.20000  7.4272493E-03  3.0984250E-02  9.2423706E-03
   8.40000  7.9339515E-03  3.4052786E-02  9.6914983E-03
   8.60000  8.4879887E-03  3.7377294E-02  1.0224845E-02
   8.80000  9.0962254E-03  4.0912438E-02  1.0842925E-02
   9.00000  9.7654536E-03  4.4570232E-02  1.1542176E-02
   9.20000  1.0502282E-02  4.8214285E-02  1.2317070E-02
   9.40000  1.1312888E-02  5.1668877E-02  1.3163128E-02
   9.60000  1.2202581E-02  5.4747123E-02  1.4080225E-02
   9.80000  1.3175215E-02  5.7289868E-02  1.5074517E-02
   10.0000  1.4232402E-02  5.9194715E-02  1.6157240E-02
   10.2500  1.5670053E-02  6.0616331E-02  1.7652741E-02
   10.5000  1.7225499E-02  6.0967281E-02  1.9316300E-02
   10.7500  1.8877245E-02  6.0271046E-02  2.1137915E-02
   11.0000  2.0593532E-02  5.8580155E-02  2.3084802E-02
   11.2500  2.2332682E-02  5.6013162E-02  2.5107035E-02
   11.5000  2.4046549E-02  5.2774703E-02  2.7145792E-02
   11.7500  2.5687032E-02  4.9129733E-02  2.9140032E-02
   12.0000  2.7214441E-02  4.5350234E-02  3.1029363E-02
   12.2500  2.8605251E-02  4.1666153E-02  3.2756971E-02
   12.5000  2.9854779E-02  3.8238379E-02  3.4275729E-02
   12.7500  3.0972059E-02  3.5156200E-02  3.5552693E-02
   13.0000  3.1971593E-02  3.2451114E-02  3.6570944E-02
   13.2500  3.2869122E-02  3.0116307E-02  3.7331870E-02
   13.5000  3.3680616E-02  2.8124141E-02  3.7856277E-02
   13.7500  3.4421506E-02  2.6438079E-02  3.8181545E-02
   14.0000  3.5105663E-02  2.5019634E-02  3.8355652E-02
   14.2500  3.5744564E-02  2.3832157E-02  3.8430403E-02
   14.5000  3.6346795E-02  2.2842719E-02  3.8455507E-02
   14.7500  3.6917912E-02  2.2022775E-02  3.8474300E-02
   15.0000  3.7460582E-02  2.1348148E-02  3.8521200E-02
   15.2500  3.7974898E-02  2.0798653E-02  3.8620618E-02
   15.5000  3.8458771E-02  2.0357597E-02  3.8786855E-02
   15.7500  3.8908294E-02  2.0011252E-02  3.9024561E-02
   16.0000  3.9318053E-02  1.9748365E-02  3.9329505E-02
   16.2500  3.9681420E-02  1.9559713E-02  3.9689527E-02
   16.5000  3.9990912E-02  1.9437732E-02  4.0085757E-02
   16.7500  4.0238715E-02  1.9376190E-02  4.0494174E-02
   17.0000  4.0417449E-02  1.9369928E-02  4.0887610E-02
   17.2500  4.0521155E-02  1.9414630E-02  4.1238205E-02
   17.5000  4.0546402E-02  1.9506649E-02  4.1520120E-02
   17.7500  4.0493323E-02  1.9642849E-02  4.1712202E-02
   18.0000  4.0366339E-02  1.9820487E-02  4.1800143E-02
   18.2500  4.0174376E-02  2.0037112E-02  4.1777731E-02
   18.5000  3.9930469E-02  2.0290510E-02  4.1646948E-02
   18.7500  3.9650794E-02  2.0578671E-02  4.1416950E-02
   19.0000  3.9353294E-02  2.0899801E-02  4.1102189E-02
   19.2500  3.9056117E-02  2.1252369E-02  4.0720094E-02
   19.5000  3.8776127E-02  2.1635162E-02  4.0288771E-02
   19.7500  3.8527681E-02  2.2047272E-02  3.9825133E-02
   20.0000  3.8321934E-02  2.2487895E-02  3.9343891E-02
   21.0000  3.8044192E-02  2.4504976E-02  3.7464851E-02
   22.0000  3.8616525E-02  2.6827693E-02  3.5937103E-02
   23.0000  3.9586321E-02  2.9266277E-02  3.4782331E-02
   24.0000  4.0289030E-02  3.1532764E-02  3.3861203E-02
   25.0000  4.0175591E-02  3.3302994E-02  3.3032136E-02
   26.0000  3.9041473E-02  3.4341631E-02  3.2202594E-02
   27.0000  3.7077247E-02  3.4598415E-02  3.1346299E-02
   28.0000  3.4741219E-02  3.4211570E-02  3.0508720E-02
   29.0000  3.2512858E-02  3.3419709E-02  2.9776084E-02
   30.0000  3.0644740E-02  3.2436314E-02  2.9202803E-02
   31.0000  2.9182231E-02  3.1405576E-02  2.8794039E-02
   32.0000  2.8066582E-02  3.0410143E-02  2.8520217E-02
   33.0000  2.7202471E-02  2.9488640E-02  2.8333548E-02
   34.0000  2.6497943E-02  2.8653148E-02  2.8181356E-02
   35.0000  2.5883439E-02  2.7902068E-02  2.8014071E-02
   36.0000  2.5316266E-02  2.7226949E-02  2.7790655E-02
   37.0000  2.4776641E-02  2.6615916E-02  2.7484801E-02
   38.0000  2.4262614E-02  2.6059150E-02  2.7094362E-02
   39.0000  2.3790801E-02  2.5561437E-02  2.6655799E-02
   40.0000  2.3399444E-02  2.5154763E-02  2.6252948E-02
