    Energy   (100,001)      (010,001)      (001,110)   
  -25.0000  1.6758957E-04  1.9103025E-04  1.7494707E-04
  -24.0000  1.7378007E-04  1.9805048E-04  1.8147013E-04
  -23.0000  1.8039354E-04  2.0556838E-04  1.8844903E-04
  -22.0000  1.8747311E-04  2.1363792E-04  1.9593167E-04
  -21.0000  1.9506787E-04  2.2232105E-04  2.0397283E-04
  -20.0000  2.0323390E-04  2.3168927E-04  2.1263536E-04
  -19.0000  2.1203556E-04  2.4182554E-04  2.2199178E-04
  -18.0000  2.2154708E-04  2.5282659E-04  2.3212619E-04
  -17.0000  2.3185447E-04  2.6480597E-04  2.4313660E-04
  -16.0000  2.4305799E-04  2.7789776E-04  2.5513802E-04
  -15.0000  2.5527515E-04  2.9226141E-04  2.6826619E-04
  -14.0000  2.6864460E-04  3.0808802E-04  2.8268254E-04
  -13.0000  2.8333108E-04  3.2560851E-04  2.9858048E-04
  -12.0000  2.9953183E-04  3.4510441E-04  3.1619378E-04
  -11.0000  3.1748498E-04  3.6692253E-04  3.3580765E-04
  -10.0000  3.3748076E-04  3.9149473E-04  3.5777374E-04
  -9.00000  3.5987659E-04  4.1936555E-04  3.8253077E-04
  -8.00000  3.8511776E-04  4.5123114E-04  4.1063344E-04
  -7.00000  4.1376647E-04  4.8799559E-04  4.4279387E-04
  -6.00000  4.4654331E-04  5.3085423E-04  4.7994243E-04
  -5.00000  4.8438815E-04  5.8142045E-04  5.2331990E-04
  -4.00000  5.2855242E-04  6.4192539E-04  5.7462180E-04
  -3.00000  5.8074397E-04  7.1554463E-04  6.3623447E-04
  -2.00000  6.4336498E-04  8.0695943E-04  7.1164136E-04
  -1.00000  7.1992586E-04  9.2337980E-04  8.0616970E-04
   0.00000  8.1582110E-04  1.0765589E-03  9.2848294E-04
   1.00000  9.3994021E-04  1.2871919E-03  1.0939214E-03
   2.00000  1.1085474E-03  1.5960339E-03  1.3332646E-03
   3.00000  1.3570247E-03  2.0989846E-03  1.7218053E-03
   4.00000  1.7913119E-03  3.1050096E-03  2.5180998E-03
   5.00000  2.8533600E-03  5.9659778E-03  4.9333628E-03
   5.20000  3.1782842E-03  6.8827054E-03  5.7204428E-03
   5.40000  3.5085513E-03  7.8186801E-03  6.4991455E-03
   5.60000  3.8368981E-03  8.7505920E-03  7.2117445E-03
   5.80000  4.1675743E-03  9.6884158E-03  7.8262786E-03
   6.00000  4.5082815E-03  1.0652317E-02  8.3344682E-03
   6.20000  4.8665138E-03  1.1662401E-02  8.7552522E-03
   6.40000  5.2490485E-03  1.2736626E-02  9.1308835E-03
   6.60000  5.6623716E-03  1.3890418E-02  9.5128937E-03
   6.80000  6.1131636E-03  1.5136373E-02  9.9477250E-03
   7.00000  6.6086270E-03  1.6484167E-02  1.0469511E-02
   7.20000  7.1566240E-03  1.7940746E-02  1.1099640E-02
   7.40000  7.7655880E-03  1.9510592E-02  1.1849293E-02
   7.60000  8.4441331E-03  2.1195701E-02  1.2722087E-02
   7.80000  9.2004430E-03  2.2994789E-02  1.3715807E-02
   8.00000  1.0041825E-02  2.4901463E-02  1.4823425E-02
   8.20000  1.0974422E-02  2.6901752E-02  1.6033981E-02
   8.40000  1.2002563E-02  2.8972558E-02  1.7333685E-02
   8.60000  1.3127888E-02  3.1083000E-02  1.8707132E-02
   8.80000  1.4348785E-02  3.3200003E-02  2.0138233E-02
   9.00000  1.5660316E-02  3.5297936E-02  2.1610281E-02
   9.20000  1.7054528E-02  3.7369469E-02  2.3105110E-02
   9.40000  1.8521038E-02  3.9432535E-02  2.4602199E-02
   9.60000  2.0047525E-02  4.1525569E-02  2.6078912E-02
   9.80000  2.1619657E-02  4.3683766E-02  2.7512358E-02
   10.0000  2.3220365E-02  4.5905190E-02  2.8882224E-02
   10.2500  2.5229764E-02  4.8670723E-02  3.0482413E-02
   10.5000  2.7204278E-02  5.1181614E-02  3.1943525E-02
   10.7500  2.9092498E-02  5.3096342E-02  3.3263098E-02
   11.0000  3.0841929E-02  5.4093238E-02  3.4445406E-02
   11.2500  3.2402761E-02  5.3987574E-02  3.5491586E-02
   11.5000  3.3734744E-02  5.2797358E-02  3.6395208E-02
   11.7500  3.4814253E-02  5.0724875E-02  3.7146045E-02
   12.0000  3.5639203E-02  4.8071554E-02  3.7736770E-02
   12.2500  3.6230167E-02  4.5140434E-02  3.8168537E-02
   12.5000  3.6625862E-02  4.2172606E-02  3.8452897E-02
   12.7500  3.6875403E-02  3.9327925E-02  3.8609663E-02
   13.0000  3.7031020E-02  3.6694579E-02  3.8663935E-02
   13.2500  3.7141782E-02  3.4309419E-02  3.8643931E-02
   13.5000  3.7248692E-02  3.2177795E-02  3.8578714E-02
   13.7500  3.7382174E-02  3.0288202E-02  3.8495202E-02
   14.0000  3.7561752E-02  2.8621538E-02  3.8415535E-02
   14.2500  3.7797015E-02  2.7156466E-02  3.8355710E-02
   14.5000  3.8089160E-02  2.5872236E-02  3.8325409E-02
   14.7500  3.8432674E-02  2.4749965E-02  3.8328487E-02
   15.0000  3.8816922E-02  2.3773039E-02  3.8363751E-02
   15.2500  3.9227527E-02  2.2927064E-02  3.8425794E-02
   15.5000  3.9647542E-02  2.2199620E-02  3.8505848E-02
   15.7500  4.0058497E-02  2.1579960E-02  3.8592679E-02
   16.0000  4.0441429E-02  2.1058714E-02  3.8673591E-02
   16.2500  4.0777961E-02  2.0627639E-02  3.8735575E-02
   16.5000  4.1051490E-02  2.0279408E-02  3.8766544E-02
   16.7500  4.1248428E-02  2.0007459E-02  3.8756538E-02
   17.0000  4.1359388E-02  1.9805876E-02  3.8698711E-02
   17.2500  4.1380114E-02  1.9669305E-02  3.8589920E-02
   17.5000  4.1311981E-02  1.9592896E-02  3.8430814E-02
   17.7500  4.1161894E-02  1.9572260E-02  3.8225417E-02
   18.0000  4.0941602E-02  1.9603438E-02  3.7980327E-02
   18.2500  4.0666482E-02  1.9682871E-02  3.7703726E-02
   18.5000  4.0354045E-02  1.9807387E-02  3.7404386E-02
   18.7500  4.0022360E-02  1.9974181E-02  3.7090825E-02
   19.0000  3.9688627E-02  2.0180814E-02  3.6770688E-02
   19.2500  3.9368023E-02  2.0425228E-02  3.6450355E-02
   19.5000  3.9072871E-02  2.0705751E-02  3.6134748E-02
   19.7500  3.8812161E-02  2.1021065E-02  3.5827318E-02
   20.0000  3.8591432E-02  2.1370012E-02  3.5530235E-02
   21.0000  3.8120878E-02  2.3069879E-02  3.4464779E-02
   22.0000  3.8108584E-02  2.5167266E-02  3.3586787E-02
   23.0000  3.8040693E-02  2.7517192E-02  3.2815250E-02
   24.0000  3.7405500E-02  2.9902056E-02  3.2052434E-02
   25.0000  3.6000812E-02  3.2028092E-02  3.1227035E-02
   26.0000  3.4025479E-02  3.3609125E-02  3.0314549E-02
   27.0000  3.1851841E-02  3.4536953E-02  2.9335135E-02
   28.0000  2.9809152E-02  3.4864485E-02  2.8357032E-02
   29.0000  2.8082597E-02  3.4731317E-02  2.7470088E-02
   30.0000  2.6718395E-02  3.4303033E-02  2.6741462E-02
   31.0000  2.5680112E-02  3.3720781E-02  2.6191749E-02
   32.0000  2.4898690E-02  3.3075960E-02  2.5799528E-02
   33.0000  2.4300483E-02  3.2411539E-02  2.5518706E-02
   34.0000  2.3819289E-02  3.1736834E-02  2.5293544E-02
   35.0000  2.3401008E-02  3.1044475E-02  2.5068486E-02
   36.0000  2.3005733E-02  3.0325872E-02  2.4795719E-02
   37.0000  2.2609561E-02  2.9584349E-02  2.4443603E-02
   38.0000  2.2208433E-02  2.8844132E-02  2.4008594E-02
   39.0000  2.1823002E-02  2.8156148E-02  2.3530659E-02
   40.0000  2.1496368E-02  2.7594804E-02  2.3097676E-02
