    Energy   (100,001)      (010,001)      (001,110)   
  -25.0000  1.6543010E-04  1.8504177E-04  1.7422199E-04
  -24.0000  1.7146753E-04  1.9200898E-04  1.8055592E-04
  -23.0000  1.7791166E-04  1.9947653E-04  1.8732143E-04
  -22.0000  1.8480335E-04  2.0749899E-04  1.9456272E-04
  -21.0000  1.9218903E-04  2.1613903E-04  2.0233010E-04
  -20.0000  2.0012165E-04  2.2546901E-04  2.1068115E-04
  -19.0000  2.0866187E-04  2.3557285E-04  2.1968199E-04
  -18.0000  2.1787950E-04  2.4654850E-04  2.2940896E-04
  -17.0000  2.2785528E-04  2.5851087E-04  2.3995063E-04
  -16.0000  2.3868309E-04  2.7159567E-04  2.5141040E-04
  -15.0000  2.5047274E-04  2.8596433E-04  2.6390961E-04
  -14.0000  2.6335349E-04  3.0181023E-04  2.7759165E-04
  -13.0000  2.7747851E-04  3.1936703E-04  2.9262722E-04
  -12.0000  2.9303073E-04  3.3891953E-04  3.0922101E-04
  -11.0000  3.1023042E-04  3.6081835E-04  3.2762071E-04
  -10.0000  3.2934528E-04  3.8549987E-04  3.4812882E-04
  -9.00000  3.5070408E-04  4.1351385E-04  3.7111876E-04
  -8.00000  3.7471522E-04  4.4556243E-04  3.9705696E-04
  -7.00000  4.0189289E-04  4.8255619E-04  4.2653397E-04
  -6.00000  4.3289432E-04  5.2569699E-04  4.6030894E-04
  -5.00000  4.6857473E-04  5.7660347E-04  4.9937530E-04
  -4.00000  5.1007051E-04  6.3750758E-04  5.4506028E-04
  -3.00000  5.5893072E-04  7.1157432E-04  5.9918156E-04
  -2.00000  6.1733455E-04  8.0344637E-04  6.6430479E-04
  -1.00000  6.8847402E-04  9.2022724E-04  7.4419085E-04
   0.00000  7.7728318E-04  1.0733921E-03  8.4463047E-04
   1.00000  8.9198777E-04  1.2828909E-03  9.7515883E-04
   2.00000  1.0479529E-03  1.5872996E-03  1.1530990E-03
   3.00000  1.2797744E-03  2.0749997E-03  1.4153471E-03
   4.00000  1.6963499E-03  3.0202740E-03  1.8669931E-03
   5.00000  2.7712201E-03  5.5886129E-03  2.9283109E-03
   5.20000  3.1026158E-03  6.4113336E-03  3.2630271E-03
   5.40000  3.4341543E-03  7.2658095E-03  3.6223991E-03
   5.60000  3.7556894E-03  8.1368120E-03  4.0045852E-03
   5.80000  4.0699927E-03  9.0364707E-03  4.4159199E-03
   6.00000  4.3839944E-03  9.9847481E-03  4.8642724E-03
   6.20000  4.7046193E-03  1.1000393E-02  5.3555762E-03
   6.40000  5.0379293E-03  1.2099342E-02  5.8926267E-03
   6.60000  5.3891972E-03  1.3295475E-02  6.4747701E-03
   6.80000  5.7630287E-03  1.4601853E-02  7.0984410E-03
   7.00000  6.1634199E-03  1.6031970E-02  7.7590505E-03
   7.20000  6.5938310E-03  1.7600799E-02  8.4541924E-03
   7.40000  7.0573046E-03  1.9324930E-02  9.1868346E-03
   7.60000  7.5566503E-03  2.1220823E-02  9.9663110E-03
   7.80000  8.0947033E-03  2.3300729E-02  1.0806006E-02
   8.00000  8.6746146E-03  2.5566883E-02  1.1719039E-02
   8.20000  9.3000742E-03  2.8005396E-02  1.2714539E-02
   8.40000  9.9753602E-03  3.0581873E-02  1.3796144E-02
   8.60000  1.0705160E-02  3.3241433E-02  1.4962581E-02
   8.80000  1.1494153E-02  3.5915788E-02  1.6209120E-02
   9.00000  1.2346396E-02  3.8537550E-02  1.7528770E-02
   9.20000  1.3264680E-02  4.1056598E-02  1.8912508E-02
   9.40000  1.4250088E-02  4.3448864E-02  2.0348510E-02
   9.60000  1.5301937E-02  4.5710106E-02  2.1821000E-02
   9.80000  1.6418232E-02  4.7836937E-02  2.3309605E-02
   10.0000  1.7596535E-02  4.9806441E-02  2.4789992E-02
   10.2500  1.9153241E-02  5.1960317E-02  2.6588802E-02
   10.5000  2.0798431E-02  5.3600579E-02  2.8285011E-02
   10.7500  2.2523672E-02  5.4511050E-02  2.9843209E-02
   11.0000  2.4314877E-02  5.4535055E-02  3.1250535E-02
   11.2500  2.6150028E-02  5.3649747E-02  3.2517506E-02
   11.5000  2.7996157E-02  5.1969197E-02  3.3669477E-02
   11.7500  2.9807829E-02  4.9694939E-02  3.4733045E-02
   12.0000  3.1529509E-02  4.7053937E-02  3.5722891E-02
   12.2500  3.3102406E-02  4.4251726E-02  3.6635234E-02
   12.5000  3.4474270E-02  4.1449091E-02  3.7450498E-02
   12.7500  3.5609413E-02  3.8758060E-02  3.8143348E-02
   13.0000  3.6495405E-02  3.6248495E-02  3.8694030E-02
   13.2500  3.7143975E-02  3.3957807E-02  3.9094972E-02
   13.5000  3.7586886E-02  3.1900227E-02  3.9352651E-02
   13.7500  3.7868868E-02  3.0074509E-02  3.9486641E-02
   14.0000  3.8039795E-02  2.8469845E-02  3.9526489E-02
   14.2500  3.8147923E-02  2.7070110E-02  3.9507149E-02
   14.5000  3.8235120E-02  2.5856812E-02  3.9464073E-02
   14.7500  3.8334210E-02  2.4811062E-02  3.9428975E-02
   15.0000  3.8468055E-02  2.3914844E-02  3.9426828E-02
   15.2500  3.8649806E-02  2.3151770E-02  3.9474174E-02
   15.5000  3.8883817E-02  2.2507452E-02  3.9578585E-02
   15.7500  3.9166875E-02  2.1969597E-02  3.9738984E-02
   16.0000  3.9489568E-02  2.1527881E-02  3.9946622E-02
   16.2500  3.9837748E-02  2.1173693E-02  4.0186527E-02
   16.5000  4.0194111E-02  2.0899807E-02  4.0439320E-02
   16.7500  4.0539895E-02  2.0700038E-02  4.0683274E-02
   17.0000  4.0856680E-02  2.0568930E-02  4.0896461E-02
   17.2500  4.1128189E-02  2.0501516E-02  4.1058811E-02
   17.5000  4.1341894E-02  2.0493150E-02  4.1153869E-02
   17.7500  4.1490231E-02  2.0539412E-02  4.1170070E-02
   18.0000  4.1571188E-02  2.0636081E-02  4.1101393E-02
   18.2500  4.1588181E-02  2.0779147E-02  4.0947376E-02
   18.5000  4.1549231E-02  2.0964844E-02  4.0712529E-02
   18.7500  4.1465635E-02  2.1189702E-02  4.0405304E-02
   19.0000  4.1350370E-02  2.1450603E-02  4.0036798E-02
   19.2500  4.1216534E-02  2.1744837E-02  3.9619370E-02
   19.5000  4.1076009E-02  2.2070159E-02  3.9165349E-02
   19.7500  4.0938511E-02  2.2424765E-02  3.8686043E-02
   20.0000  4.0811115E-02  2.2807092E-02  3.8191300E-02
   21.0000  4.0460643E-02  2.4573795E-02  3.6215744E-02
   22.0000  4.0298736E-02  2.6614762E-02  3.4464311E-02
   23.0000  4.0018862E-02  2.8768758E-02  3.2988885E-02
   24.0000  3.9256765E-02  3.0809533E-02  3.1734087E-02
   25.0000  3.7780020E-02  3.2478829E-02  3.0636136E-02
   26.0000  3.5645303E-02  3.3576667E-02  2.9646272E-02
   27.0000  3.3203381E-02  3.4047235E-02  2.8746589E-02
   28.0000  3.0845043E-02  3.3988750E-02  2.7947786E-02
   29.0000  2.8836037E-02  3.3558292E-02  2.7287251E-02
   30.0000  2.7280600E-02  3.2902301E-02  2.6798663E-02
   31.0000  2.6157772E-02  3.2137198E-02  2.6479704E-02
   32.0000  2.5380520E-02  3.1342187E-02  2.6289229E-02
   33.0000  2.4840227E-02  3.0557124E-02  2.6165834E-02
   34.0000  2.4431249E-02  2.9789641E-02  2.6047102E-02
   35.0000  2.4062593E-02  2.9029228E-02  2.5880334E-02
   36.0000  2.3665461E-02  2.8262849E-02  2.5627295E-02
   37.0000  2.3202278E-02  2.7487920E-02  2.5268739E-02
   38.0000  2.2676791E-02  2.6721358E-02  2.4813174E-02
   39.0000  2.2139161E-02  2.6007536E-02  2.4310564E-02
   40.0000  2.1673721E-02  2.5420035E-02  2.3856511E-02
