    Energy   (100,001)      (010,001)      (001,110)   
  -25.0000  1.7109692E-04  1.8252946E-04  1.7844692E-04
  -24.0000  1.7716482E-04  1.8948270E-04  1.8494665E-04
  -23.0000  1.8363861E-04  1.9693904E-04  1.9189665E-04
  -22.0000  1.9055924E-04  2.0495364E-04  1.9934427E-04
  -21.0000  1.9797333E-04  2.1358988E-04  2.0734369E-04
  -20.0000  2.0593409E-04  2.2292097E-04  2.1595715E-04
  -19.0000  2.1450257E-04  2.3303189E-04  2.2525655E-04
  -18.0000  2.2374915E-04  2.4402184E-04  2.3532534E-04
  -17.0000  2.3375538E-04  2.5600729E-04  2.4626097E-04
  -16.0000  2.4461627E-04  2.6912588E-04  2.5817792E-04
  -15.0000  2.5644319E-04  2.8354141E-04  2.7121163E-04
  -14.0000  2.6936755E-04  2.9945024E-04  2.8552345E-04
  -13.0000  2.8354550E-04  3.1708976E-04  3.0130720E-04
  -12.0000  2.9916406E-04  3.3674952E-04  3.1879777E-04
  -11.0000  3.1644918E-04  3.5878619E-04  3.3828263E-04
  -10.0000  3.3567643E-04  3.8364399E-04  3.6011738E-04
  -9.00000  3.5718556E-04  4.1188290E-04  3.8474743E-04
  -8.00000  3.8140054E-04  4.4421855E-04  4.1273825E-04
  -7.00000  4.0885772E-04  4.8157961E-04  4.4481915E-04
  -6.00000  4.4024645E-04  5.2519252E-04  4.8194767E-04
  -5.00000  4.7646917E-04  5.7670996E-04  5.2540747E-04
  -4.00000  5.1873332E-04  6.3841209E-04  5.7696182E-04
  -3.00000  5.6869748E-04  7.1353405E-04  6.3910438E-04
  -2.00000  6.2871531E-04  8.0682445E-04  7.1548869E-04
  -1.00000  7.0226869E-04  9.2555521E-04  8.1170852E-04
   0.00000  7.9480080E-04  1.0814914E-03  9.3682626E-04
   1.00000  9.1550448E-04  1.2951497E-03  1.1066793E-03
   2.00000  1.0818086E-03  1.6064687E-03  1.3521038E-03
   3.00000  1.3336273E-03  2.1083532E-03  1.7442113E-03
   4.00000  1.7989302E-03  3.0987363E-03  2.5041466E-03
   5.00000  3.0400485E-03  5.8664304E-03  4.5492387E-03
   5.20000  3.4237638E-03  6.7205169E-03  5.1853924E-03
   5.40000  3.8049972E-03  7.5629881E-03  5.8405500E-03
   5.60000  4.1711478E-03  8.3727143E-03  6.5194014E-03
   5.80000  4.5248181E-03  9.1672988E-03  7.2536086E-03
   6.00000  4.8735628E-03  9.9755969E-03  8.0813462E-03
   6.20000  5.2251847E-03  1.0825191E-02  9.0391975E-03
   6.40000  5.5867832E-03  1.1740421E-02  1.0161088E-02
   6.60000  5.9648351E-03  1.2743671E-02  1.1477898E-02
   6.80000  6.3653213E-03  1.3856978E-02  1.3014788E-02
   7.00000  6.7937018E-03  1.5103281E-02  1.4784515E-02
   7.20000  7.2547907E-03  1.6507213E-02  1.6775606E-02
   7.40000  7.7527330E-03  1.8095349E-02  1.8936154E-02
   7.60000  8.2913443E-03  1.9895803E-02  2.1158524E-02
   7.80000  8.8749687E-03  2.1937082E-02  2.3276690E-02
   8.00000  9.5096324E-03  2.4246223E-02  2.5090014E-02
   8.20000  1.0203801E-02  2.6846258E-02  2.6415716E-02
   8.40000  1.0968025E-02  2.9753023E-02  2.7148857E-02
   8.60000  1.1813499E-02  3.2971359E-02  2.7295737E-02
   8.80000  1.2750318E-02  3.6490722E-02  2.6962919E-02
   9.00000  1.3786140E-02  4.0279722E-02  2.6314298E-02
   9.20000  1.4925265E-02  4.4278578E-02  2.5522912E-02
   9.40000  1.6167759E-02  4.8389059E-02  2.4736645E-02
   9.60000  1.7508489E-02  5.2463956E-02  2.4062718E-02
   9.80000  1.8936248E-02  5.6301279E-02  2.3566738E-02
   10.0000  2.0433208E-02  5.9650395E-02  2.3279623E-02
   10.2500  2.2363874E-02  6.2733443E-02  2.3221646E-02
   10.5000  2.4304610E-02  6.4157175E-02  2.3475882E-02
   10.7500  2.6189973E-02  6.3685076E-02  2.3999713E-02
   11.0000  2.7956490E-02  6.1426209E-02  2.4739876E-02
   11.2500  2.9549670E-02  5.7805717E-02  2.5637813E-02
   11.5000  3.0930541E-02  5.3404941E-02  2.6633128E-02
   11.7500  3.2080362E-02  4.8774419E-02  2.7666153E-02
   12.0000  3.3000324E-02  4.4317352E-02  2.8680718E-02
   12.2500  3.3707649E-02  4.0265457E-02  2.9628245E-02
   12.5000  3.4231567E-02  3.6712799E-02  3.0472450E-02
   12.7500  3.4609059E-02  3.3665762E-02  3.1192269E-02
   13.0000  3.4880093E-02  3.1085673E-02  3.1782370E-02
   13.2500  3.5083266E-02  2.8916630E-02  3.2251779E-02
   13.5000  3.5252646E-02  2.7100143E-02  3.2620639E-02
   13.7500  3.5415872E-02  2.5581781E-02  3.2915724E-02
   14.0000  3.5593214E-02  2.4313859E-02  3.3165923E-02
   14.2500  3.5797324E-02  2.3256155E-02  3.3398622E-02
   14.5000  3.6033511E-02  2.2375574E-02  3.3637305E-02
   14.7500  3.6300433E-02  2.1645323E-02  3.3900202E-02
   15.0000  3.6591126E-02  2.1043906E-02  3.4199697E-02
   15.2500  3.6894327E-02  2.0554133E-02  3.4542193E-02
   15.5000  3.7196017E-02  2.0162235E-02  3.4928247E-02
   15.7500  3.7481084E-02  1.9857131E-02  3.5352907E-02
   16.0000  3.7735012E-02  1.9629831E-02  3.5806245E-02
   16.2500  3.7945437E-02  1.9472987E-02  3.6274133E-02
   16.5000  3.8103421E-02  1.9380532E-02  3.6739315E-02
   16.7500  3.8204276E-02  1.9347422E-02  3.7182785E-02
   17.0000  3.8247840E-02  1.9369411E-02  3.7585384E-02
   17.2500  3.8238188E-02  1.9442872E-02  3.7929491E-02
   17.5000  3.8182853E-02  1.9564645E-02  3.8200584E-02
   17.7500  3.8091723E-02  1.9731885E-02  3.8388444E-02
   18.0000  3.7975798E-02  1.9941944E-02  3.8487838E-02
   18.2500  3.7845998E-02  2.0192261E-02  3.8498590E-02
   18.5000  3.7712176E-02  2.0480294E-02  3.8425093E-02
   18.7500  3.7582406E-02  2.0803487E-02  3.8275392E-02
   19.0000  3.7462582E-02  2.1159291E-02  3.8060008E-02
   19.2500  3.7356294E-02  2.1545249E-02  3.7790697E-02
   19.5000  3.7264932E-02  2.1959106E-02  3.7479299E-02
   19.7500  3.7187931E-02  2.2398871E-02  3.7136852E-02
   20.0000  3.7123078E-02  2.2862688E-02  3.6773184E-02
   21.0000  3.6902336E-02  2.4910024E-02  3.5268482E-02
   22.0000  3.6516571E-02  2.7146366E-02  3.3919277E-02
   23.0000  3.5742513E-02  2.9416257E-02  3.2789921E-02
   24.0000  3.4542086E-02  3.1501851E-02  3.1808785E-02
   25.0000  3.3071426E-02  3.3149116E-02  3.0897382E-02
   26.0000  3.1581063E-02  3.4176515E-02  3.0014770E-02
   27.0000  3.0252362E-02  3.4554645E-02  2.9159973E-02
   28.0000  2.9106522E-02  3.4386673E-02  2.8364383E-02
   29.0000  2.8073353E-02  3.3830384E-02  2.7674545E-02
   30.0000  2.7114809E-02  3.3035773E-02  2.7125202E-02
   31.0000  2.6257890E-02  3.2127587E-02  2.6718126E-02
   32.0000  2.5544016E-02  3.1199760E-02  2.6421674E-02
   33.0000  2.4985196E-02  3.0293973E-02  2.6191230E-02
   34.0000  2.4567255E-02  2.9415437E-02  2.5987444E-02
   35.0000  2.4265785E-02  2.8555096E-02  2.5784369E-02
   36.0000  2.4055707E-02  2.7700976E-02  2.5569959E-02
   37.0000  2.3915122E-02  2.6847642E-02  2.5341054E-02
   38.0000  2.3825440E-02  2.6008088E-02  2.5098767E-02
   39.0000  2.3769755E-02  2.5227865E-02  2.4853778E-02
   40.0000  2.3732422E-02  2.4586813E-02  2.4637448E-02
