    Energy   (100,001)      (010,001)      (001,110)   
  -25.0000  1.6846425E-04  1.8299721E-04  1.7955128E-04
  -24.0000  1.7468173E-04  1.8999170E-04  1.8633644E-04
  -23.0000  1.8132593E-04  1.9749368E-04  1.9360691E-04
  -22.0000  1.8844066E-04  2.0555894E-04  2.0141522E-04
  -21.0000  1.9607585E-04  2.1425162E-04  2.0982168E-04
  -20.0000  2.0428858E-04  2.2364584E-04  2.1889581E-04
  -19.0000  2.1314449E-04  2.3382768E-04  2.2871824E-04
  -18.0000  2.2271933E-04  2.4489766E-04  2.3938293E-04
  -17.0000  2.3310102E-04  2.5697389E-04  2.5100008E-04
  -16.0000  2.4439216E-04  2.7019601E-04  2.6369976E-04
  -15.0000  2.5671324E-04  2.8473029E-04  2.7763660E-04
  -14.0000  2.7020664E-04  3.0077623E-04  2.9299585E-04
  -13.0000  2.8504182E-04  3.1857516E-04  3.1000132E-04
  -12.0000  3.0142210E-04  3.3842167E-04  3.2892598E-04
  -11.0000  3.1959347E-04  3.6067899E-04  3.5010623E-04
  -10.0000  3.3985642E-04  3.8579988E-04  3.7396149E-04
  -9.00000  3.6258190E-04  4.1435573E-04  4.0102155E-04
  -8.00000  3.8823336E-04  4.4707753E-04  4.3196561E-04
  -7.00000  4.1739758E-04  4.8491501E-04  4.6767925E-04
  -6.00000  4.5082900E-04  5.2912408E-04  5.0933999E-04
  -5.00000  4.8951499E-04  5.8139943E-04  5.5854964E-04
  -4.00000  5.3477493E-04  6.4408261E-04  6.1754709E-04
  -3.00000  5.8841612E-04  7.2050071E-04  6.8956540E-04
  -2.00000  6.5299043E-04  8.1554425E-04  7.7946443E-04
  -1.00000  7.3224080E-04  9.3671131E-04  8.9492751E-04
   0.00000  8.3193705E-04  1.0961398E-03  1.0489236E-03
   1.00000  9.6160292E-04  1.3149795E-03  1.2653610E-03
   2.00000  1.1386331E-03  1.6342439E-03  1.5941768E-03
   3.00000  1.4005312E-03  2.1483464E-03  2.1614402E-03
   4.00000  1.8570832E-03  3.1530603E-03  3.4021404E-03
   5.00000  2.9565452E-03  5.9115520E-03  7.3853512E-03
   5.20000  3.2962103E-03  6.7858732E-03  8.8134897E-03
   5.40000  3.6488807E-03  7.6804197E-03  1.0377778E-02
   5.60000  4.0099675E-03  8.5771755E-03  1.2016536E-02
   5.80000  4.3861324E-03  9.4904489E-03  1.3658683E-02
   6.00000  4.7872558E-03  1.0444002E-02  1.5199165E-02
   6.20000  5.2221721E-03  1.1460342E-02  1.6510060E-02
   6.40000  5.6973586E-03  1.2558520E-02  1.7486206E-02
   6.60000  6.2170885E-03  1.3754397E-02  1.8096003E-02
   6.80000  6.7844090E-03  1.5061424E-02  1.8397838E-02
   7.00000  7.4021784E-03  1.6491893E-02  1.8507984E-02
   7.20000  8.0734732E-03  1.8058898E-02  1.8547524E-02
   7.40000  8.8013227E-03  1.9778853E-02  1.8607581E-02
   7.60000  9.5881291E-03  2.1673398E-02  1.8746236E-02
   7.80000  1.0434998E-02  2.3769348E-02  1.9001334E-02
   8.00000  1.1341265E-02  2.6096925E-02  1.9399279E-02
   8.20000  1.2304998E-02  2.8686952E-02  1.9954689E-02
   8.40000  1.3325294E-02  3.1566810E-02  2.0667343E-02
   8.60000  1.4406313E-02  3.4754396E-02  2.1523116E-02
   8.80000  1.5561201E-02  3.8249283E-02  2.2500024E-02
   9.00000  1.6812921E-02  4.2020863E-02  2.3575231E-02
   9.20000  1.8190042E-02  4.5994825E-02  2.4727843E-02
   9.40000  1.9718629E-02  5.0041874E-02  2.5936980E-02
   9.60000  2.1413532E-02  5.3974195E-02  2.7180379E-02
   9.80000  2.3271672E-02  5.7552856E-02  2.8437946E-02
   10.0000  2.5267710E-02  6.0506227E-02  2.9696214E-02
   10.2500  2.7878093E-02  6.2911855E-02  3.1255747E-02
   10.5000  3.0475720E-02  6.3537398E-02  3.2778273E-02
   10.7500  3.2878097E-02  6.2303485E-02  3.4230808E-02
   11.0000  3.4908448E-02  5.9485223E-02  3.5571491E-02
   11.2500  3.6440242E-02  5.5599436E-02  3.6748505E-02
   11.5000  3.7428072E-02  5.1212236E-02  3.7703676E-02
   11.7500  3.7910745E-02  4.6786786E-02  3.8385461E-02
   12.0000  3.7987586E-02  4.2625364E-02  3.8765040E-02
   12.2500  3.7783292E-02  3.8883021E-02  3.8844864E-02
   12.5000  3.7418270E-02  3.5609999E-02  3.8658025E-02
   12.7500  3.6991636E-02  3.2794967E-02  3.8261114E-02
   13.0000  3.6575227E-02  3.0397414E-02  3.7723057E-02
   13.2500  3.6215125E-02  2.8367131E-02  3.7113670E-02
   13.5000  3.5937250E-02  2.6653938E-02  3.6495255E-02
   13.7500  3.5753498E-02  2.5211924E-02  3.5918098E-02
   14.0000  3.5666479E-02  2.4000967E-02  3.5419045E-02
   14.2500  3.5672686E-02  2.2986939E-02  3.5022001E-02
   14.5000  3.5764473E-02  2.2141271E-02  3.4739370E-02
   14.7500  3.5931268E-02  2.1440266E-02  3.4573751E-02
   15.0000  3.6160309E-02  2.0864351E-02  3.4519544E-02
   15.2500  3.6437143E-02  2.0397368E-02  3.4564386E-02
   15.5000  3.6746050E-02  2.0025938E-02  3.4690512E-02
   15.7500  3.7070557E-02  1.9738920E-02  3.4876185E-02
   16.0000  3.7394144E-02  1.9526968E-02  3.5097343E-02
   16.2500  3.7701192E-02  1.9382170E-02  3.5329463E-02
   16.5000  3.7978126E-02  1.9297775E-02  3.5549514E-02
   16.7500  3.8214593E-02  1.9267983E-02  3.5737757E-02
   17.0000  3.8404447E-02  1.9287792E-02  3.5879114E-02
   17.2500  3.8546283E-02  1.9352886E-02  3.5963884E-02
   17.5000  3.8643335E-02  1.9459545E-02  3.5987758E-02
   17.7500  3.8702689E-02  1.9604572E-02  3.5951204E-02
   18.0000  3.8733970E-02  1.9785232E-02  3.5858447E-02
   18.2500  3.8747767E-02  1.9999184E-02  3.5716270E-02
   18.5000  3.8754113E-02  2.0244427E-02  3.5532856E-02
   18.7500  3.8761303E-02  2.0519253E-02  3.5316797E-02
   19.0000  3.8775176E-02  2.0822224E-02  3.5076336E-02
   19.2500  3.8798884E-02  2.1152176E-02  3.4818843E-02
   19.5000  3.8833068E-02  2.1508238E-02  3.4550485E-02
   19.7500  3.8876250E-02  2.1889798E-02  3.4276096E-02
   20.0000  3.8925269E-02  2.2296318E-02  3.3999298E-02
   21.0000  3.9076457E-02  2.4148803E-02  3.2916161E-02
   22.0000  3.8879061E-02  2.6293259E-02  3.1923336E-02
   23.0000  3.8026121E-02  2.8618206E-02  3.1009919E-02
   24.0000  3.6380257E-02  3.0939578E-02  3.0135430E-02
   25.0000  3.4111706E-02  3.2978070E-02  2.9270341E-02
   26.0000  3.1651243E-02  3.4444662E-02  2.8421115E-02
   27.0000  2.9387731E-02  3.5222082E-02  2.7626908E-02
   28.0000  2.7535296E-02  3.5362667E-02  2.6948411E-02
   29.0000  2.6156612E-02  3.5008432E-02  2.6438727E-02
   30.0000  2.5212510E-02  3.4322635E-02  2.6112947E-02
   31.0000  2.4608995E-02  3.3444162E-02  2.5941029E-02
   32.0000  2.4237601E-02  3.2469928E-02  2.5863835E-02
   33.0000  2.4001012E-02  3.1456209E-02  2.5815920E-02
   34.0000  2.3821379E-02  3.0428275E-02  2.5741149E-02
   35.0000  2.3637719E-02  2.9392989E-02  2.5598541E-02
   36.0000  2.3404120E-02  2.8352361E-02  2.5363103E-02
   37.0000  2.3096124E-02  2.7316245E-02  2.5027328E-02
   38.0000  2.2721429E-02  2.6313361E-02  2.4607569E-02
   39.0000  2.2324819E-02  2.5401143E-02  2.4154636E-02
   40.0000  2.1977040E-02  2.4664125E-02  2.3753344E-02
