    Energy   (100,001)      (010,001)      (001,110)   
  -25.0000  1.6591961E-04  1.8551429E-04  1.6755819E-04
  -24.0000  1.7227079E-04  1.9229945E-04  1.7403039E-04
  -23.0000  1.7907199E-04  1.9956132E-04  1.8096472E-04
  -22.0000  1.8637079E-04  2.0735103E-04  1.8841034E-04
  -21.0000  1.9422157E-04  2.1572717E-04  1.9642349E-04
  -20.0000  2.0268675E-04  2.2475729E-04  2.0506876E-04
  -19.0000  2.1183832E-04  2.3451959E-04  2.1442070E-04
  -18.0000  2.2175973E-04  2.4510509E-04  2.2456579E-04
  -17.0000  2.3254821E-04  2.5662042E-04  2.3560486E-04
  -16.0000  2.4431775E-04  2.6919120E-04  2.4765623E-04
  -15.0000  2.5720277E-04  2.8296651E-04  2.6085955E-04
  -14.0000  2.7136292E-04  2.9812451E-04  2.7538084E-04
  -13.0000  2.8698918E-04  3.1487987E-04  2.9141890E-04
  -12.0000  3.0431193E-04  3.3349356E-04  3.0921379E-04
  -11.0000  3.2361151E-04  3.5428590E-04  3.2905796E-04
  -10.0000  3.4523244E-04  3.7765431E-04  3.5131132E-04
  -9.00000  3.6960285E-04  4.0409779E-04  3.7642167E-04
  -8.00000  3.9726126E-04  4.3425133E-04  4.0495318E-04
  -7.00000  4.2889457E-04  4.6893523E-04  4.3762666E-04
  -6.00000  4.6539287E-04  5.0922759E-04  4.7537787E-04
  -5.00000  5.0793080E-04  5.5657368E-04  5.1944429E-04
  -4.00000  5.5809190E-04  6.1295643E-04  5.7149801E-04
  -3.00000  6.1806569E-04  6.8117224E-04  6.3385697E-04
  -2.00000  6.9097434E-04  7.6529864E-04  7.0983562E-04
  -1.00000  7.8144460E-04  8.7153412E-04  8.0436004E-04
   0.00000  8.9668445E-04  1.0098233E-03  9.2512577E-04
   1.00000  1.0487186E-03  1.1973363E-03  1.0849951E-03
   2.00000  1.2597383E-03  1.4670740E-03  1.3076884E-03
   3.00000  1.5780616E-03  1.8944189E-03  1.6444800E-03
   4.00000  2.1465362E-03  2.7143741E-03  2.2437887E-03
   5.00000  3.5515637E-03  4.9275275E-03  3.6989231E-03
   5.20000  3.9856231E-03  5.6238043E-03  4.1498737E-03
   5.40000  4.4317744E-03  6.3340780E-03  4.6220061E-03
   5.60000  4.8819250E-03  7.0447354E-03  5.1136048E-03
   5.80000  5.3430458E-03  7.7689011E-03  5.6390528E-03
   6.00000  5.8271956E-03  8.5279033E-03  6.2176656E-03
   6.20000  6.3469431E-03  9.3422824E-03  6.8676331E-03
   6.40000  6.9144937E-03  1.0229330E-02  7.6035469E-03
   6.60000  7.5417751E-03  1.1202305E-02  8.4347318E-03
   6.80000  8.2405329E-03  1.2269864E-02  9.3636382E-03
   7.00000  9.0222418E-03  1.3436007E-02  1.0385088E-02
   7.20000  9.8978039E-03  1.4701403E-02  1.1488047E-02
   7.40000  1.0877130E-02  1.6066375E-02  1.2661173E-02
   7.60000  1.1968802E-02  1.7534184E-02  1.3901086E-02
   7.80000  1.3180009E-02  1.9112029E-02  1.5219152E-02
   8.00000  1.4516890E-02  2.0808345E-02  1.6641856E-02
   8.20000  1.5985332E-02  2.2628521E-02  1.8202990E-02
   8.40000  1.7591950E-02  2.4573661E-02  1.9930551E-02
   8.60000  1.9344683E-02  2.6644950E-02  2.1834315E-02
   8.80000  2.1252402E-02  2.8850909E-02  2.3899855E-02
   9.00000  2.3322771E-02  3.1211368E-02  2.6089608E-02
   9.20000  2.5557886E-02  3.3752356E-02  2.8346845E-02
   9.40000  2.7947921E-02  3.6489736E-02  3.0600138E-02
   9.60000  3.0462818E-02  3.9409150E-02  3.2768643E-02
   9.80000  3.3043014E-02  4.2453772E-02  3.4769704E-02
   10.0000  3.5593102E-02  4.5521080E-02  3.6529296E-02
   10.2500  3.8542018E-02  4.9162589E-02  3.8309600E-02
   10.5000  4.0974021E-02  5.2264531E-02  3.9589749E-02
   10.7500  4.2684668E-02  5.4479680E-02  4.0405012E-02
   11.0000  4.3604398E-02  5.5548416E-02  4.0842035E-02
   11.2500  4.3803142E-02  5.5371066E-02  4.0998059E-02
   11.5000  4.3441577E-02  5.4033094E-02  4.0952598E-02
   11.7500  4.2708701E-02  5.1771212E-02  4.0762285E-02
   12.0000  4.1777680E-02  4.8898875E-02  4.0467300E-02
   12.2500  4.0786574E-02  4.5727524E-02  4.0098037E-02
   12.5000  3.9834465E-02  4.2512257E-02  3.9680166E-02
   12.7500  3.8984965E-02  3.9430281E-02  3.9238318E-02
   13.0000  3.8273040E-02  3.6584786E-02  3.8797785E-02
   13.2500  3.7712240E-02  3.4022077E-02  3.8383149E-02
   13.5000  3.7300751E-02  3.1751351E-02  3.8015344E-02
   13.7500  3.7026013E-02  2.9760804E-02  3.7710192E-02
   14.0000  3.6868298E-02  2.8028545E-02  3.7478417E-02
   14.2500  3.6803749E-02  2.6529047E-02  3.7326164E-02
   14.5000  3.6806870E-02  2.5236601E-02  3.7255525E-02
   14.7500  3.6852325E-02  2.4127124E-02  3.7264891E-02
   15.0000  3.6916176E-02  2.3179022E-02  3.7349219E-02
   15.2500  3.6976709E-02  2.2373485E-02  3.7500313E-02
   15.5000  3.7015000E-02  2.1694426E-02  3.7707181E-02
   15.7500  3.7015291E-02  2.1128229E-02  3.7956445E-02
   16.0000  3.6965234E-02  2.0663407E-02  3.8232836E-02
   16.2500  3.6856087E-02  2.0290244E-02  3.8519762E-02
   16.5000  3.6682851E-02  2.0000461E-02  3.8799986E-02
   16.7500  3.6444363E-02  1.9786923E-02  3.9056433E-02
   17.0000  3.6143270E-02  1.9643411E-02  3.9273106E-02
   17.2500  3.5785864E-02  1.9564435E-02  3.9436070E-02
   17.5000  3.5381693E-02  1.9545104E-02  3.9534391E-02
   17.7500  3.4942973E-02  1.9581027E-02  3.9560889E-02
   18.0000  3.4483813E-02  1.9668247E-02  3.9512561E-02
   18.2500  3.4019314E-02  1.9803184E-02  3.9390591E-02
   18.5000  3.3564640E-02  1.9982605E-02  3.9199918E-02
   18.7500  3.3134151E-02  2.0203599E-02  3.8948432E-02
   19.0000  3.2740650E-02  2.0463571E-02  3.8645936E-02
   19.2500  3.2394815E-02  2.0760254E-02  3.8303011E-02
   19.5000  3.2104802E-02  2.1091726E-02  3.7929951E-02
   19.7500  3.1876023E-02  2.1456361E-02  3.7535938E-02
   20.0000  3.1711134E-02  2.1852619E-02  3.7128659E-02
   21.0000  3.1665440E-02  2.3709399E-02  3.5478084E-02
   22.0000  3.2363674E-02  2.5880272E-02  3.3909200E-02
   23.0000  3.3267755E-02  2.8198805E-02  3.2378695E-02
   24.0000  3.3766925E-02  3.0437840E-02  3.0810161E-02
   25.0000  3.3439215E-02  3.2326536E-02  2.9218054E-02
   26.0000  3.2236806E-02  3.3705618E-02  2.7677629E-02
   27.0000  3.0467328E-02  3.4535100E-02  2.6281243E-02
   28.0000  2.8563862E-02  3.4860245E-02  2.5101064E-02
   29.0000  2.6849721E-02  3.4779241E-02  2.4167779E-02
   30.0000  2.5461703E-02  3.4404393E-02  2.3469828E-02
   31.0000  2.4398309E-02  3.3834288E-02  2.2964028E-02
   32.0000  2.3593881E-02  3.3142196E-02  2.2590664E-02
   33.0000  2.2968956E-02  3.2375752E-02  2.2288291E-02
   34.0000  2.2454112E-02  3.1562610E-02  2.2004904E-02
   35.0000  2.1998651E-02  3.0718596E-02  2.1704678E-02
   36.0000  2.1573323E-02  2.9856689E-02  2.1372252E-02
   37.0000  2.1170131E-02  2.8995082E-02  2.1015069E-02
   38.0000  2.0798547E-02  2.8163699E-02  2.0661220E-02
   39.0000  2.0478130E-02  2.7411350E-02  2.0349438E-02
   40.0000  2.0227891E-02  2.6806286E-02  2.0109550E-02
