    Energy   (100,001)      (010,001)      (001,110)   
  -25.0000  1.6883506E-04  1.8727815E-04  1.7536401E-04
  -24.0000  1.7529275E-04  1.9411322E-04  1.8208003E-04
  -23.0000  1.8220837E-04  2.0142766E-04  1.8927719E-04
  -22.0000  1.8963047E-04  2.0927278E-04  1.9700724E-04
  -21.0000  1.9761455E-04  2.1770744E-04  2.0532944E-04
  -20.0000  2.0622438E-04  2.2679941E-04  2.1431206E-04
  -19.0000  2.1553352E-04  2.3662719E-04  2.2403404E-04
  -18.0000  2.2562734E-04  2.4728211E-04  2.3458722E-04
  -17.0000  2.3660539E-04  2.5887115E-04  2.4607899E-04
  -16.0000  2.4858446E-04  2.7152032E-04  2.5863578E-04
  -15.0000  2.6170248E-04  2.8537912E-04  2.7240737E-04
  -14.0000  2.7612343E-04  3.0062617E-04  2.8757254E-04
  -13.0000  2.9204379E-04  3.1747669E-04  3.0434637E-04
  -12.0000  3.0970095E-04  3.3619223E-04  3.2298995E-04
  -11.0000  3.2938434E-04  3.5709373E-04  3.4382326E-04
  -10.0000  3.5145044E-04  3.8057934E-04  3.6724271E-04
  -9.00000  3.7634336E-04  4.0714882E-04  3.9374544E-04
  -8.00000  4.0462343E-04  4.3743798E-04  4.2396341E-04
  -7.00000  4.3700784E-04  4.7226801E-04  4.5871247E-04
  -6.00000  4.7442980E-04  5.1271797E-04  4.9906488E-04
  -5.00000  5.1812692E-04  5.6023421E-04  5.4645916E-04
  -4.00000  5.6977752E-04  6.1680095E-04  6.0287275E-04
  -3.00000  6.3171887E-04  6.8521657E-04  6.7110399E-04
  -2.00000  7.0731326E-04  7.6956267E-04  7.5525557E-04
  -1.00000  8.0159810E-04  8.7604806E-04  8.6161456E-04
   0.00000  9.2253034E-04  1.0146476E-03  1.0003804E-03
   1.00000  1.0836216E-03  1.2026289E-03  1.1894153E-03
   2.00000  1.3103894E-03  1.4733438E-03  1.4636017E-03
   3.00000  1.6600926E-03  1.9036794E-03  1.9035779E-03
   4.00000  2.3084436E-03  2.7371979E-03  2.7588772E-03
   5.00000  3.9943941E-03  5.0245278E-03  5.0888263E-03
   5.20000  4.5165961E-03  5.7413684E-03  5.8635175E-03
   5.40000  5.0467227E-03  6.4645105E-03  6.7037237E-03
   5.60000  5.5752643E-03  7.1772280E-03  7.6069539E-03
   5.80000  6.1130176E-03  7.8906345E-03  8.5924019E-03
   6.00000  6.6769244E-03  8.6233074E-03  9.6845155E-03
   6.20000  7.2835693E-03  9.3921300E-03  1.0903236E-02
   6.40000  7.9479359E-03  1.0210890E-02  1.2258409E-02
   6.60000  8.6835820E-03  1.1091086E-02  1.3744413E-02
   6.80000  9.5028323E-03  1.2042925E-02  1.5334529E-02
   7.00000  1.0416746E-02  1.3076127E-02  1.6977302E-02
   7.20000  1.1434961E-02  1.4200615E-02  1.8598884E-02
   7.40000  1.2565479E-02  1.5427203E-02  2.0114637E-02
   7.60000  1.3814199E-02  1.6768326E-02  2.1448917E-02
   7.80000  1.5183799E-02  1.8238750E-02  2.2555348E-02
   8.00000  1.6672007E-02  1.9856233E-02  2.3427123E-02
   8.20000  1.8270135E-02  2.1641762E-02  2.4092674E-02
   8.40000  1.9963307E-02  2.3618686E-02  2.4601849E-02
   8.60000  2.1733090E-02  2.5810431E-02  2.5011928E-02
   8.80000  2.3561665E-02  2.8236732E-02  2.5378597E-02
   9.00000  2.5435400E-02  3.0908342E-02  2.5749441E-02
   9.20000  2.7345811E-02  3.3820326E-02  2.6158578E-02
   9.40000  2.9285978E-02  3.6944745E-02  2.6626158E-02
   9.60000  3.1240432E-02  4.0223889E-02  2.7162075E-02
   9.80000  3.3173930E-02  4.3564807E-02  2.7770908E-02
   10.0000  3.5029353E-02  4.6836551E-02  2.8457014E-02
   10.2500  3.7130616E-02  5.0574086E-02  2.9434230E-02
   10.5000  3.8864350E-02  5.3580977E-02  3.0558561E-02
   10.7500  4.0136564E-02  5.5530581E-02  3.1832397E-02
   11.0000  4.0914774E-02  5.6225385E-02  3.3229779E-02
   11.2500  4.1224497E-02  5.5655862E-02  3.4691268E-02
   11.5000  4.1134408E-02  5.3994444E-02  3.6130013E-02
   11.7500  4.0738793E-02  5.1531240E-02  3.7446362E-02
   12.0000  4.0140793E-02  4.8587822E-02  3.8549229E-02
   12.2500  3.9438712E-02  4.5448126E-02  3.9379681E-02
   12.5000  3.8716149E-02  4.2325224E-02  3.9924647E-02
   12.7500  3.8036096E-02  3.9358605E-02  4.0212252E-02
   13.0000  3.7439566E-02  3.6627187E-02  4.0295979E-02
   13.2500  3.6948392E-02  3.4166127E-02  4.0239113E-02
   13.5000  3.6569757E-02  3.1981813E-02  4.0103282E-02
   13.7500  3.6299778E-02  3.0063506E-02  3.9940887E-02
   14.0000  3.6126161E-02  2.8391570E-02  3.9791416E-02
   14.2500  3.6030997E-02  2.6942709E-02  3.9681259E-02
   14.5000  3.5993567E-02  2.5693048E-02  3.9625520E-02
   14.7500  3.5992700E-02  2.4619861E-02  3.9630252E-02
   15.0000  3.6008528E-02  2.3702470E-02  3.9694347E-02
   15.2500  3.6023582E-02  2.2922598E-02  3.9810897E-02
   15.5000  3.6023382E-02  2.2264416E-02  3.9968163E-02
   15.7500  3.5996688E-02  2.1714392E-02  4.0150358E-02
   16.0000  3.5935547E-02  2.1261063E-02  4.0338511E-02
   16.2500  3.5835231E-02  2.0894776E-02  4.0511586E-02
   16.5000  3.5694108E-02  2.0607415E-02  4.0647982E-02
   16.7500  3.5513443E-02  2.0392137E-02  4.0727344E-02
   17.0000  3.5297130E-02  2.0243120E-02  4.0732505E-02
   17.2500  3.5051340E-02  2.0155329E-02  4.0651224E-02
   17.5000  3.4784071E-02  2.0124307E-02  4.0477379E-02
   17.7500  3.4504612E-02  2.0146011E-02  4.0211359E-02
   18.0000  3.4222961E-02  2.0216678E-02  3.9859592E-02
   18.2500  3.3949214E-02  2.0332757E-02  3.9433346E-02
   18.5000  3.3693011E-02  2.0490863E-02  3.8947081E-02
   18.7500  3.3463052E-02  2.0687793E-02  3.8416696E-02
   19.0000  3.3266735E-02  2.0920556E-02  3.7857928E-02
   19.2500  3.3109912E-02  2.1186446E-02  3.7285078E-02
   19.5000  3.2996745E-02  2.1483118E-02  3.6710133E-02
   19.7500  3.2929641E-02  2.1808609E-02  3.6142335E-02
   20.0000  3.2909233E-02  2.2161204E-02  3.5588296E-02
   21.0000  3.3252952E-02  2.3803815E-02  3.3586044E-02
   22.0000  3.4053431E-02  2.5736560E-02  3.1972408E-02
   23.0000  3.4853030E-02  2.7870490E-02  3.0649496E-02
   24.0000  3.5144305E-02  3.0038350E-02  2.9488724E-02
   25.0000  3.4614434E-02  3.1972261E-02  2.8412368E-02
   26.0000  3.3298197E-02  3.3477213E-02  2.7388990E-02
   27.0000  3.1502949E-02  3.4470850E-02  2.6427493E-02
   28.0000  2.9594468E-02  3.4966905E-02  2.5564375E-02
   29.0000  2.7846793E-02  3.5047483E-02  2.4839903E-02
   30.0000  2.6398358E-02  3.4820730E-02  2.4275780E-02
   31.0000  2.5270453E-02  3.4385384E-02  2.3865522E-02
   32.0000  2.4412038E-02  3.3812974E-02  2.3579106E-02
   33.0000  2.3744677E-02  3.3146148E-02  2.3374550E-02
   34.0000  2.3193380E-02  3.2405757E-02  2.3208769E-02
   35.0000  2.2702009E-02  3.1600788E-02  2.3044741E-02
   36.0000  2.2238210E-02  3.0738085E-02  2.2856031E-02
   37.0000  2.1792665E-02  2.9831833E-02  2.2631104E-02
   38.0000  2.1375215E-02  2.8914542E-02  2.2377505E-02
   39.0000  2.1008290E-02  2.8050544E-02  2.2122519E-02
   40.0000  2.0717199E-02  2.7338537E-02  2.1905384E-02
