    Energy   (100,001)      (010,001)      (001,110)   
  -25.0000  1.6579263E-04  1.9028250E-04  1.7419646E-04
  -24.0000  1.7189899E-04  1.9725188E-04  1.8064181E-04
  -23.0000  1.7842152E-04  2.0471275E-04  1.8753345E-04
  -22.0000  1.8540257E-04  2.1271810E-04  1.9491776E-04
  -21.0000  1.9289034E-04  2.2132870E-04  2.0284767E-04
  -20.0000  2.0093987E-04  2.3061465E-04  2.1138383E-04
  -19.0000  2.0961435E-04  2.4065718E-04  2.2059604E-04
  -18.0000  2.1898662E-04  2.5155098E-04  2.3056508E-04
  -17.0000  2.2914109E-04  2.6340701E-04  2.4138489E-04
  -16.0000  2.4017615E-04  2.7635623E-04  2.5316536E-04
  -15.0000  2.5220710E-04  2.9055421E-04  2.6603586E-04
  -14.0000  2.6537001E-04  3.0618714E-04  2.8014971E-04
  -13.0000  2.7982655E-04  3.2347978E-04  2.9568996E-04
  -12.0000  2.9577030E-04  3.4270580E-04  3.1287695E-04
  -11.0000  3.1343509E-04  3.6420184E-04  3.3197831E-04
  -10.0000  3.3310599E-04  3.8838655E-04  3.5332230E-04
  -9.00000  3.5513425E-04  4.1578698E-04  3.7731611E-04
  -8.00000  3.7995786E-04  4.4707589E-04  4.0447119E-04
  -7.00000  4.0813039E-04  4.8312555E-04  4.3543910E-04
  -6.00000  4.4036243E-04  5.2508724E-04  4.7106365E-04
  -5.00000  4.7758266E-04  5.7451222E-04  5.1245862E-04
  -4.00000  5.2103099E-04  6.3354189E-04  5.6112765E-04
  -3.00000  5.7240576E-04  7.0521906E-04  6.1915670E-04
  -2.00000  6.3410784E-04  7.9402251E-04  6.8953851E-04
  -1.00000  7.0967035E-04  9.0684265E-04  7.7675524E-04
   0.00000  8.0457599E-04  1.0549074E-03  8.8791363E-04
   1.00000  9.2798655E-04  1.2580055E-03  1.0352198E-03
   2.00000  1.0970050E-03  1.5552377E-03  1.2423139E-03
   3.00000  1.3499327E-03  2.0392853E-03  1.5649599E-03
   4.00000  1.8060254E-03  3.0125682E-03  2.1900165E-03
   5.00000  2.9760544E-03  5.8152638E-03  3.9477968E-03
   5.20000  3.3337569E-03  6.7149640E-03  4.4628002E-03
   5.40000  3.6911416E-03  7.6292846E-03  4.9364917E-03
   5.60000  4.0395311E-03  8.5325362E-03  5.3536534E-03
   5.80000  4.3844344E-03  9.4324911E-03  5.7313335E-03
   6.00000  4.7352192E-03  1.0345785E-02  6.0956399E-03
   6.20000  5.1006297E-03  1.1284769E-02  6.4700324E-03
   6.40000  5.4883193E-03  1.2254288E-02  6.8724548E-03
   6.60000  5.9053412E-03  1.3254142E-02  7.3161399E-03
   6.80000  6.3583856E-03  1.4284309E-02  7.8116870E-03
   7.00000  6.8536165E-03  1.5349512E-02  8.3691610E-03
   7.20000  7.3963372E-03  1.6460884E-02  8.9995321E-03
   7.40000  7.9907605E-03  1.7634812E-02  9.7152612E-03
   7.60000  8.6400802E-03  1.8890576E-02  1.0530115E-02
   7.80000  9.3469591E-03  2.0248467E-02  1.1458353E-02
   8.00000  1.0114385E-02  2.1728955E-02  1.2513386E-02
   8.20000  1.0946554E-02  2.3352305E-02  1.3705987E-02
   8.40000  1.1849245E-02  2.5138158E-02  1.5042136E-02
   8.60000  1.2829298E-02  2.7104905E-02  1.6520657E-02
   8.80000  1.3893240E-02  2.9268543E-02  1.8130963E-02
   9.00000  1.5045399E-02  3.1640268E-02  1.9851504E-02
   9.20000  1.6285977E-02  3.4221770E-02  2.1649713E-02
   9.40000  1.7609589E-02  3.6998086E-02  2.3483818E-02
   9.60000  1.9004646E-02  3.9929143E-02  2.5306366E-02
   9.80000  2.0453672E-02  4.2941778E-02  2.7069241E-02
   10.0000  2.1934219E-02  4.5924603E-02  2.8729415E-02
   10.2500  2.3788762E-02  4.9381979E-02  3.0610972E-02
   10.5000  2.5594269E-02  5.2218448E-02  3.2245006E-02
   10.7500  2.7293292E-02  5.4111349E-02  3.3628109E-02
   11.0000  2.8834644E-02  5.4850084E-02  3.4782385E-02
   11.2500  3.0180486E-02  5.4403733E-02  3.5740859E-02
   11.5000  3.1312097E-02  5.2925146E-02  3.6534914E-02
   11.7500  3.2231108E-02  5.0688586E-02  3.7187082E-02
   12.0000  3.2955998E-02  4.8000176E-02  3.7709356E-02
   12.2500  3.3517000E-02  4.5126131E-02  3.8107405E-02
   12.5000  3.3950916E-02  4.2260329E-02  3.8388281E-02
   12.7500  3.4296840E-02  3.9525242E-02  3.8566749E-02
   13.0000  3.4593250E-02  3.6988315E-02  3.8666934E-02
   13.2500  3.4875359E-02  3.4680152E-02  3.8719281E-02
   13.5000  3.5172777E-02  3.2608735E-02  3.8755252E-02
   13.7500  3.5508223E-02  3.0768724E-02  3.8802781E-02
   14.0000  3.5897102E-02  2.9147180E-02  3.8883505E-02
   14.2500  3.6347449E-02  2.7727237E-02  3.9011407E-02
   14.5000  3.6860084E-02  2.6490526E-02  3.9192512E-02
   14.7500  3.7428974E-02  2.5418723E-02  3.9425300E-02
   15.0000  3.8041854E-02  2.4494488E-02  3.9701600E-02
   15.2500  3.8681132E-02  2.3701973E-02  4.0007772E-02
   15.5000  3.9325082E-02  2.3027034E-02  4.0326122E-02
   15.7500  3.9949326E-02  2.2457266E-02  4.0636505E-02
   16.0000  4.0528561E-02  2.1981907E-02  4.0918095E-02
   16.2500  4.1038450E-02  2.1591688E-02  4.1151194E-02
   16.5000  4.1457561E-02  2.1278660E-02  4.1318946E-02
   16.7500  4.1769195E-02  2.1036018E-02  4.1408731E-02
   17.0000  4.1962890E-02  2.0857931E-02  4.1413101E-02
   17.2500  4.2035410E-02  2.0739393E-02  4.1330112E-02
   17.5000  4.1991043E-02  2.0676076E-02  4.1163055E-02
   17.7500  4.1841117E-02  2.0664207E-02  4.0919651E-02
   18.0000  4.1602793E-02  2.0700462E-02  4.0610879E-02
   18.2500  4.1297308E-02  2.0781877E-02  4.0249635E-02
   18.5000  4.0947938E-02  2.0905779E-02  3.9849426E-02
   18.7500  4.0577986E-02  2.1069751E-02  3.9423247E-02
   19.0000  4.0209023E-02  2.1271608E-02  3.8982726E-02
   19.2500  3.9859544E-02  2.1509418E-02  3.8537549E-02
   19.5000  3.9544084E-02  2.1781515E-02  3.8095161E-02
   19.7500  3.9272778E-02  2.2086478E-02  3.7660724E-02
   20.0000  3.9051366E-02  2.2422963E-02  3.7237399E-02
   21.0000  3.8657995E-02  2.4046214E-02  3.5680360E-02
   22.0000  3.8779024E-02  2.6009940E-02  3.4326285E-02
   23.0000  3.8814703E-02  2.8160201E-02  3.3089507E-02
   24.0000  3.8202675E-02  3.0294640E-02  3.1901101E-02
   25.0000  3.6705293E-02  3.2183301E-02  3.0732982E-02
   26.0000  3.4488329E-02  3.3623011E-02  2.9581947E-02
   27.0000  3.1959760E-02  3.4496032E-02  2.8463048E-02
   28.0000  2.9543974E-02  3.4810243E-02  2.7421255E-02
   29.0000  2.7530723E-02  3.4687478E-02  2.6520974E-02
   30.0000  2.5996377E-02  3.4286289E-02  2.5792978E-02
   31.0000  2.4888225E-02  3.3741586E-02  2.5231126E-02
   32.0000  2.4112331E-02  3.3141581E-02  2.4807686E-02
   33.0000  2.3570130E-02  3.2527491E-02  2.4484036E-02
   34.0000  2.3173314E-02  3.1904572E-02  2.4219993E-02
   35.0000  2.2849089E-02  3.1257038E-02  2.3980825E-02
   36.0000  2.2543085E-02  3.0564273E-02  2.3742116E-02
   37.0000  2.2223537E-02  2.9816937E-02  2.3492704E-02
   38.0000  2.1886027E-02  2.9032606E-02  2.3235781E-02
   39.0000  2.1554520E-02  2.8270039E-02  2.2988735E-02
   40.0000  2.1271819E-02  2.7629002E-02  2.2780164E-02
