    Energy   (100,001)      (010,001)      (001,110)   
  -25.0000  1.6583329E-04  1.8659948E-04  1.7273848E-04
  -24.0000  1.7195143E-04  1.9344974E-04  1.7920075E-04
  -23.0000  1.7848829E-04  2.0078242E-04  1.8611470E-04
  -22.0000  1.8548675E-04  2.0864930E-04  1.9352766E-04
  -21.0000  1.9299563E-04  2.1710977E-04  2.0149372E-04
  -20.0000  2.0107078E-04  2.2623223E-04  2.1007492E-04
  -19.0000  2.0977633E-04  2.3609590E-04  2.1934276E-04
  -18.0000  2.1918634E-04  2.4679299E-04  2.2938008E-04
  -17.0000  2.2938674E-04  2.5843149E-04  2.4028333E-04
  -16.0000  2.4047780E-04  2.7113863E-04  2.5216554E-04
  -15.0000  2.5257726E-04  2.8506535E-04  2.6515992E-04
  -14.0000  2.6582429E-04  3.0039205E-04  2.7942464E-04
  -13.0000  2.8038456E-04  3.1733602E-04  2.9514884E-04
  -12.0000  2.9645691E-04  3.3616137E-04  3.1256063E-04
  -11.0000  3.1428206E-04  3.5719217E-04  3.3193760E-04
  -10.0000  3.3415433E-04  3.8083036E-04  3.5362098E-04
  -9.00000  3.5643750E-04  4.0758042E-04  3.7803497E-04
  -8.00000  3.8158684E-04  4.3808403E-04  4.0571367E-04
  -7.00000  4.1018011E-04  4.7316969E-04  4.3733922E-04
  -6.00000  4.4296255E-04  5.1392568E-04  4.7379734E-04
  -5.00000  4.8091368E-04  5.6180999E-04  5.1626016E-04
  -4.00000  5.2535010E-04  6.1882170E-04  5.6631408E-04
  -3.00000  5.7808994E-04  6.8777825E-04  6.2616451E-04
  -2.00000  6.4172921E-04  7.7278592E-04  6.9897955E-04
  -1.00000  7.2013607E-04  8.8008624E-04  7.8950121E-04
   0.00000  8.1940937E-04  1.0197007E-03  9.0521696E-04
   1.00000  9.4995416E-04  1.2089784E-03  1.0588412E-03
   2.00000  1.1317378E-03  1.4814923E-03  1.2743699E-03
   3.00000  1.4111568E-03  1.9151555E-03  1.6053745E-03
   4.00000  1.9395721E-03  2.7610661E-03  2.2130879E-03
   5.00000  3.3857017E-03  5.1084451E-03  3.7714430E-03
   5.20000  3.8271471E-03  5.8216593E-03  4.2750741E-03
   5.40000  4.2561558E-03  6.5134533E-03  4.8125138E-03
   5.60000  4.6585102E-03  7.1653799E-03  5.3778851E-03
   5.80000  5.0411171E-03  7.7942597E-03  5.9791579E-03
   6.00000  5.4178805E-03  8.4274417E-03  6.6281390E-03
   6.20000  5.8030204E-03  9.0914007E-03  7.3353838E-03
   6.40000  6.2096420E-03  9.8095176E-03  8.1083262E-03
   6.60000  6.6497212E-03  1.0602465E-02  8.9497648E-03
   6.80000  7.1339370E-03  1.1488938E-02  9.8557588E-03
   7.00000  7.6708432E-03  1.2486392E-02  1.0813473E-02
   7.20000  8.2654434E-03  1.3611728E-02  1.1800899E-02
   7.40000  8.9178969E-03  1.4881798E-02  1.2790945E-02
   7.60000  9.6235856E-03  1.6313506E-02  1.3760492E-02
   7.80000  1.0375373E-02  1.7923433E-02  1.4701026E-02
   8.00000  1.1167321E-02  1.9727085E-02  1.5624770E-02
   8.20000  1.1997678E-02  2.1738027E-02  1.6562435E-02
   8.40000  1.2869338E-02  2.3967110E-02  1.7553916E-02
   8.60000  1.3788082E-02  2.6421664E-02  1.8636841E-02
   8.80000  1.4760521E-02  2.9104213E-02  1.9837402E-02
   9.00000  1.5793250E-02  3.2010057E-02  2.1165270E-02
   9.20000  1.6892778E-02  3.5123157E-02  2.2612093E-02
   9.40000  1.8064945E-02  3.8409500E-02  2.4152619E-02
   9.60000  1.9313547E-02  4.1808040E-02  2.5748255E-02
   9.80000  2.0638943E-02  4.5222392E-02  2.7352781E-02
   10.0000  2.2036799E-02  4.8518146E-02  2.8918917E-02
   10.2500  2.3869203E-02  5.2216593E-02  3.0757909E-02
   10.5000  2.5760402E-02  5.5122267E-02  3.2404301E-02
   10.7500  2.7653172E-02  5.6939189E-02  3.3816635E-02
   11.0000  2.9471410E-02  5.7505330E-02  3.4978643E-02
   11.2500  3.1127341E-02  5.6836646E-02  3.5894358E-02
   11.5000  3.2536331E-02  5.5109715E-02  3.6581833E-02
   11.7500  3.3635183E-02  5.2598202E-02  3.7068518E-02
   12.0000  3.4397067E-02  4.9601408E-02  3.7387997E-02
   12.2500  3.4837722E-02  4.6389566E-02  3.7577169E-02
   12.5000  3.5010561E-02  4.3173571E-02  3.7673088E-02
   12.7500  3.4993116E-02  4.0097630E-02  3.7710248E-02
   13.0000  3.4870802E-02  3.7247778E-02  3.7719826E-02
   13.2500  3.4723122E-02  3.4666738E-02  3.7729964E-02
   13.5000  3.4614795E-02  3.2367674E-02  3.7765498E-02
   13.7500  3.4592094E-02  3.0344742E-02  3.7847192E-02
   14.0000  3.4683158E-02  2.8580925E-02  3.7990973E-02
   14.2500  3.4900421E-02  2.7053614E-02  3.8207294E-02
   14.5000  3.5243657E-02  2.5738357E-02  3.8500586E-02
   14.7500  3.5702777E-02  2.4611184E-02  3.8868821E-02
   15.0000  3.6260064E-02  2.3649947E-02  3.9303236E-02
   15.2500  3.6891895E-02  2.2834988E-02  3.9788318E-02
   15.5000  3.7570176E-02  2.2149366E-02  4.0302227E-02
   15.7500  3.8263771E-02  2.1578817E-02  4.0817811E-02
   16.0000  3.8940115E-02  2.1111546E-02  4.1304365E-02
   16.2500  3.9567113E-02  2.0737914E-02  4.1730136E-02
   16.5000  4.0115287E-02  2.0450053E-02  4.2065338E-02
   16.7500  4.0559990E-02  2.0241455E-02  4.2285274E-02
   17.0000  4.0883408E-02  2.0106572E-02  4.2372966E-02
   17.2500  4.1076038E-02  2.0040452E-02  4.2320768E-02
   17.5000  4.1137349E-02  2.0038456E-02  4.2130635E-02
   17.7500  4.1075481E-02  2.0096051E-02  4.1813071E-02
   18.0000  4.0906002E-02  2.0208701E-02  4.1385081E-02
   18.2500  4.0649931E-02  2.0371845E-02  4.0867652E-02
   18.5000  4.0331376E-02  2.0580928E-02  4.0283255E-02
   18.7500  3.9975157E-02  2.0831502E-02  3.9653760E-02
   19.0000  3.9604714E-02  2.1119348E-02  3.8998912E-02
   19.2500  3.9240501E-02  2.1440624E-02  3.8335393E-02
   19.5000  3.8898923E-02  2.1792012E-02  3.7676360E-02
   19.7500  3.8591803E-02  2.2170783E-02  3.7031423E-02
   20.0000  3.8326384E-02  2.2574651E-02  3.6407128E-02
   21.0000  3.7702160E-02  2.4394236E-02  3.4189715E-02
   22.0000  3.7560222E-02  2.6443502E-02  3.2466567E-02
   23.0000  3.7375717E-02  2.8609821E-02  3.1145123E-02
   24.0000  3.6698421E-02  3.0704316E-02  3.0092215E-02
   25.0000  3.5402466E-02  3.2462184E-02  2.9199488E-02
   26.0000  3.3638069E-02  3.3701897E-02  2.8390101E-02
   27.0000  3.1670828E-02  3.4358461E-02  2.7629745E-02
   28.0000  2.9750727E-02  3.4476403E-02  2.6926027E-02
   29.0000  2.8047927E-02  3.4184093E-02  2.6307386E-02
   30.0000  2.6641670E-02  3.3638413E-02  2.5795879E-02
   31.0000  2.5538009E-02  3.2973846E-02  2.5391550E-02
   32.0000  2.4697350E-02  3.2277887E-02  2.5073354E-02
   33.0000  2.4058803E-02  3.1589997E-02  2.4808321E-02
   34.0000  2.3556913E-02  3.0913385E-02  2.4559954E-02
   35.0000  2.3133011E-02  3.0232536E-02  2.4294807E-02
   36.0000  2.2742986E-02  2.9529930E-02  2.3987697E-02
   37.0000  2.2362507E-02  2.8799366E-02  2.3627068E-02
   38.0000  2.1989638E-02  2.8056485E-02  2.3221659E-02
   39.0000  2.1643726E-02  2.7349187E-02  2.2807854E-02
   40.0000  2.1357797E-02  2.6760015E-02  2.2448949E-02
