    Energy   (100,001)      (010,001)      (001,110)   
  -25.0000  1.6327134E-04  1.7879789E-04  1.8503504E-04
  -24.0000  1.6913998E-04  1.8580261E-04  1.9160782E-04
  -23.0000  1.7539799E-04  1.9332328E-04  1.9862718E-04
  -22.0000  1.8208392E-04  2.0141716E-04  2.0613933E-04
  -21.0000  1.8924149E-04  2.1015014E-04  2.1419698E-04
  -20.0000  1.9692047E-04  2.1959841E-04  2.2286059E-04
  -19.0000  2.0517774E-04  2.2985053E-04  2.3219982E-04
  -18.0000  2.1407867E-04  2.4101003E-04  2.4229533E-04
  -17.0000  2.2369869E-04  2.5319861E-04  2.5324107E-04
  -16.0000  2.3412531E-04  2.6656036E-04  2.6514707E-04
  -15.0000  2.4546067E-04  2.8126699E-04  2.7814312E-04
  -14.0000  2.5782470E-04  2.9752472E-04  2.9238332E-04
  -13.0000  2.7135918E-04  3.1558328E-04  3.0805212E-04
  -12.0000  2.8623299E-04  3.3574791E-04  3.2537220E-04
  -11.0000  3.0264894E-04  3.5839537E-04  3.4461489E-04
  -10.0000  3.2085285E-04  3.8399600E-04  3.6611442E-04
  -9.00000  3.4114574E-04  4.1314419E-04  3.9028728E-04
  -8.00000  3.6390053E-04  4.4660165E-04  4.1765957E-04
  -7.00000  3.8958538E-04  4.8535995E-04  4.4890609E-04
  -6.00000  4.1879710E-04  5.3073322E-04  4.8490777E-04
  -5.00000  4.5231028E-04  5.8449948E-04  5.2683877E-04
  -4.00000  4.9115198E-04  6.4912333E-04  5.7630316E-04
  -3.00000  5.3671985E-04  7.2812098E-04  6.3555873E-04
  -2.00000  5.9097854E-04  8.2668778E-04  7.0790369E-04
  -1.00000  6.5680715E-04  9.5284369E-04  7.9838990E-04
   0.00000  7.3866657E-04  1.1196915E-03  9.1525676E-04
   1.00000  8.4403126E-04  1.3503550E-03  1.0731648E-03
   2.00000  9.8698470E-04  1.6904874E-03  1.3017602E-03
   3.00000  1.1996551E-03  2.2478586E-03  1.6744557E-03
   4.00000  1.5849054E-03  3.3711748E-03  2.4479958E-03
   5.00000  2.5929640E-03  6.5959218E-03  4.8184546E-03
   5.20000  2.9012951E-03  7.6357990E-03  5.5625112E-03
   5.40000  3.2065013E-03  8.7005589E-03  6.2764463E-03
   5.60000  3.5004009E-03  9.7614354E-03  6.9246032E-03
   5.80000  3.7881787E-03  1.0823928E-02  7.5073290E-03
   6.00000  4.0787920E-03  1.1901056E-02  8.0361549E-03
   6.20000  4.3801258E-03  1.3002100E-02  8.5211807E-03
   6.40000  4.6977037E-03  1.4132531E-02  8.9691147E-03
   6.60000  5.0347865E-03  1.5297673E-02  9.3862409E-03
   6.80000  5.3930919E-03  1.6506963E-02  9.7830007E-03
   7.00000  5.7738073E-03  1.7777334E-02  1.0177557E-02
   7.20000  6.1784932E-03  1.9134632E-02  1.0596272E-02
   7.40000  6.6094909E-03  2.0612388E-02  1.1070779E-02
   7.60000  7.0696389E-03  2.2248068E-02  1.1633265E-02
   7.80000  7.5613323E-03  2.4078652E-02  1.2311906E-02
   8.00000  8.0851804E-03  2.6137320E-02  1.3127345E-02
   8.20000  8.6387436E-03  2.8451525E-02  1.4090056E-02
   8.40000  9.2160019E-03  3.1041867E-02  1.5198348E-02
   8.60000  9.8082163E-03  3.3920774E-02  1.6437356E-02
   8.80000  1.0406455E-02  3.7089649E-02  1.7779985E-02
   9.00000  1.1005229E-02  4.0532867E-02  1.9190524E-02
   9.20000  1.1605791E-02  4.4207686E-02  2.0630407E-02
   9.40000  1.2217457E-02  4.8031309E-02  2.2064262E-02
   9.60000  1.2856193E-02  5.1869489E-02  2.3464087E-02
   9.80000  1.3541195E-02  5.5533439E-02  2.4810687E-02
   10.0000  1.4290908E-02  5.8791586E-02  2.6092977E-02
   10.2500  1.5340385E-02  6.1923012E-02  2.7599244E-02
   10.5000  1.6527043E-02  6.3643302E-02  2.9002470E-02
   10.7500  1.7846503E-02  6.3756752E-02  3.0318109E-02
   11.0000  1.9274152E-02  6.2319819E-02  3.1565886E-02
   11.2500  2.0765732E-02  5.9607055E-02  3.2760920E-02
   11.5000  2.2264101E-02  5.6016694E-02  3.3908177E-02
   11.7500  2.3711780E-02  5.1961105E-02  3.5000355E-02
   12.0000  2.5062875E-02  4.7788798E-02  3.6020372E-02
   12.2500  2.6290578E-02  4.3752193E-02  3.6946128E-02
   12.5000  2.7390030E-02  4.0009336E-02  3.7754555E-02
   12.7500  2.8375760E-02  3.6641860E-02  3.8424342E-02
   13.0000  2.9274958E-02  3.3676570E-02  3.8938513E-02
   13.2500  3.0119696E-02  3.1105170E-02  3.9288912E-02
   13.5000  3.0940268E-02  2.8900042E-02  3.9481131E-02
   13.7500  3.1760665E-02  2.7025109E-02  3.9534394E-02
   14.0000  3.2596860E-02  2.5442274E-02  3.9475864E-02
   14.2500  3.3457542E-02  2.4114788E-02  3.9334657E-02
   14.5000  3.4345814E-02  2.3008901E-02  3.9138118E-02
   14.7500  3.5260673E-02  2.2094658E-02  3.8909709E-02
   15.0000  3.6198007E-02  2.1346119E-02  3.8667818E-02
   15.2500  3.7151206E-02  2.0741202E-02  3.8425269E-02
   15.5000  3.8111538E-02  2.0261284E-02  3.8189422E-02
   15.7500  3.9068394E-02  1.9890711E-02  3.7962736E-02
   16.0000  4.0009468E-02  1.9616299E-02  3.7743678E-02
   16.2500  4.0920959E-02  1.9426893E-02  3.7527846E-02
   16.5000  4.1787852E-02  1.9312990E-02  3.7309191E-02
   16.7500  4.2594405E-02  1.9266444E-02  3.7081214E-02
   17.0000  4.3324914E-02  1.9280230E-02  3.6838026E-02
   17.2500  4.3964786E-02  1.9348268E-02  3.6575179E-02
   17.5000  4.4501866E-02  1.9465273E-02  3.6290211E-02
   17.7500  4.4927835E-02  1.9626646E-02  3.5982865E-02
   18.0000  4.5239438E-02  1.9828389E-02  3.5655026E-02
   18.2500  4.5439241E-02  2.0067030E-02  3.5310417E-02
   18.5000  4.5535726E-02  2.0339577E-02  3.4954127E-02
   18.7500  4.5542603E-02  2.0643485E-02  3.4592057E-02
   19.0000  4.5477441E-02  2.0976642E-02  3.4230355E-02
   19.2500  4.5359810E-02  2.1337387E-02  3.3874880E-02
   19.5000  4.5209247E-02  2.1724519E-02  3.3530746E-02
   19.7500  4.5043393E-02  2.2137253E-02  3.3202013E-02
   20.0000  4.4876657E-02  2.2574978E-02  3.2891621E-02
   21.0000  4.4359620E-02  2.4550515E-02  3.1866667E-02
   22.0000  4.4042151E-02  2.6796048E-02  3.1194487E-02
   23.0000  4.3354614E-02  2.9136790E-02  3.0785539E-02
   24.0000  4.1698303E-02  3.1302242E-02  3.0523330E-02
   25.0000  3.8989305E-02  3.2994150E-02  3.0308394E-02
   26.0000  3.5708499E-02  3.4008166E-02  3.0064852E-02
   27.0000  3.2517583E-02  3.4313040E-02  2.9753896E-02
   28.0000  2.9861527E-02  3.4027852E-02  2.9388074E-02
   29.0000  2.7862320E-02  3.3341389E-02  2.9024961E-02
   30.0000  2.6433467E-02  3.2437035E-02  2.8731463E-02
   31.0000  2.5424476E-02  3.1439118E-02  2.8536874E-02
   32.0000  2.4699390E-02  3.0415019E-02  2.8431814E-02
   33.0000  2.4153504E-02  2.9394003E-02  2.8385141E-02
   34.0000  2.3709455E-02  2.8381742E-02  2.8356365E-02
   35.0000  2.3313520E-02  2.7373389E-02  2.8303577E-02
   36.0000  2.2933330E-02  2.6365316E-02  2.8188856E-02
   37.0000  2.2554860E-02  2.5365169E-02  2.7984963E-02
   38.0000  2.2179338E-02  2.4400709E-02  2.7686509E-02
   39.0000  2.1824235E-02  2.3527291E-02  2.7326675E-02
   40.0000  2.1524354E-02  2.2823737E-02  2.6986309E-02
