    Energy   (100,001)      (010,001)      (001,110)   
  -25.0000  1.7776070E-04  1.8108645E-04  1.8644365E-04
  -24.0000  1.8386800E-04  1.8815850E-04  1.9290683E-04
  -23.0000  1.9037402E-04  1.9575169E-04  1.9979954E-04
  -22.0000  1.9731827E-04  2.0392397E-04  2.0716528E-04
  -21.0000  2.0474562E-04  2.1274205E-04  2.1505363E-04
  -20.0000  2.1270721E-04  2.2228309E-04  2.2352124E-04
  -19.0000  2.2126162E-04  2.3263682E-04  2.3263324E-04
  -18.0000  2.3047627E-04  2.4390818E-04  2.4246480E-04
  -17.0000  2.4042908E-04  2.5622058E-04  2.5310322E-04
  -16.0000  2.5121074E-04  2.6972019E-04  2.6465037E-04
  -15.0000  2.6292728E-04  2.8458130E-04  2.7722597E-04
  -14.0000  2.7570360E-04  3.0101330E-04  2.9097162E-04
  -13.0000  2.8968783E-04  3.1926994E-04  3.0605606E-04
  -12.0000  3.0505699E-04  3.3966147E-04  3.2268200E-04
  -11.0000  3.2202454E-04  3.6257109E-04  3.4109521E-04
  -10.0000  3.4085031E-04  3.8847742E-04  3.6159658E-04
  -9.00000  3.6185398E-04  4.1798560E-04  3.8455872E-04
  -8.00000  3.8543373E-04  4.5187154E-04  4.1044880E-04
  -7.00000  4.1209235E-04  4.9114572E-04  4.3986105E-04
  -6.00000  4.4247500E-04  5.3714773E-04  4.7356384E-04
  -5.00000  4.7742504E-04  5.9169041E-04  5.1256990E-04
  -4.00000  5.1806960E-04  6.5728641E-04  5.5824458E-04
  -3.00000  5.6595609E-04  7.3751885E-04  6.1247945E-04
  -2.00000  6.2328071E-04  8.3767643E-04  6.7798450E-04
  -1.00000  6.9329640E-04  9.6590721E-04  7.5881091E-04
   0.00000  7.8110272E-04  1.1354784E-03  8.6136404E-04
   1.00000  8.9535614E-04  1.3696733E-03  9.9658844E-04
   2.00000  1.0526082E-03  1.7140465E-03  1.1854616E-03
   3.00000  1.2912690E-03  2.2746427E-03  1.4764152E-03
   4.00000  1.7368642E-03  3.3880918E-03  2.0251990E-03
   5.00000  2.9478550E-03  6.5065697E-03  3.5115801E-03
   5.20000  3.3191205E-03  7.4985227E-03  3.9680459E-03
   5.40000  3.6802371E-03  8.5100168E-03  4.4178630E-03
   5.60000  4.0164571E-03  9.5183238E-03  4.8481007E-03
   5.80000  4.3304810E-03  1.0538145E-02  5.2659223E-03
   6.00000  4.6323472E-03  1.1595844E-02  5.6848175E-03
   6.20000  4.9342503E-03  1.2717740E-02  6.1186845E-03
   6.40000  5.2485841E-03  1.3928022E-02  6.5812685E-03
   6.60000  5.5868220E-03  1.5248994E-02  7.0869081E-03
   6.80000  5.9587636E-03  1.6700988E-02  7.6508991E-03
   7.00000  6.3722259E-03  1.8301487E-02  8.2889379E-03
   7.20000  6.8332375E-03  2.0063888E-02  9.0155809E-03
   7.40000  7.3466404E-03  2.1996731E-02  9.8419714E-03
   7.60000  7.9167549E-03  2.4104328E-02  1.0773293E-02
   7.80000  8.5475403E-03  2.6388836E-02  1.1806382E-02
   8.00000  9.2416836E-03  2.8852751E-02  1.2927708E-02
   8.20000  9.9984742E-03  3.1501222E-02  1.4111863E-02
   8.40000  1.0810977E-02  3.4343839E-02  1.5321133E-02
   8.60000  1.1663762E-02  3.7394958E-02  1.6507615E-02
   8.80000  1.2533088E-02  4.0670713E-02  1.7619606E-02
   9.00000  1.3391291E-02  4.4180068E-02  1.8612615E-02
   9.20000  1.4215516E-02  4.7907497E-02  1.9462778E-02
   9.40000  1.4997643E-02  5.1788459E-02  2.0177795E-02
   9.60000  1.5749423E-02  5.5685864E-02  2.0797435E-02
   9.80000  1.6498900E-02  5.9378743E-02  2.1380027E-02
   10.0000  1.7280788E-02  6.2571297E-02  2.1983578E-02
   10.2500  1.8350687E-02  6.5352031E-02  2.2833846E-02
   10.5000  1.9558300E-02  6.6277518E-02  2.3836519E-02
   10.7500  2.0911641E-02  6.5133007E-02  2.5012142E-02
   11.0000  2.2390294E-02  6.2165570E-02  2.6360801E-02
   11.2500  2.3951610E-02  5.7962159E-02  2.7865788E-02
   11.5000  2.5537477E-02  5.3191925E-02  2.9494292E-02
   11.7500  2.7082187E-02  4.8396340E-02  3.1198103E-02
   12.0000  2.8521858E-02  4.3912058E-02  3.2915033E-02
   12.2500  2.9803871E-02  3.9896278E-02  3.4572156E-02
   12.5000  3.0894587E-02  3.6388682E-02  3.6091850E-02
   12.7500  3.1784219E-02  3.3367287E-02  3.7400426E-02
   13.0000  3.2487077E-02  3.0784940E-02  3.8438166E-02
   13.2500  3.3036382E-02  2.8588580E-02  3.9168918E-02
   13.5000  3.3475357E-02  2.6727722E-02  3.9587335E-02
   13.7500  3.3848157E-02  2.5157442E-02  3.9720114E-02
   14.0000  3.4193573E-02  2.3838762E-02  3.9619034E-02
   14.2500  3.4541861E-02  2.2738064E-02  3.9349304E-02
   14.5000  3.4913738E-02  2.1826354E-02  3.8978098E-02
   14.7500  3.5320610E-02  2.1078632E-02  3.8565863E-02
   15.0000  3.5765439E-02  2.0473358E-02  3.8161043E-02
   15.2500  3.6243866E-02  1.9992006E-02  3.7797870E-02
   15.5000  3.6745410E-02  1.9618672E-02  3.7496447E-02
   15.7500  3.7254721E-02  1.9339752E-02  3.7264298E-02
   16.0000  3.7752966E-02  1.9143669E-02  3.7098708E-02
   16.2500  3.8219413E-02  1.9020653E-02  3.6989432E-02
   16.5000  3.8633236E-02  1.8962547E-02  3.6921476E-02
   16.7500  3.8975430E-02  1.8962634E-02  3.6877752E-02
   17.0000  3.9230635E-02  1.9015447E-02  3.6841421E-02
   17.2500  3.9388594E-02  1.9116573E-02  3.6797747E-02
   17.5000  3.9445017E-02  1.9262440E-02  3.6735304E-02
   17.7500  3.9401737E-02  1.9450104E-02  3.6646530E-02
   18.0000  3.9266181E-02  1.9677061E-02  3.6527668E-02
   18.2500  3.9050314E-02  1.9941083E-02  3.6378279E-02
   18.5000  3.8769268E-02  2.0240103E-02  3.6200515E-02
   18.7500  3.8439864E-02  2.0572149E-02  3.5998325E-02
   19.0000  3.8079215E-02  2.0935329E-02  3.5776696E-02
   19.2500  3.7703485E-02  2.1327863E-02  3.5540986E-02
   19.5000  3.7326924E-02  2.1748141E-02  3.5296371E-02
   19.7500  3.6961233E-02  2.2194720E-02  3.5047444E-02
   20.0000  3.6615422E-02  2.2666121E-02  3.4798047E-02
   21.0000  3.5542242E-02  2.4751018E-02  3.3852342E-02
   22.0000  3.5050803E-02  2.7013067E-02  3.3043839E-02
   23.0000  3.5011884E-02  2.9255458E-02  3.2325591E-02
   24.0000  3.5136881E-02  3.1258700E-02  3.1624608E-02
   25.0000  3.5085367E-02  3.2812848E-02  3.0920575E-02
   26.0000  3.4600837E-02  3.3769826E-02  3.0250421E-02
   27.0000  3.3643051E-02  3.4091440E-02  2.9682825E-02
   28.0000  3.2394586E-02  3.3861428E-02  2.9285396E-02
   29.0000  3.1118791E-02  3.3240414E-02  2.9091547E-02
   30.0000  3.0010718E-02  3.2396082E-02  2.9083205E-02
   31.0000  2.9147086E-02  3.1459446E-02  2.9203489E-02
   32.0000  2.8512302E-02  3.0510102E-02  2.9382826E-02
   33.0000  2.8051997E-02  2.9568522E-02  2.9553987E-02
   34.0000  2.7711471E-02  2.8624731E-02  2.9664813E-02
   35.0000  2.7449101E-02  2.7668069E-02  2.9680377E-02
   36.0000  2.7233592E-02  2.6700188E-02  2.9578825E-02
   37.0000  2.7035914E-02  2.5738762E-02  2.9351152E-02
   38.0000  2.6829944E-02  2.4818435E-02  2.9008980E-02
   39.0000  2.6607970E-02  2.3993285E-02  2.8600196E-02
   40.0000  2.6397879E-02  2.3333400E-02  2.8218206E-02
