    Energy   (100,001)      (010,001)      (001,110)   
  -25.0000  1.6620157E-04  1.8934273E-04  1.8021535E-04
  -24.0000  1.7216128E-04  1.9618346E-04  1.8668984E-04
  -23.0000  1.7851730E-04  2.0350096E-04  1.9360463E-04
  -22.0000  1.8530906E-04  2.1134605E-04  2.0100505E-04
  -21.0000  1.9258130E-04  2.1977695E-04  2.0894279E-04
  -20.0000  2.0038499E-04  2.2886068E-04  2.1747704E-04
  -19.0000  2.0877849E-04  2.3867482E-04  2.2667596E-04
  -18.0000  2.1782885E-04  2.4930960E-04  2.3661834E-04
  -17.0000  2.2761357E-04  2.6087057E-04  2.4739588E-04
  -16.0000  2.3822264E-04  2.7348204E-04  2.5911582E-04
  -15.0000  2.4976121E-04  2.8729133E-04  2.7190445E-04
  -14.0000  2.6235287E-04  3.0247433E-04  2.8591150E-04
  -13.0000  2.7614396E-04  3.1924276E-04  3.0131589E-04
  -12.0000  2.9130896E-04  3.3785367E-04  3.1833321E-04
  -11.0000  3.0805774E-04  3.5862215E-04  3.3722567E-04
  -10.0000  3.2664504E-04  3.8193865E-04  3.5831552E-04
  -9.00000  3.4738326E-04  4.0829265E-04  3.8200344E-04
  -8.00000  3.7066001E-04  4.3830607E-04  4.0879421E-04
  -7.00000  3.9696269E-04  4.7278103E-04  4.3933349E-04
  -6.00000  4.2691357E-04  5.1276993E-04  4.7446149E-04
  -5.00000  4.6132150E-04  5.5968115E-04  5.1529403E-04
  -4.00000  5.0126035E-04  6.1544361E-04  5.6334907E-04
  -3.00000  5.4819307E-04  6.8277324E-04  6.2075232E-04
  -2.00000  6.0417739E-04  7.6562500E-04  6.9058907E-04
  -1.00000  6.7222864E-04  8.7000677E-04  7.7754476E-04
   0.00000  7.5701372E-04  1.0055618E-03  8.8916966E-04
   1.00000  8.6633160E-04  1.1889829E-03  1.0386581E-03
   2.00000  1.0148042E-03  1.4525600E-03  1.2519429E-03
   3.00000  1.2355074E-03  1.8710118E-03  1.5903212E-03
   4.00000  1.6329299E-03  2.6824195E-03  2.2528940E-03
   5.00000  2.6627811E-03  4.9223751E-03  4.1259643E-03
   5.20000  2.9829912E-03  5.6301215E-03  4.7377698E-03
   5.40000  3.3067424E-03  6.3480736E-03  5.3707597E-03
   5.60000  3.6248672E-03  7.0591374E-03  6.0068952E-03
   5.80000  3.9387761E-03  7.7724968E-03  6.6522275E-03
   6.00000  4.2525969E-03  8.5036699E-03  7.3238086E-03
   6.20000  4.5704975E-03  9.2648045E-03  8.0391363E-03
   6.40000  4.8969419E-03  1.0062264E-02  8.8083463E-03
   6.60000  5.2370812E-03  1.0896903E-02  9.6281241E-03
   6.80000  5.5963685E-03  1.1765767E-02  1.0478286E-02
   7.00000  5.9794192E-03  1.2665135E-02  1.1322990E-02
   7.20000  6.3885849E-03  1.3594834E-02  1.2118356E-02
   7.40000  6.8230871E-03  1.4562950E-02  1.2826082E-02
   7.60000  7.2796585E-03  1.5589049E-02  1.3428502E-02
   7.80000  7.7549127E-03  1.6704420E-02  1.3937391E-02
   8.00000  8.2482561E-03  1.7949189E-02  1.4390789E-02
   8.20000  8.7635373E-03  1.9367583E-02  1.4839240E-02
   8.40000  9.3086482E-03  2.1003089E-02  1.5329283E-02
   8.60000  9.8937800E-03  2.2894771E-02  1.5892529E-02
   8.80000  1.0529520E-02  2.5074746E-02  1.6543726E-02
   9.00000  1.1225481E-02  2.7565585E-02  1.7285450E-02
   9.20000  1.1989532E-02  3.0375705E-02  1.8114242E-02
   9.40000  1.2827419E-02  3.3491439E-02  1.9024495E-02
   9.60000  1.3742624E-02  3.6866499E-02  2.0009484E-02
   9.80000  1.4736421E-02  4.0411748E-02  2.1060885E-02
   10.0000  1.5807998E-02  4.3989912E-02  2.2167922E-02
   10.2500  1.7252300E-02  4.8232212E-02  2.3608034E-02
   10.5000  1.8803381E-02  5.1856194E-02  2.5076938E-02
   10.7500  2.0445473E-02  5.4536059E-02  2.6533041E-02
   11.0000  2.2155144E-02  5.6091747E-02  2.7936011E-02
   11.2500  2.3899019E-02  5.6503166E-02  2.9255666E-02
   11.5000  2.5633304E-02  5.5875157E-02  3.0477190E-02
   11.7500  2.7306608E-02  5.4384556E-02  3.1596773E-02
   12.0000  2.8866944E-02  5.2232995E-02  3.2613445E-02
   12.2500  3.0271422E-02  4.9620006E-02  3.3525762E-02
   12.5000  3.1494075E-02  4.6731903E-02  3.4332079E-02
   12.7500  3.2527419E-02  4.3735161E-02  3.5031517E-02
   13.0000  3.3378969E-02  4.0769387E-02  3.5625341E-02
   13.2500  3.4067845E-02  3.7940996E-02  3.6118855E-02
   13.5000  3.4621922E-02  3.5320937E-02  3.6522670E-02
   13.7500  3.5073520E-02  3.2948191E-02  3.6852091E-02
   14.0000  3.5454836E-02  3.0836760E-02  3.7125682E-02
   14.2500  3.5794823E-02  2.8983182E-02  3.7363826E-02
   14.5000  3.6117656E-02  2.7373084E-02  3.7586888E-02
   14.7500  3.6442168E-02  2.5986287E-02  3.7813177E-02
   15.0000  3.6781766E-02  2.4800400E-02  3.8057264E-02
   15.2500  3.7144575E-02  2.3793136E-02  3.8328791E-02
   15.5000  3.7533734E-02  2.2943646E-02  3.8631734E-02
   15.7500  3.7947831E-02  2.2233180E-02  3.8964081E-02
   16.0000  3.8381510E-02  2.1645305E-02  3.9317953E-02
   16.2500  3.8826244E-02  2.1165867E-02  3.9680214E-02
   16.5000  3.9271259E-02  2.0782818E-02  4.0033621E-02
   16.7500  3.9704576E-02  2.0485969E-02  4.0358491E-02
   17.0000  4.0114101E-02  2.0266732E-02  4.0634754E-02
   17.2500  4.0488696E-02  2.0117854E-02  4.0844173E-02
   17.5000  4.0819138E-02  2.0033181E-02  4.0972381E-02
   17.7500  4.1098874E-02  2.0007440E-02  4.1010405E-02
   18.0000  4.1324507E-02  2.0036049E-02  4.0955416E-02
   18.2500  4.1495933E-02  2.0114961E-02  4.0810610E-02
   18.5000  4.1616148E-02  2.0240545E-02  4.0584319E-02
   18.7500  4.1690722E-02  2.0409496E-02  4.0288600E-02
   19.0000  4.1727043E-02  2.0618797E-02  3.9937579E-02
   19.2500  4.1733417E-02  2.0865710E-02  3.9545851E-02
   19.5000  4.1718138E-02  2.1147804E-02  3.9127108E-02
   19.7500  4.1688670E-02  2.1462938E-02  3.8693203E-02
   20.0000  4.1651054E-02  2.1809096E-02  3.8253819E-02
   21.0000  4.1482552E-02  2.3454502E-02  3.6579269E-02
   22.0000  4.1266449E-02  2.5399302E-02  3.5196795E-02
   23.0000  4.0798574E-02  2.7498717E-02  3.4092135E-02
   24.0000  3.9874060E-02  2.9579213E-02  3.3153564E-02
   25.0000  3.8413208E-02  3.1442903E-02  3.2272379E-02
   26.0000  3.6464185E-02  3.2914881E-02  3.1369881E-02
   27.0000  3.4204109E-02  3.3886193E-02  3.0417442E-02
   28.0000  3.1908588E-02  3.4339728E-02  2.9449457E-02
   29.0000  2.9806000E-02  3.4357300E-02  2.8532712E-02
   30.0000  2.8039232E-02  3.4065785E-02  2.7742629E-02
   31.0000  2.6666178E-02  3.3587391E-02  2.7133743E-02
   32.0000  2.5666912E-02  3.3014458E-02  2.6716211E-02
   33.0000  2.4971519E-02  3.2400949E-02  2.6457740E-02
   34.0000  2.4489898E-02  3.1767637E-02  2.6302980E-02
   35.0000  2.4131129E-02  3.1114716E-02  2.6192650E-02
   36.0000  2.3814760E-02  3.0436951E-02  2.6075045E-02
   37.0000  2.3481290E-02  2.9738092E-02  2.5912603E-02
   38.0000  2.3105145E-02  2.9041597E-02  2.5688935E-02
   39.0000  2.2706567E-02  2.8396391E-02  2.5420137E-02
   40.0000  2.2348599E-02  2.7872036E-02  2.5162279E-02
