    Energy   (100,001)      (010,001)      (001,110)   
  -25.0000  1.7294420E-04  1.8818921E-04  1.8297745E-04
  -24.0000  1.7912666E-04  1.9517142E-04  1.8975118E-04
  -23.0000  1.8572623E-04  2.0264965E-04  1.9700460E-04
  -22.0000  1.9278541E-04  2.1067754E-04  2.0478942E-04
  -21.0000  2.0035258E-04  2.1931668E-04  2.1316499E-04
  -20.0000  2.0848308E-04  2.2863806E-04  2.2219972E-04
  -19.0000  2.1724047E-04  2.3872399E-04  2.3197291E-04
  -18.0000  2.2669815E-04  2.4967038E-04  2.4257698E-04
  -17.0000  2.3694127E-04  2.6158966E-04  2.5412028E-04
  -16.0000  2.4806921E-04  2.7461449E-04  2.6673069E-04
  -15.0000  2.6019869E-04  2.8890241E-04  2.8056018E-04
  -14.0000  2.7346766E-04  3.0464198E-04  2.9579073E-04
  -13.0000  2.8804039E-04  3.2206065E-04  3.1264217E-04
  -12.0000  3.0411405E-04  3.4143531E-04  3.3138244E-04
  -11.0000  3.2192739E-04  3.6310628E-04  3.5234157E-04
  -10.0000  3.4177234E-04  3.8749642E-04  3.7593069E-04
  -9.00000  3.6400976E-04  4.1513754E-04  4.0266857E-04
  -8.00000  3.8909122E-04  4.4670748E-04  4.3321939E-04
  -7.00000  4.1758969E-04  4.8308356E-04  4.6844749E-04
  -6.00000  4.5024387E-04  5.2542114E-04  5.0949930E-04
  -5.00000  4.8802380E-04  5.7527253E-04  5.5792906E-04
  -4.00000  5.3223139E-04  6.3477293E-04  6.1589921E-04
  -3.00000  5.8466007E-04  7.0694226E-04  6.8651304E-04
  -2.00000  6.4786053E-04  7.9619919E-04  7.7439596E-04
  -1.00000  7.2560986E-04  9.0928893E-04  8.8677681E-04
   0.00000  8.2380480E-04  1.0570904E-03  1.0356690E-03
   1.00000  9.5234767E-04  1.2585167E-03  1.2427677E-03
   2.00000  1.1297597E-03  1.5502589E-03  1.5522272E-03
   3.00000  1.3973130E-03  2.0172160E-03  2.0724197E-03
   4.00000  1.8811816E-03  2.9285590E-03  3.1707716E-03
   5.00000  3.1155887E-03  5.4474511E-03  6.5142540E-03
   5.20000  3.5023792E-03  6.2448048E-03  7.5814239E-03
   5.40000  3.9012052E-03  7.0563576E-03  8.6287081E-03
   5.60000  4.3035498E-03  7.8641715E-03  9.6079958E-03
   5.80000  4.7121990E-03  8.6799636E-03  1.0530651E-02
   6.00000  5.1330672E-03  9.5231530E-03  1.1443872E-02
   6.20000  5.5726496E-03  1.0410641E-02  1.2410236E-02
   6.40000  6.0380609E-03  1.1355160E-02  1.3492236E-02
   6.60000  6.5369650E-03  1.2366425E-02  1.4742135E-02
   6.80000  7.0772000E-03  1.3452656E-02  1.6197310E-02
   7.00000  7.6664558E-03  1.4621654E-02  1.7878236E-02
   7.20000  8.3119519E-03  1.5881293E-02  1.9784213E-02
   7.40000  9.0197690E-03  1.7239711E-02  2.1882657E-02
   7.60000  9.7935991E-03  1.8705636E-02  2.4092315E-02
   7.80000  1.0633323E-02  2.0289146E-02  2.6269445E-02
   8.00000  1.1534783E-02  2.2002957E-02  2.8215638E-02
   8.20000  1.2492238E-02  2.3863594E-02  2.9724718E-02
   8.40000  1.3503266E-02  2.5891133E-02  3.0659662E-02
   8.60000  1.4573150E-02  2.8106537E-02  3.1014138E-02
   8.80000  1.5715214E-02  3.0527066E-02  3.0913406E-02
   9.00000  1.6946461E-02  3.3161032E-02  3.0556855E-02
   9.20000  1.8281099E-02  3.6002573E-02  3.0146119E-02
   9.40000  1.9724743E-02  3.9026299E-02  2.9837022E-02
   9.60000  2.1270431E-02  4.2181945E-02  2.9723052E-02
   9.80000  2.2896443E-02  4.5390268E-02  2.9838813E-02
   10.0000  2.4565775E-02  4.8542176E-02  3.0171029E-02
   10.2500  2.6634811E-02  5.2196356E-02  3.0814374E-02
   10.5000  2.8572751E-02  5.5264543E-02  3.1578964E-02
   10.7500  3.0260615E-02  5.7485111E-02  3.2313551E-02
   11.0000  3.1604464E-02  5.8675702E-02  3.2894110E-02
   11.2500  3.2555177E-02  5.8763285E-02  3.3253518E-02
   11.5000  3.3113806E-02  5.7781678E-02  3.3386668E-02
   11.7500  3.3324519E-02  5.5853976E-02  3.3329741E-02
   12.0000  3.3262730E-02  5.3174151E-02  3.3135365E-02
   12.2500  3.3019941E-02  4.9980982E-02  3.2855777E-02
   12.5000  3.2687919E-02  4.6522616E-02  3.2534140E-02
   12.7500  3.2347420E-02  4.3021746E-02  3.2202142E-02
   13.0000  3.2063054E-02  3.9651554E-02  3.1881158E-02
   13.2500  3.1881290E-02  3.6527188E-02  3.1585470E-02
   13.5000  3.1830354E-02  3.3710477E-02  3.1326225E-02
   13.7500  3.1922993E-02  3.1222048E-02  3.1113813E-02
   14.0000  3.2160664E-02  2.9055175E-02  3.0958112E-02
   14.2500  3.2537076E-02  2.7187658E-02  3.0867636E-02
   14.5000  3.3040519E-02  2.5590372E-02  3.0848480E-02
   14.7500  3.3655240E-02  2.4232640E-02  3.0903461E-02
   15.0000  3.4362199E-02  2.3085218E-02  3.1031633E-02
   15.2500  3.5139450E-02  2.2121712E-02  3.1228141E-02
   15.5000  3.5962373E-02  2.1319048E-02  3.1484389E-02
   15.7500  3.6803928E-02  2.0657446E-02  3.1788466E-02
   16.0000  3.7635139E-02  2.0120136E-02  3.2125819E-02
   16.2500  3.8425933E-02  1.9692982E-02  3.2480167E-02
   16.5000  3.9146437E-02  1.9364086E-02  3.2834598E-02
   16.7500  3.9768717E-02  1.9123411E-02  3.3172759E-02
   17.0000  4.0268843E-02  1.8962438E-02  3.3480035E-02
   17.2500  4.0629005E-02  1.8873875E-02  3.3744544E-02
   17.5000  4.0839313E-02  1.8851414E-02  3.3957845E-02
   17.7500  4.0898887E-02  1.8889538E-02  3.4115268E-02
   18.0000  4.0815934E-02  1.8983379E-02  3.4215850E-02
   18.2500  4.0606711E-02  1.9128601E-02  3.4261925E-02
   18.5000  4.0293535E-02  1.9321332E-02  3.4258456E-02
   18.7500  3.9902187E-02  1.9558109E-02  3.4212225E-02
   19.0000  3.9459144E-02  1.9835861E-02  3.4130987E-02
   19.2500  3.8989068E-02  2.0151917E-02  3.4022688E-02
   19.5000  3.8512830E-02  2.0504025E-02  3.3894799E-02
   19.7500  3.8046271E-02  2.0890313E-02  3.3753840E-02
   20.0000  3.7599844E-02  2.1309072E-02  3.3605173E-02
   21.0000  3.6075998E-02  2.3263143E-02  3.3005934E-02
   22.0000  3.4814271E-02  2.5547413E-02  3.2465861E-02
   23.0000  3.3457185E-02  2.8013648E-02  3.1939772E-02
   24.0000  3.1924614E-02  3.0482343E-02  3.1341306E-02
   25.0000  3.0467223E-02  3.2721825E-02  3.0617319E-02
   26.0000  2.9353099E-02  3.4470843E-02  2.9769069E-02
   27.0000  2.8637049E-02  3.5527721E-02  2.8856305E-02
   28.0000  2.8194358E-02  3.5847758E-02  2.7978903E-02
   29.0000  2.7873557E-02  3.5554503E-02  2.7231530E-02
   30.0000  2.7587536E-02  3.4859570E-02  2.6663788E-02
   31.0000  2.7309710E-02  3.3976715E-02  2.6272673E-02
   32.0000  2.7036082E-02  3.3067299E-02  2.6018935E-02
   33.0000  2.6759135E-02  3.2199755E-02  2.5850693E-02
   34.0000  2.6466800E-02  3.1377447E-02  2.5718950E-02
   35.0000  2.6148033E-02  3.0577459E-02  2.5585591E-02
   36.0000  2.5796181E-02  2.9772458E-02  2.5430306E-02
   37.0000  2.5412250E-02  2.8947051E-02  2.5256083E-02
   38.0000  2.5009937E-02  2.8112313E-02  2.5086483E-02
   39.0000  2.4621708E-02  2.7319187E-02  2.4949484E-02
   40.0000  2.4297134E-02  2.6659232E-02  2.4855871E-02
