    Energy   (100,001)      (010,001)      (001,110)   
  -25.0000  1.6669306E-04  1.8291764E-04  1.7668225E-04
  -24.0000  1.7283562E-04  1.8981427E-04  1.8323509E-04
  -23.0000  1.7939908E-04  1.9720615E-04  1.9024635E-04
  -22.0000  1.8642667E-04  2.0514726E-04  1.9776448E-04
  -21.0000  1.9396762E-04  2.1369962E-04  2.0584490E-04
  -20.0000  2.0207829E-04  2.2293484E-04  2.1455131E-04
  -19.0000  2.1082344E-04  2.3293598E-04  2.2395730E-04
  -18.0000  2.2027789E-04  2.4379996E-04  2.3414831E-04
  -17.0000  2.3052852E-04  2.5564053E-04  2.4522412E-04
  -16.0000  2.4167679E-04  2.6859204E-04  2.5730201E-04
  -15.0000  2.5384195E-04  2.8281430E-04  2.7052069E-04
  -14.0000  2.6716508E-04  2.9849880E-04  2.8504553E-04
  -13.0000  2.8181430E-04  3.1587697E-04  3.0107519E-04
  -12.0000  2.9799163E-04  3.3523097E-04  3.1885054E-04
  -11.0000  3.1594199E-04  3.5690831E-04  3.3866649E-04
  -10.0000  3.3596524E-04  3.8134166E-04  3.6088814E-04
  -9.00000  3.5843265E-04  4.0907646E-04  3.8597319E-04
  -8.00000  3.8380966E-04  4.4080980E-04  4.1450354E-04
  -7.00000  4.1268820E-04  4.7744653E-04  4.4723108E-04
  -6.00000  4.4583345E-04  5.2018234E-04  4.8514574E-04
  -5.00000  4.8425368E-04  5.7062998E-04  5.2957980E-04
  -4.00000  5.2930782E-04  6.3101766E-04  5.8237386E-04
  -3.00000  5.8287794E-04  7.0451341E-04  6.4615274E-04
  -2.00000  6.4765953E-04  7.9578125E-04  7.2480965E-04
  -1.00000  7.2768085E-04  9.1199374E-04  8.2441511E-04
   0.00000  8.2930871E-04  1.0648237E-03  9.5507656E-04
   1.00000  9.6341650E-04  1.2747929E-03  1.1352033E-03
   2.00000  1.1508247E-03  1.5822851E-03  1.4029557E-03
   3.00000  1.4394810E-03  2.0824903E-03  1.8549285E-03
   4.00000  1.9825781E-03  3.0843977E-03  2.8320244E-03
   5.00000  3.4478536E-03  5.9472674E-03  5.9843669E-03
   5.20000  3.9046133E-03  6.8544470E-03  7.0642939E-03
   5.40000  4.3635881E-03  7.7654798E-03  8.1592812E-03
   5.60000  4.8127972E-03  8.6524863E-03  9.1735207E-03
   5.80000  5.2576927E-03  9.5237882E-03  1.0044168E-02
   6.00000  5.7092433E-03  1.0400762E-02  1.0751241E-02
   6.20000  6.1788671E-03  1.1307052E-02  1.1316302E-02
   6.40000  6.6769158E-03  1.2265266E-02  1.1783898E-02
   6.60000  7.2117697E-03  1.3295480E-02  1.2199213E-02
   6.80000  7.7893607E-03  1.4414420E-02  1.2596103E-02
   7.00000  8.4132180E-03  1.5635177E-02  1.2996511E-02
   7.20000  9.0848102E-03  1.6967484E-02  1.3415029E-02
   7.40000  9.8040348E-03  1.8418932E-02  1.3863122E-02
   7.60000  1.0569886E-02  1.9997115E-02  1.4350925E-02
   7.80000  1.1381298E-02  2.1711979E-02  1.4887624E-02
   8.00000  1.2237972E-02  2.3577817E-02  1.5482622E-02
   8.20000  1.3140830E-02  2.5614137E-02  1.6148028E-02
   8.40000  1.4091813E-02  2.7844373E-02  1.6900326E-02
   8.60000  1.5093081E-02  3.0292042E-02  1.7758613E-02
   8.80000  1.6146003E-02  3.2974471E-02  1.8739297E-02
   9.00000  1.7250280E-02  3.5894202E-02  1.9849753E-02
   9.20000  1.8403372E-02  3.9028686E-02  2.1083849E-02
   9.40000  1.9600243E-02  4.2319964E-02  2.2421073E-02
   9.60000  2.0833372E-02  4.5667407E-02  2.3829401E-02
   9.80000  2.2093003E-02  4.8927136E-02  2.5270634E-02
   10.0000  2.3367434E-02  5.1921029E-02  2.6706018E-02
   10.2500  2.4960436E-02  5.4996770E-02  2.8438576E-02
   10.5000  2.6524258E-02  5.7018826E-02  3.0049972E-02
   10.7500  2.8020815E-02  5.7764234E-02  3.1498763E-02
   11.0000  2.9402893E-02  5.7174958E-02  3.2757567E-02
   11.2500  3.0619971E-02  5.5376202E-02  3.3810258E-02
   11.5000  3.1631373E-02  5.2647806E-02  3.4653917E-02
   11.7500  3.2418922E-02  4.9347191E-02  3.5300245E-02
   12.0000  3.2991895E-02  4.5819828E-02  3.5771789E-02
   12.2500  3.3382258E-02  4.2337060E-02  3.6097095E-02
   12.5000  3.3634900E-02  3.9075326E-02  3.6306525E-02
   12.7500  3.3797836E-02  3.6126558E-02  3.6429363E-02
   13.0000  3.3914812E-02  3.3522187E-02  3.6493343E-02
   13.2500  3.4021520E-02  3.1257112E-02  3.6525072E-02
   13.5000  3.4144756E-02  2.9307367E-02  3.6549245E-02
   13.7500  3.4302898E-02  2.7641094E-02  3.6587188E-02
   14.0000  3.4506773E-02  2.6224777E-02  3.6655757E-02
   14.2500  3.4760612E-02  2.5026523E-02  3.6766673E-02
   14.5000  3.5063014E-02  2.4017592E-02  3.6926170E-02
   14.7500  3.5407842E-02  2.3172912E-02  3.7134890E-02
   15.0000  3.5785051E-02  2.2471043E-02  3.7388058E-02
   15.2500  3.6181495E-02  2.1893878E-02  3.7675939E-02
   15.5000  3.6581773E-02  2.1426241E-02  3.7984599E-02
   15.7500  3.6969166E-02  2.1055440E-02  3.8297004E-02
   16.0000  3.7326746E-02  2.0770848E-02  3.8594415E-02
   16.2500  3.7638636E-02  2.0563524E-02  3.8858024E-02
   16.5000  3.7891369E-02  2.0425877E-02  3.9070666E-02
   16.7500  3.8075200E-02  2.0351390E-02  3.9218376E-02
   17.0000  3.8185193E-02  2.0334391E-02  3.9291580E-02
   17.2500  3.8221874E-02  2.0369868E-02  3.9285718E-02
   17.5000  3.8191339E-02  2.0453327E-02  3.9201251E-02
   17.7500  3.8104741E-02  2.0580694E-02  3.9043090E-02
   18.0000  3.7977233E-02  2.0748249E-02  3.8819615E-02
   18.2500  3.7826544E-02  2.0952581E-02  3.8541494E-02
   18.5000  3.7671381E-02  2.1190582E-02  3.8220484E-02
   18.7500  3.7529909E-02  2.1459446E-02  3.7868385E-02
   19.0000  3.7418449E-02  2.1756696E-02  3.7496203E-02
   19.2500  3.7350514E-02  2.2080222E-02  3.7113553E-02
   19.5000  3.7336164E-02  2.2428327E-02  3.6728280E-02
   19.7500  3.7381614E-02  2.2799713E-02  3.6346318E-02
   20.0000  3.7488999E-02  2.3193289E-02  3.5971850E-02
   21.0000  3.8446445E-02  2.4958806E-02  3.4596492E-02
   22.0000  3.9732552E-02  2.6946042E-02  3.3439999E-02
   23.0000  4.0416551E-02  2.9023934E-02  3.2420887E-02
   24.0000  3.9766358E-02  3.0997929E-02  3.1433521E-02
   25.0000  3.7696112E-02  3.2638121E-02  3.0417324E-02
   26.0000  3.4761486E-02  3.3755279E-02  2.9384801E-02
   27.0000  3.1739574E-02  3.4277623E-02  2.8408965E-02
   28.0000  2.9134319E-02  3.4280679E-02  2.7558541E-02
   29.0000  2.7117663E-02  3.3911575E-02  2.6874908E-02
   30.0000  2.5663275E-02  3.3312913E-02  2.6367184E-02
   31.0000  2.4660220E-02  3.2589385E-02  2.6012444E-02
   32.0000  2.3981290E-02  3.1803519E-02  2.5766830E-02
   33.0000  2.3513175E-02  3.0985148E-02  2.5579905E-02
   34.0000  2.3165787E-02  3.0143694E-02  2.5405114E-02
   35.0000  2.2873368E-02  2.9279151E-02  2.5205211E-02
   36.0000  2.2593871E-02  2.8391872E-02  2.4955287E-02
   37.0000  2.2308048E-02  2.7491487E-02  2.4646147E-02
   38.0000  2.2017556E-02  2.6605528E-02  2.4288896E-02
   39.0000  2.1741574E-02  2.5788796E-02  2.3920029E-02
   40.0000  2.1509967E-02  2.5123374E-02  2.3599285E-02
