    Energy   (100,001)      (010,001)      (001,110)   
  -25.0000  1.6281113E-04  1.7373949E-04  1.6276012E-04
  -24.0000  1.6910497E-04  1.8068688E-04  1.6915308E-04
  -23.0000  1.7584565E-04  1.8815320E-04  1.7600531E-04
  -22.0000  1.8308035E-04  1.9619666E-04  1.8336573E-04
  -21.0000  1.9086296E-04  2.0488432E-04  1.9129030E-04
  -20.0000  1.9925533E-04  2.1429385E-04  1.9984325E-04
  -19.0000  2.0832878E-04  2.2451565E-04  2.0909872E-04
  -18.0000  2.1816593E-04  2.3565552E-04  2.1914267E-04
  -17.0000  2.2886301E-04  2.4783806E-04  2.3007532E-04
  -16.0000  2.4053279E-04  2.6121096E-04  2.4201419E-04
  -15.0000  2.5330822E-04  2.7595056E-04  2.5509791E-04
  -14.0000  2.6734711E-04  2.9226897E-04  2.6949122E-04
  -13.0000  2.8283820E-04  3.1042354E-04  2.8539123E-04
  -12.0000  3.0000908E-04  3.3072934E-04  3.0303575E-04
  -11.0000  3.1913658E-04  3.5357607E-04  3.2271427E-04
  -10.0000  3.4056091E-04  3.7945113E-04  3.4478262E-04
  -9.00000  3.6470473E-04  4.0897172E-04  3.6968300E-04
  -8.00000  3.9209976E-04  4.4293038E-04  3.9797174E-04
  -7.00000  4.2342445E-04  4.8236080E-04  4.3035849E-04
  -6.00000  4.5955857E-04  5.2863550E-04  4.6776292E-04
  -5.00000  5.0166453E-04  5.8361446E-04  5.1139885E-04
  -4.00000  5.5131254E-04  6.4987906E-04  5.6290306E-04
  -3.00000  6.1068051E-04  7.3111400E-04  6.2453989E-04
  -2.00000  6.8288902E-04  8.3276039E-04  6.9954147E-04
  -1.00000  7.7259690E-04  9.6319725E-04  7.9270673E-04
   0.00000  8.8714583E-04  1.1360406E-03  9.1153854E-04
   1.00000  1.0390054E-03  1.3750765E-03  1.0686349E-03
   2.00000  1.2518530E-03  1.7264270E-03  1.2875177E-03
   3.00000  1.5796263E-03  2.2957270E-03  1.6204554E-03
   4.00000  2.1928396E-03  3.4095168E-03  2.2270001E-03
   5.00000  3.8308708E-03  6.4472615E-03  3.7873348E-03
   5.20000  4.3395862E-03  7.4179710E-03  4.2783514E-03
   5.40000  4.8498677E-03  8.4226633E-03  4.7801741E-03
   5.60000  5.3483833E-03  9.4413853E-03  5.2750233E-03
   5.80000  5.8409554E-03  1.0486130E-02  5.7612740E-03
   6.00000  6.3370142E-03  1.1578789E-02  6.2457822E-03
   6.20000  6.8426981E-03  1.2742837E-02  6.7411358E-03
   6.40000  7.3612592E-03  1.4004026E-02  7.2647379E-03
   6.60000  7.8964033E-03  1.5392326E-02  7.8364480E-03
   6.80000  8.4551731E-03  1.6942069E-02  8.4751600E-03
   7.00000  9.0485584E-03  1.8690494E-02  9.1959562E-03
   7.20000  9.6902984E-03  2.0675875E-02  1.0008610E-02
   7.40000  1.0395434E-02  2.2936196E-02  1.0917206E-02
   7.60000  1.1179657E-02  2.5508600E-02  1.1920511E-02
   7.80000  1.2059663E-02  2.8429182E-02  1.3013237E-02
   8.00000  1.3054243E-02  3.1732043E-02  1.4188771E-02
   8.20000  1.4185549E-02  3.5445641E-02  1.5443584E-02
   8.40000  1.5479630E-02  3.9583486E-02  1.6781879E-02
   8.60000  1.6965306E-02  4.4126160E-02  1.8217576E-02
   8.80000  1.8670898E-02  4.8994241E-02  1.9772046E-02
   9.00000  2.0619023E-02  5.4017291E-02  2.1469429E-02
   9.20000  2.2819613E-02  5.8911374E-02  2.3332402E-02
   9.40000  2.5261074E-02  6.3284047E-02  2.5379092E-02
   9.60000  2.7900656E-02  6.6685622E-02  2.7620306E-02
   9.80000  3.0657268E-02  6.8709858E-02  3.0056523E-02
   10.0000  3.3410927E-02  6.9114028E-02  3.2673864E-02
   10.2500  3.6620328E-02  6.7366953E-02  3.6146284E-02
   10.5000  3.9290685E-02  6.3613344E-02  3.9722838E-02
   10.7500  4.1190337E-02  5.8659248E-02  4.3207563E-02
   11.0000  4.2227362E-02  5.3287306E-02  4.6346137E-02
   11.2500  4.2469983E-02  4.8061860E-02  4.8871295E-02
   11.5000  4.2105597E-02  4.3294265E-02  5.0567295E-02
   11.7500  4.1366754E-02  3.9101583E-02  5.1328653E-02
   12.0000  4.0467308E-02  3.5487128E-02  5.1189148E-02
   12.2500  3.9569871E-02  3.2402302E-02  5.0306149E-02
   12.5000  3.8779934E-02  2.9782863E-02  4.8905274E-02
   12.7500  3.8154418E-02  2.7566099E-02  4.7217291E-02
   13.0000  3.7714664E-02  2.5696359E-02  4.5437326E-02
   13.2500  3.7457997E-02  2.4125553E-02  4.3709681E-02
   13.5000  3.7366059E-02  2.2812376E-02  4.2128840E-02
   13.7500  3.7410393E-02  2.1721380E-02  4.0748374E-02
   14.0000  3.7556261E-02  2.0822156E-02  3.9591795E-02
   14.2500  3.7765527E-02  2.0088696E-02  3.8661985E-02
   14.5000  3.7999173E-02  1.9498882E-02  3.7948200E-02
   14.7500  3.8219718E-02  1.9034027E-02  3.7430839E-02
   15.0000  3.8393597E-02  1.8678440E-02  3.7084561E-02
   15.2500  3.8493360E-02  1.8419000E-02  3.6880384E-02
   15.5000  3.8499479E-02  1.8244759E-02  3.6787275E-02
   15.7500  3.8401549E-02  1.8146565E-02  3.6773589E-02
   16.0000  3.8198732E-02  1.8116740E-02  3.6808530E-02
   16.2500  3.7899342E-02  1.8148798E-02  3.6863664E-02
   16.5000  3.7519635E-02  1.8237214E-02  3.6914327E-02
   16.7500  3.7081900E-02  1.8377244E-02  3.6940760E-02
   17.0000  3.6612089E-02  1.8564786E-02  3.6928771E-02
   17.2500  3.6137299E-02  1.8796259E-02  3.6869837E-02
   17.5000  3.5683392E-02  1.9068510E-02  3.6760660E-02
   17.7500  3.5273046E-02  1.9378733E-02  3.6602312E-02
   18.0000  3.4924391E-02  1.9724398E-02  3.6399128E-02
   18.2500  3.4650279E-02  2.0103193E-02  3.6157558E-02
   18.5000  3.4458141E-02  2.0512983E-02  3.5885110E-02
   18.7500  3.4350311E-02  2.0951784E-02  3.5589472E-02
   19.0000  3.4324680E-02  2.1417768E-02  3.5277861E-02
   19.2500  3.4375537E-02  2.1909296E-02  3.4956562E-02
   19.5000  3.4494473E-02  2.2424976E-02  3.4630658E-02
   19.7500  3.4671159E-02  2.2963632E-02  3.4303927E-02
   20.0000  3.4893769E-02  2.3524064E-02  3.3978976E-02
   21.0000  3.5961706E-02  2.5936681E-02  3.2727069E-02
   22.0000  3.6655732E-02  2.8475298E-02  3.1569125E-02
   23.0000  3.6355432E-02  3.0913043E-02  3.0467276E-02
   24.0000  3.4933662E-02  3.2948646E-02  2.9394024E-02
   25.0000  3.2782949E-02  3.4280052E-02  2.8372535E-02
   26.0000  3.0476232E-02  3.4784238E-02  2.7453383E-02
   27.0000  2.8439889E-02  3.4543294E-02  2.6696598E-02
   28.0000  2.6847701E-02  3.3769706E-02  2.6142361E-02
   29.0000  2.5681819E-02  3.2703042E-02  2.5781258E-02
   30.0000  2.4838604E-02  3.1529509E-02  2.5550548E-02
   31.0000  2.4203211E-02  3.0355761E-02  2.5356423E-02
   32.0000  2.3681048E-02  2.9221788E-02  2.5103556E-02
   33.0000  2.3202230E-02  2.8126331E-02  2.4716411E-02
   34.0000  2.2717159E-02  2.7050947E-02  2.4150174E-02
   35.0000  2.2194199E-02  2.5978370E-02  2.3396924E-02
   36.0000  2.1622891E-02  2.4904584E-02  2.2491501E-02
   37.0000  2.1018519E-02  2.3845630E-02  2.1511983E-02
   38.0000  2.0420198E-02  2.2840190E-02  2.0565646E-02
   39.0000  1.9880387E-02  2.1948664E-02  1.9758131E-02
   40.0000  1.9450069E-02  2.1242602E-02  1.9154234E-02
