    Energy   (100,001)      (010,001)      (001,110)   
  -25.0000  1.7409730E-04  1.9136028E-04  1.8666618E-04
  -24.0000  1.8000933E-04  1.9841342E-04  1.9296704E-04
  -23.0000  1.8630023E-04  2.0596613E-04  1.9967518E-04
  -22.0000  1.9300678E-04  2.1407236E-04  2.0683079E-04
  -21.0000  2.0017061E-04  2.2279401E-04  2.1447953E-04
  -20.0000  2.0783906E-04  2.3220247E-04  2.2267343E-04
  -19.0000  2.1606623E-04  2.4238047E-04  2.3147212E-04
  -18.0000  2.2491416E-04  2.5342442E-04  2.4094424E-04
  -17.0000  2.3445442E-04  2.6544732E-04  2.5116922E-04
  -16.0000  2.4476998E-04  2.7858244E-04  2.6223949E-04
  -15.0000  2.5595759E-04  2.9298808E-04  2.7426331E-04
  -14.0000  2.6813085E-04  3.0885363E-04  2.8736834E-04
  -13.0000  2.8142399E-04  3.2640756E-04  3.0170619E-04
  -12.0000  2.9599694E-04  3.4592790E-04  3.1745850E-04
  -11.0000  3.1204185E-04  3.6775639E-04  3.3484482E-04
  -10.0000  3.2979180E-04  3.9231758E-04  3.5413330E-04
  -9.00000  3.4953263E-04  4.2014534E-04  3.7565526E-04
  -8.00000  3.7161918E-04  4.5192020E-04  3.9982557E-04
  -7.00000  3.9649819E-04  4.8852291E-04  4.2717169E-04
  -6.00000  4.2474147E-04  5.3111362E-04  4.5837628E-04
  -5.00000  4.5709515E-04  5.8125161E-04  4.9434182E-04
  -4.00000  4.9455575E-04  6.4108290E-04  5.3629213E-04
  -3.00000  5.3849257E-04  7.1364583E-04  5.8593968E-04
  -2.00000  5.9085576E-04  8.0339311E-04  6.4577722E-04
  -1.00000  6.5455408E-04  9.1713937E-04  7.1962400E-04
   0.00000  7.3420409E-04  1.0659209E-03  8.1374729E-04
   1.00000  8.3779945E-04  1.2690530E-03  9.3946612E-04
   2.00000  9.8108841E-04  1.5644257E-03  1.1203134E-03
   3.00000  1.2021525E-03  2.0413661E-03  1.4172695E-03
   4.00000  1.6314175E-03  2.9917591E-03  2.0579783E-03
   5.00000  2.8767523E-03  5.7040324E-03  4.1277117E-03
   5.20000  3.2724534E-03  6.5521030E-03  4.7342935E-03
   5.40000  3.6587681E-03  7.3914697E-03  5.2560227E-03
   5.60000  4.0130279E-03  8.1964833E-03  5.6623656E-03
   5.80000  4.3316052E-03  8.9784473E-03  5.9740534E-03
   6.00000  4.6203281E-03  9.7599049E-03  6.2307572E-03
   6.20000  4.8876460E-03  1.0562335E-02  6.4705077E-03
   6.40000  5.1416341E-03  1.1403332E-02  6.7196950E-03
   6.60000  5.3890451E-03  1.2296804E-02  6.9887287E-03
   6.80000  5.6352788E-03  1.3254126E-02  7.2722508E-03
   7.00000  5.8847352E-03  1.4286014E-02  7.5539765E-03
   7.20000  6.1412604E-03  1.5404734E-02  7.8157725E-03
   7.40000  6.4085014E-03  1.6625941E-02  8.0483831E-03
   7.60000  6.6901301E-03  1.7969302E-02  8.2585328E-03
   7.80000  6.9899833E-03  1.9457602E-02  8.4680358E-03
   8.00000  7.3121511E-03  2.1114787E-02  8.7060122E-03
   8.20000  7.6610265E-03  2.2963742E-02  8.9998036E-03
   8.40000  8.0413169E-03  2.5024183E-02  9.3692176E-03
   8.60000  8.4580094E-03  2.7310658E-02  9.8248806E-03
   8.80000  8.9162971E-03  2.9830139E-02  1.0369138E-02
   9.00000  9.4214841E-03  3.2578483E-02  1.0997896E-02
   9.20000  9.9788629E-03  3.5535987E-02  1.1702574E-02
   9.40000  1.0593539E-02  3.8662904E-02  1.2471963E-02
   9.60000  1.1270183E-02  4.1895929E-02  1.3294046E-02
   9.80000  1.2012700E-02  4.5146779E-02  1.4157742E-02
   10.0000  1.2823748E-02  4.8303642E-02  1.5054327E-02
   10.2500  1.3934716E-02  5.1917905E-02  1.6213084E-02
   10.5000  1.5148640E-02  5.4912568E-02  1.7410981E-02
   10.7500  1.6452036E-02  5.7048698E-02  1.8650960E-02
   11.0000  1.7823403E-02  5.8163803E-02  1.9937990E-02
   11.2500  1.9235774E-02  5.8203510E-02  2.1273171E-02
   11.5000  2.0658999E-02  5.7231336E-02  2.2650400E-02
   11.7500  2.2061049E-02  5.5408922E-02  2.4055704E-02
   12.0000  2.3408687E-02  5.2952105E-02  2.5468129E-02
   12.2500  2.4669185E-02  5.0084639E-02  2.6861855E-02
   12.5000  2.5814335E-02  4.7008706E-02  2.8209195E-02
   12.7500  2.6825440E-02  4.3891577E-02  2.9483866E-02
   13.0000  2.7697459E-02  4.0861316E-02  3.0664224E-02
   13.2500  2.8440313E-02  3.8007812E-02  3.1736393E-02
   13.5000  2.9076227E-02  3.5386983E-02  3.2696722E-02
   13.7500  2.9634589E-02  3.3026854E-02  3.3551781E-02
   14.0000  3.0146315E-02  3.0934542E-02  3.4314425E-02
   14.2500  3.0639223E-02  2.9102920E-02  3.4999050E-02
   14.5000  3.1135324E-02  2.7516032E-02  3.5620088E-02
   14.7500  3.1649794E-02  2.6153133E-02  3.6192468E-02
   15.0000  3.2190931E-02  2.4991618E-02  3.6731431E-02
   15.2500  3.2760687E-02  2.4009018E-02  3.7251306E-02
   15.5000  3.3355535E-02  2.3184236E-02  3.7763955E-02
   15.7500  3.3967559E-02  2.2498179E-02  3.8277413E-02
   16.0000  3.4585656E-02  2.1933983E-02  3.8794984E-02
   16.2500  3.5196775E-02  2.1476973E-02  3.9314841E-02
   16.5000  3.5787150E-02  2.1114493E-02  3.9830169E-02
   16.7500  3.6343446E-02  2.0835670E-02  4.0329801E-02
   17.0000  3.6853765E-02  2.0631178E-02  4.0799319E-02
   17.2500  3.7308479E-02  2.0493013E-02  4.1222531E-02
   17.5000  3.7700853E-02  2.0414304E-02  4.1583174E-02
   17.7500  3.8027459E-02  2.0389145E-02  4.1866644E-02
   18.0000  3.8288361E-02  2.0412459E-02  4.2061535E-02
   18.2500  3.8487076E-02  2.0479885E-02  4.2160771E-02
   18.5000  3.8630300E-02  2.0587687E-02  4.2162189E-02
   18.7500  3.8727409E-02  2.0732683E-02  4.2068511E-02
   19.0000  3.8789755E-02  2.0912198E-02  4.1886750E-02
   19.2500  3.8829824E-02  2.1124042E-02  4.1627170E-02
   19.5000  3.8860301E-02  2.1366496E-02  4.1302001E-02
   19.7500  3.8893190E-02  2.1638268E-02  4.0924205E-02
   20.0000  3.8939132E-02  2.1938321E-02  4.0506672E-02
   21.0000  3.9406216E-02  2.3396119E-02  3.8684974E-02
   22.0000  4.0453656E-02  2.5203649E-02  3.7039532E-02
   23.0000  4.1830772E-02  2.7260654E-02  3.5775654E-02
   24.0000  4.2957393E-02  2.9391994E-02  3.4846353E-02
   25.0000  4.3206249E-02  3.1350842E-02  3.4107452E-02
   26.0000  4.2195709E-02  3.2896250E-02  3.3410563E-02
   27.0000  3.9989214E-02  3.3891937E-02  3.2666187E-02
   28.0000  3.7063376E-02  3.4344064E-02  3.1873197E-02
   29.0000  3.4036979E-02  3.4356613E-02  3.1101854E-02
   30.0000  3.1380628E-02  3.4059542E-02  3.0442827E-02
   31.0000  2.9307358E-02  3.3563266E-02  2.9958142E-02
   32.0000  2.7826144E-02  3.2945883E-02  2.9660066E-02
   33.0000  2.6837960E-02  3.2262462E-02  2.9517550E-02
   34.0000  2.6209962E-02  3.1552487E-02  2.9474784E-02
   35.0000  2.5825335E-02  3.0828685E-02  2.9469079E-02
   36.0000  2.5599838E-02  3.0090583E-02  2.9444483E-02
   37.0000  2.5478058E-02  2.9342758E-02  2.9360161E-02
   38.0000  2.5423351E-02  2.8605116E-02  2.9198239E-02
   39.0000  2.5406622E-02  2.7921753E-02  2.8975347E-02
   40.0000  2.5400911E-02  2.7362789E-02  2.8750310E-02
