    Energy   (100,001)      (010,001)      (001,110)   
  -25.0000  1.6595352E-04  1.7542634E-04  1.8179717E-04
  -24.0000  1.7199283E-04  1.8242664E-04  1.8832546E-04
  -23.0000  1.7843841E-04  1.8994941E-04  1.9529803E-04
  -22.0000  1.8533105E-04  1.9805325E-04  2.0276065E-04
  -21.0000  1.9271712E-04  2.0680567E-04  2.1076551E-04
  -20.0000  2.0064948E-04  2.1628481E-04  2.1937236E-04
  -19.0000  2.0918873E-04  2.2658165E-04  2.2864998E-04
  -18.0000  2.1840455E-04  2.3780265E-04  2.3867794E-04
  -17.0000  2.2837760E-04  2.5007321E-04  2.4954872E-04
  -16.0000  2.3920161E-04  2.6354196E-04  2.6137052E-04
  -15.0000  2.5098627E-04  2.7838632E-04  2.7427069E-04
  -14.0000  2.6386064E-04  2.9481976E-04  2.8840016E-04
  -13.0000  2.7797769E-04  3.1310127E-04  3.0393919E-04
  -12.0000  2.9352009E-04  3.3354797E-04  3.2110482E-04
  -11.0000  3.1070777E-04  3.5655214E-04  3.4016084E-04
  -10.0000  3.2980798E-04  3.8260450E-04  3.6143109E-04
  -9.00000  3.5114883E-04  4.1232666E-04  3.8531776E-04
  -8.00000  3.7513777E-04  4.4651711E-04  4.1232683E-04
  -7.00000  4.0228748E-04  4.8621793E-04  4.4310429E-04
  -6.00000  4.3325279E-04  5.3281376E-04  4.7848905E-04
  -5.00000  4.6888470E-04  5.8818298E-04  5.1959238E-04
  -4.00000  5.1031216E-04  6.5493609E-04  5.6792146E-04
  -3.00000  5.5907023E-04  7.3680648E-04  6.2557938E-04
  -2.00000  6.1731059E-04  8.3932139E-04  6.9560576E-04
  -1.00000  6.8816788E-04  9.7102287E-04  7.8259436E-04
   0.00000  7.7644769E-04  1.1458606E-03  8.9390736E-04
   1.00000  8.9005939E-04  1.3883722E-03  1.0423344E-03
   2.00000  1.0434779E-03  1.7465983E-03  1.2528598E-03
   3.00000  1.2682285E-03  2.3320310E-03  1.5841779E-03
   4.00000  1.6584774E-03  3.4949717E-03  2.2255641E-03
   5.00000  2.6110264E-03  6.7393535E-03  4.0215856E-03
   5.20000  2.9123239E-03  7.7875337E-03  4.6199265E-03
   5.40000  3.2291330E-03  8.8742367E-03  5.2560506E-03
   5.60000  3.5534783E-03  9.9734237E-03  5.9152272E-03
   5.80000  3.8829743E-03  1.1092857E-02  6.5960553E-03
   6.00000  4.2164670E-03  1.2252722E-02  7.2971201E-03
   6.20000  4.5538166E-03  1.3477110E-02  8.0095776E-03
   6.40000  4.8972137E-03  1.4792877E-02  8.7149110E-03
   6.60000  5.2517918E-03  1.6229190E-02  9.3864004E-03
   6.80000  5.6253018E-03  1.7816617E-02  9.9950250E-03
   7.00000  6.0273316E-03  1.9586663E-02  1.0519761E-02
   7.20000  6.4684249E-03  2.1572118E-02  1.0958859E-02
   7.40000  6.9591655E-03  2.3807310E-02  1.1335858E-02
   7.60000  7.5091935E-03  2.6326607E-02  1.1695817E-02
   7.80000  8.1261434E-03  2.9159872E-02  1.2093270E-02
   8.00000  8.8144948E-03  3.2324608E-02  1.2578316E-02
   8.20000  9.5743243E-03  3.5815341E-02  1.3186703E-02
   8.40000  1.0400167E-02  3.9591345E-02  1.3935809E-02
   8.60000  1.1280717E-02  4.3564871E-02  1.4825110E-02
   8.80000  1.2200568E-02  4.7593976E-02  1.5839041E-02
   9.00000  1.3144781E-02  5.1485744E-02  1.6951089E-02
   9.20000  1.4105150E-02  5.5014684E-02  1.8128904E-02
   9.40000  1.5084775E-02  5.7955732E-02  1.9340248E-02
   9.60000  1.6097780E-02  6.0123616E-02  2.0558736E-02
   9.80000  1.7164053E-02  6.1405193E-02  2.1767719E-02
   10.0000  1.8301811E-02  6.1773274E-02  2.2961040E-02
   10.2500  1.9839730E-02  6.1033627E-02  2.4435118E-02
   10.5000  2.1504535E-02  5.9173510E-02  2.5906967E-02
   10.7500  2.3273995E-02  5.6479979E-02  2.7402129E-02
   11.0000  2.5106830E-02  5.3244715E-02  2.8945281E-02
   11.2500  2.6945595E-02  4.9727367E-02  3.0551601E-02
   11.5000  2.8721789E-02  4.6139651E-02  3.2216890E-02
   11.7500  3.0365042E-02  4.2642154E-02  3.3909881E-02
   12.0000  3.1816741E-02  3.9347020E-02  3.5573904E-02
   12.2500  3.3043016E-02  3.6324139E-02  3.7137303E-02
   12.5000  3.4041327E-02  3.3609434E-02  3.8530707E-02
   12.7500  3.4838280E-02  3.1213273E-02  3.9704352E-02
   13.0000  3.5480269E-02  2.9127651E-02  4.0635399E-02
   13.2500  3.6020901E-02  2.7332394E-02  4.1326015E-02
   13.5000  3.6509235E-02  2.5800911E-02  4.1797974E-02
   13.7500  3.6982069E-02  2.4504779E-02  4.2085997E-02
   14.0000  3.7461454E-02  2.3416306E-02  4.2230334E-02
   14.2500  3.7956001E-02  2.2509628E-02  4.2270210E-02
   14.5000  3.8463870E-02  2.1761268E-02  4.2239390E-02
   14.7500  3.8976054E-02  2.1150472E-02  4.2163854E-02
   15.0000  3.9479327E-02  2.0659361E-02  4.2061028E-02
   15.2500  3.9958582E-02  2.0272902E-02  4.1940137E-02
   15.5000  4.0398478E-02  1.9978722E-02  4.1803341E-02
   15.7500  4.0784478E-02  1.9766787E-02  4.1647401E-02
   16.0000  4.1103438E-02  1.9628998E-02  4.1465683E-02
   16.2500  4.1344007E-02  1.9558756E-02  4.1250258E-02
   16.5000  4.1497029E-02  1.9550553E-02  4.0993872E-02
   16.7500  4.1556090E-02  1.9599630E-02  4.0691518E-02
   17.0000  4.1518211E-02  1.9701719E-02  4.0341442E-02
   17.2500  4.1384560E-02  1.9852885E-02  3.9945491E-02
   17.5000  4.1160950E-02  2.0049460E-02  3.9508860E-02
   17.7500  4.0857934E-02  2.0288022E-02  3.9039377E-02
   18.0000  4.0490329E-02  2.0565425E-02  3.8546564E-02
   18.2500  4.0076207E-02  2.0878820E-02  3.8040640E-02
   18.5000  3.9635489E-02  2.1225675E-02  3.7531649E-02
   18.7500  3.9188376E-02  2.1603775E-02  3.7028786E-02
   19.0000  3.8753878E-02  2.2011214E-02  3.6539934E-02
   19.2500  3.8348602E-02  2.2446385E-02  3.6071386E-02
   19.5000  3.7985912E-02  2.2907967E-02  3.5627719E-02
   19.7500  3.7675485E-02  2.3394838E-02  3.5211811E-02
   20.0000  3.7423323E-02  2.3905761E-02  3.4825069E-02
   21.0000  3.7020249E-02  2.6138706E-02  3.3571070E-02
   22.0000  3.7427833E-02  2.8499967E-02  3.2728079E-02
   23.0000  3.8172103E-02  3.0710145E-02  3.2134193E-02
   24.0000  3.8622200E-02  3.2461576E-02  3.1601384E-02
   25.0000  3.8216038E-02  3.3524999E-02  3.0979051E-02
   26.0000  3.6756420E-02  3.3843485E-02  3.0205434E-02
   27.0000  3.4561652E-02  3.3535470E-02  2.9340081E-02
   28.0000  3.2226009E-02  3.2809879E-02  2.8524427E-02
   29.0000  3.0188749E-02  3.1859863E-02  2.7877451E-02
   30.0000  2.8619048E-02  3.0820863E-02  2.7454333E-02
   31.0000  2.7497081E-02  2.9771720E-02  2.7252045E-02
   32.0000  2.6708386E-02  2.8746693E-02  2.7224773E-02
   33.0000  2.6113103E-02  2.7750054E-02  2.7300430E-02
   34.0000  2.5587966E-02  2.6770681E-02  2.7396892E-02
   35.0000  2.5047590E-02  2.5795659E-02  2.7437053E-02
   36.0000  2.4451528E-02  2.4821642E-02  2.7360738E-02
   37.0000  2.3801653E-02  2.3861825E-02  2.7134033E-02
   38.0000  2.3133306E-02  2.2948735E-02  2.6760334E-02
   39.0000  2.2505583E-02  2.2135239E-02  2.6295899E-02
   40.0000  2.1989832E-02  2.1487696E-02  2.5854459E-02
