    Energy   (100,001)      (010,001)      (001,110)   
  -25.0000  1.7071603E-04  1.9132149E-04  1.8097259E-04
  -24.0000  1.7679561E-04  1.9830667E-04  1.8750137E-04
  -23.0000  1.8328256E-04  2.0578338E-04  1.9447873E-04
  -22.0000  1.9021804E-04  2.1380448E-04  2.0195145E-04
  -21.0000  1.9764885E-04  2.2243062E-04  2.0997301E-04
  -20.0000  2.0562847E-04  2.3173169E-04  2.1860476E-04
  -19.0000  2.1421828E-04  2.4178870E-04  2.2791748E-04
  -18.0000  2.2348900E-04  2.5269598E-04  2.3799321E-04
  -17.0000  2.3352265E-04  2.6456407E-04  2.4892762E-04
  -16.0000  2.4441478E-04  2.7752332E-04  2.6083290E-04
  -15.0000  2.5627745E-04  2.9172850E-04  2.7384155E-04
  -14.0000  2.6924294E-04  3.0736472E-04  2.8811116E-04
  -13.0000  2.8346848E-04  3.2465521E-04  3.0383063E-04
  -12.0000  2.9914254E-04  3.4387159E-04  3.2122844E-04
  -11.0000  3.1649291E-04  3.6534757E-04  3.4058355E-04
  -10.0000  3.3579766E-04  3.8949768E-04  3.6224032E-04
  -9.00000  3.5739993E-04  4.1684304E-04  3.8662905E-04
  -8.00000  3.8172837E-04  4.4804776E-04  4.1429480E-04
  -7.00000  4.0932591E-04  4.8397124E-04  4.4593910E-04
  -6.00000  4.4089139E-04  5.2574532E-04  4.8248146E-04
  -5.00000  4.7734115E-04  5.7489113E-04  5.2515333E-04
  -4.00000  5.1990358E-04  6.3350227E-04  5.7564684E-04
  -3.00000  5.7026951E-04  7.0454338E-04  6.3636096E-04
  -2.00000  6.3084383E-04  7.9236104E-04  7.1083204E-04
  -1.00000  7.0519205E-04  9.0361305E-04  8.0454081E-04
   0.00000  7.9889856E-04  1.0490982E-03  9.2656664E-04
   1.00000  9.2140192E-04  1.2477679E-03  1.0934110E-03
   2.00000  1.0905663E-03  1.5369792E-03  1.3394421E-03
   3.00000  1.3470301E-03  2.0055436E-03  1.7533662E-03
   4.00000  1.8192073E-03  2.9474862E-03  2.6630741E-03
   5.00000  3.0633332E-03  5.6793315E-03  5.6427043E-03
   5.20000  3.4487531E-03  6.5368728E-03  6.5485255E-03
   5.40000  3.8362106E-03  7.3790202E-03  7.3546564E-03
   5.60000  4.2165581E-03  8.1712751E-03  7.9963887E-03
   5.80000  4.5956170E-03  8.9175877E-03  8.4702735E-03
   6.00000  4.9827361E-03  9.6373494E-03  8.8051636E-03
   6.20000  5.3852658E-03  1.0353454E-02  9.0455895E-03
   6.40000  5.8075528E-03  1.1087719E-02  9.2421344E-03
   6.60000  6.2518427E-03  1.1858855E-02  9.4431405E-03
   6.80000  6.7199003E-03  1.2682403E-02  9.6888677E-03
   7.00000  7.2145269E-03  1.3572367E-02  1.0009465E-02
   7.20000  7.7403950E-03  1.4543354E-02  1.0425861E-02
   7.40000  8.3040282E-03  1.5612061E-02  1.0951693E-02
   7.60000  8.9131398E-03  1.6797850E-02  1.1594990E-02
   7.80000  9.5758305E-03  1.8122779E-02  1.2359290E-02
   8.00000  1.0299979E-02  1.9611420E-02  1.3244389E-02
   8.20000  1.1092868E-02  2.1290488E-02  1.4246955E-02
   8.40000  1.1961017E-02  2.3188250E-02  1.5361247E-02
   8.60000  1.2910044E-02  2.5333331E-02  1.6579985E-02
   8.80000  1.3944202E-02  2.7752335E-02  1.7895250E-02
   9.00000  1.5065467E-02  3.0466115E-02  1.9298961E-02
   9.20000  1.6272388E-02  3.3484675E-02  2.0782421E-02
   9.40000  1.7559070E-02  3.6800497E-02  2.2334870E-02
   9.60000  1.8914640E-02  4.0380133E-02  2.3941517E-02
   9.80000  2.0323290E-02  4.4154250E-02  2.5581664E-02
   10.0000  2.1764601E-02  4.8007053E-02  2.7227322E-02
   10.2500  2.3573653E-02  5.2669463E-02  2.9236886E-02
   10.5000  2.5335339E-02  5.6746022E-02  3.1116228E-02
   10.7500  2.6980770E-02  5.9750961E-02  3.2784519E-02
   11.0000  2.8437619E-02  6.1285923E-02  3.4182278E-02
   11.2500  2.9644640E-02  6.1177681E-02  3.5285403E-02
   11.5000  3.0568196E-02  5.9535037E-02  3.6108418E-02
   11.7500  3.1209008E-02  5.6692650E-02  3.6693077E-02
   12.0000  3.1596736E-02  5.3090470E-02  3.7090285E-02
   12.2500  3.1780091E-02  4.9152981E-02  3.7346217E-02
   12.5000  3.1817002E-02  4.5212456E-02  3.7495078E-02
   12.7500  3.1766138E-02  4.1486730E-02  3.7557969E-02
   13.0000  3.1680500E-02  3.8094044E-02  3.7547293E-02
   13.2500  3.1603579E-02  3.5081481E-02  3.7473084E-02
   13.5000  3.1568002E-02  3.2451534E-02  3.7347113E-02
   13.7500  3.1595882E-02  3.0181800E-02  3.7184157E-02
   14.0000  3.1700436E-02  2.8238133E-02  3.7001239E-02
   14.2500  3.1888054E-02  2.6582762E-02  3.6815787E-02
   14.5000  3.2160005E-02  2.5178844E-02  3.6643643E-02
   14.7500  3.2513632E-02  2.3992713E-02  3.6497467E-02
   15.0000  3.2943144E-02  2.2994751E-02  3.6385712E-02
   15.2500  3.3440143E-02  2.2159493E-02  3.6312193E-02
   15.5000  3.3993985E-02  2.1465347E-02  3.6276171E-02
   15.7500  3.4592051E-02  2.0894141E-02  3.6272856E-02
   16.0000  3.5220011E-02  2.0430633E-02  3.6294219E-02
   16.2500  3.5862170E-02  2.0062050E-02  3.6330043E-02
   16.5000  3.6501951E-02  1.9777682E-02  3.6369112E-02
   16.7500  3.7122545E-02  1.9568533E-02  3.6400421E-02
   17.0000  3.7707723E-02  1.9427042E-02  3.6414283E-02
   17.2500  3.8242759E-02  1.9346839E-02  3.6403191E-02
   17.5000  3.8715374E-02  1.9322558E-02  3.6362332E-02
   17.7500  3.9116570E-02  1.9349673E-02  3.6289719E-02
   18.0000  3.9441228E-02  1.9424368E-02  3.6185953E-02
   18.2500  3.9688351E-02  1.9543417E-02  3.6053723E-02
   18.5000  3.9860914E-02  1.9704092E-02  3.5897165E-02
   18.7500  3.9965330E-02  1.9904077E-02  3.5721191E-02
   19.0000  4.0010603E-02  2.0141411E-02  3.5530896E-02
   19.2500  4.0007306E-02  2.0414449E-02  3.5331086E-02
   19.5000  3.9966502E-02  2.0721837E-02  3.5125938E-02
   19.7500  3.9898784E-02  2.1062437E-02  3.4918810E-02
   20.0000  3.9813610E-02  2.1435102E-02  3.4712246E-02
   21.0000  3.9438539E-02  2.3207164E-02  3.3924062E-02
   22.0000  3.9146237E-02  2.5309539E-02  3.3215332E-02
   23.0000  3.8800083E-02  2.7559071E-02  3.2525266E-02
   24.0000  3.8055745E-02  2.9743505E-02  3.1767679E-02
   25.0000  3.6619771E-02  3.1661493E-02  3.0896958E-02
   26.0000  3.4483531E-02  3.3165833E-02  2.9927316E-02
   27.0000  3.1962354E-02  3.4189446E-02  2.8925203E-02
   28.0000  2.9498610E-02  3.4748915E-02  2.7991869E-02
   29.0000  2.7422200E-02  3.4920020E-02  2.7231447E-02
   30.0000  2.5860216E-02  3.4794410E-02  2.6709416E-02
   31.0000  2.4789759E-02  3.4449150E-02  2.6427791E-02
   32.0000  2.4116404E-02  3.3948831E-02  2.6333838E-02
   33.0000  2.3725652E-02  3.3349420E-02  2.6349121E-02
   34.0000  2.3522369E-02  3.2675260E-02  2.6397128E-02
   35.0000  2.3435191E-02  3.1932200E-02  2.6417302E-02
   36.0000  2.3409503E-02  3.1128088E-02  2.6368517E-02
   37.0000  2.3405545E-02  3.0281699E-02  2.6230706E-02
   38.0000  2.3398870E-02  2.9429276E-02  2.6008798E-02
   39.0000  2.3380648E-02  2.8632722E-02  2.5738589E-02
   40.0000  2.3354764E-02  2.7980530E-02  2.5485462E-02
