    Energy   (100,001)      (010,001)      (001,110)   
  -25.0000  1.6221788E-04  1.8376808E-04  1.7842430E-04
  -24.0000  1.6824700E-04  1.9073546E-04  1.8505500E-04
  -23.0000  1.7468785E-04  1.9820555E-04  1.9215150E-04
  -22.0000  1.8158226E-04  2.0623339E-04  1.9976330E-04
  -21.0000  1.8897778E-04  2.1488223E-04  2.0794707E-04
  -20.0000  1.9692872E-04  2.2422511E-04  2.1676802E-04
  -19.0000  2.0549736E-04  2.3434681E-04  2.2630151E-04
  -18.0000  2.1475544E-04  2.4534631E-04  2.3663515E-04
  -17.0000  2.2478607E-04  2.5733981E-04  2.4787136E-04
  -16.0000  2.3568598E-04  2.7046463E-04  2.6013063E-04
  -15.0000  2.4756849E-04  2.8488419E-04  2.7355569E-04
  -14.0000  2.6056713E-04  3.0079442E-04  2.8831686E-04
  -13.0000  2.7484038E-04  3.1843221E-04  3.0461910E-04
  -12.0000  2.9057780E-04  3.3808651E-04  3.2271125E-04
  -11.0000  3.0800797E-04  3.6011335E-04  3.4289851E-04
  -10.0000  3.2740912E-04  3.8495618E-04  3.6555943E-04
  -9.00000  3.4912349E-04  4.1317422E-04  3.9116948E-04
  -8.00000  3.7357696E-04  4.4548234E-04  4.2033452E-04
  -7.00000  4.0130655E-04  4.8280859E-04  4.5383935E-04
  -6.00000  4.3299990E-04  5.2637926E-04  4.9272007E-04
  -5.00000  4.6955314E-04  5.7784788E-04  5.3837557E-04
  -4.00000  5.1215892E-04  6.3949763E-04  5.9274550E-04
  -3.00000  5.6244503E-04  7.1457110E-04  6.5860799E-04
  -2.00000  6.2270342E-04  8.0783353E-04  7.4010541E-04
  -1.00000  6.9629186E-04  9.2659264E-04  8.4373974E-04
   0.00000  7.8839508E-04  1.0826899E-03  9.8043178E-04
   1.00000  9.0762928E-04  1.2968053E-03  1.1703138E-03
   2.00000  1.0699809E-03  1.6092143E-03  1.4558599E-03
   3.00000  1.3109979E-03  2.1133291E-03  1.9475226E-03
   4.00000  1.7403440E-03  3.1050800E-03  3.0514364E-03
   5.00000  2.8290392E-03  5.8703589E-03  6.7647588E-03
   5.20000  3.1673519E-03  6.7587417E-03  7.9877518E-03
   5.40000  3.5105576E-03  7.6686508E-03  9.1587676E-03
   5.60000  3.8478527E-03  8.5703821E-03  1.0154076E-02
   5.80000  4.1802914E-03  9.4643688E-03  1.0891356E-02
   6.00000  4.5137499E-03  1.0364803E-02  1.1338903E-02
   6.20000  4.8552966E-03  1.1292473E-02  1.1537745E-02
   6.40000  5.2118397E-03  1.2271463E-02  1.1594791E-02
   6.60000  5.5898186E-03  1.3326101E-02  1.1638289E-02
   6.80000  5.9955789E-03  1.4479710E-02  1.1773962E-02
   7.00000  6.4359157E-03  1.5755645E-02  1.2068633E-02
   7.20000  6.9183174E-03  1.7178931E-02  1.2555042E-02
   7.40000  7.4507364E-03  1.8776900E-02  1.3242115E-02
   7.60000  8.0408920E-03  2.0578014E-02  1.4122581E-02
   7.80000  8.6951928E-03  2.2608848E-02  1.5176982E-02
   8.00000  9.4174871E-03  2.4889777E-02  1.6375657E-02
   8.20000  1.0208062E-02  2.7430322E-02  1.7680501E-02
   8.40000  1.1063484E-02  3.0224993E-02  1.9047797E-02
   8.60000  1.1977820E-02  3.3250108E-02  2.0432737E-02
   8.80000  1.2945204E-02  3.6461693E-02  2.1795095E-02
   9.00000  1.3962593E-02  3.9794331E-02  2.3104376E-02
   9.20000  1.5030801E-02  4.3161247E-02  2.4342540E-02
   9.40000  1.6152805E-02  4.6457198E-02  2.5503809E-02
   9.60000  1.7330332E-02  4.9565574E-02  2.6592123E-02
   9.80000  1.8561065E-02  5.2368386E-02  2.7616519E-02
   10.0000  1.9838337E-02  5.4756072E-02  2.8586638E-02
   10.2500  2.1486511E-02  5.7015427E-02  2.9736350E-02
   10.5000  2.3174871E-02  5.8340611E-02  3.0831662E-02
   10.7500  2.4883853E-02  5.8647476E-02  3.1887419E-02
   11.0000  2.6586321E-02  5.7919037E-02  3.2911514E-02
   11.2500  2.8241956E-02  5.6221227E-02  3.3902687E-02
   11.5000  2.9800483E-02  5.3709695E-02  3.4853105E-02
   11.7500  3.1214893E-02  5.0615466E-02  3.5748794E-02
   12.0000  3.2456300E-02  4.7204819E-02  3.6568384E-02
   12.2500  3.3520799E-02  4.3727200E-02  3.7284765E-02
   12.5000  3.4425615E-02  4.0375668E-02  3.7870330E-02
   12.7500  3.5198998E-02  3.7273278E-02  3.8303891E-02
   13.0000  3.5870770E-02  3.4480813E-02  3.8576372E-02
   13.2500  3.6467127E-02  3.2013767E-02  3.8692963E-02
   13.5000  3.7009049E-02  2.9859845E-02  3.8671693E-02
   13.7500  3.7512471E-02  2.7992859E-02  3.8539642E-02
   14.0000  3.7989095E-02  2.6381901E-02  3.8328534E-02
   14.2500  3.8447284E-02  2.4996428E-02  3.8071319E-02
   14.5000  3.8892720E-02  2.3808584E-02  3.7799534E-02
   14.7500  3.9328682E-02  2.2793930E-02  3.7540560E-02
   15.0000  3.9756110E-02  2.1931413E-02  3.7315257E-02
   15.2500  4.0173650E-02  2.1203039E-02  3.7136772E-02
   15.5000  4.0577745E-02  2.0593450E-02  3.7010484E-02
   15.7500  4.0962812E-02  2.0089528E-02  3.6934716E-02
   16.0000  4.1321561E-02  1.9680029E-02  3.6901906E-02
   16.2500  4.1645529E-02  1.9355291E-02  3.6900080E-02
   16.5000  4.1925813E-02  1.9106986E-02  3.6914503E-02
   16.7500  4.2153977E-02  1.8927930E-02  3.6929428E-02
   17.0000  4.2323011E-02  1.8811938E-02  3.6929791E-02
   17.2500  4.2428224E-02  1.8753709E-02  3.6902698E-02
   17.5000  4.2467915E-02  1.8748738E-02  3.6838532E-02
   17.7500  4.2443728E-02  1.8793247E-02  3.6731549E-02
   18.0000  4.2360639E-02  1.8884113E-02  3.6579949E-02
   18.2500  4.2226569E-02  1.9018801E-02  3.6385469E-02
   18.5000  4.2051719E-02  1.9195295E-02  3.6152628E-02
   18.7500  4.1847708E-02  1.9412033E-02  3.5887804E-02
   19.0000  4.1626647E-02  1.9667850E-02  3.5598292E-02
   19.2500  4.1400218E-02  1.9961947E-02  3.5291449E-02
   19.5000  4.1178856E-02  2.0293852E-02  3.4974011E-02
   19.7500  4.0971089E-02  2.0663332E-02  3.4651663E-02
   20.0000  4.0783143E-02  2.1070157E-02  3.4328937E-02
   21.0000  4.0276631E-02  2.3049574E-02  3.3099129E-02
   22.0000  4.0025502E-02  2.5508020E-02  3.2042854E-02
   23.0000  3.9498958E-02  2.8269719E-02  3.1152752E-02
   24.0000  3.8161933E-02  3.1016078E-02  3.0381560E-02
   25.0000  3.5977068E-02  3.3334154E-02  2.9687953E-02
   26.0000  3.3369669E-02  3.4942285E-02  2.9040514E-02
   27.0000  3.0833252E-02  3.5750205E-02  2.8425884E-02
   28.0000  2.8661945E-02  3.5828313E-02  2.7862446E-02
   29.0000  2.6942429E-02  3.5347553E-02  2.7394014E-02
   30.0000  2.5643148E-02  3.4508437E-02  2.7058919E-02
   31.0000  2.4682826E-02  3.3486910E-02  2.6860080E-02
   32.0000  2.3966932E-02  3.2406716E-02  2.6759789E-02
   33.0000  2.3407119E-02  3.1336330E-02  2.6696629E-02
   34.0000  2.2931308E-02  3.0301658E-02  2.6606992E-02
   35.0000  2.2487213E-02  2.9304012E-02  2.6439073E-02
   36.0000  2.2042580E-02  2.8336477E-02  2.6159372E-02
   37.0000  2.1585275E-02  2.7396826E-02  2.5757126E-02
   38.0000  2.1124214E-02  2.6498885E-02  2.5251236E-02
   39.0000  2.0690036E-02  2.5684254E-02  2.4701328E-02
   40.0000  2.0329141E-02  2.5024271E-02  2.4210330E-02
