    Energy   (100,001)      (010,001)      (001,110)   
  -25.0000  1.6697133E-04  1.7264360E-04  1.7174960E-04
  -24.0000  1.7340424E-04  1.7955840E-04  1.7832383E-04
  -23.0000  1.8029607E-04  1.8699105E-04  1.8536793E-04
  -22.0000  1.8769574E-04  1.9499985E-04  1.9293219E-04
  -21.0000  1.9565926E-04  2.0365201E-04  2.0107422E-04
  -20.0000  2.0425097E-04  2.1302536E-04  2.0986026E-04
  -19.0000  2.1354523E-04  2.2321060E-04  2.1936689E-04
  -18.0000  2.2362836E-04  2.3431393E-04  2.2968304E-04
  -17.0000  2.3460117E-04  2.4646055E-04  2.4091261E-04
  -16.0000  2.4658207E-04  2.5979900E-04  2.5317769E-04
  -15.0000  2.5971109E-04  2.7450678E-04  2.6662273E-04
  -14.0000  2.7415498E-04  2.9079768E-04  2.8141976E-04
  -13.0000  2.9011390E-04  3.0893144E-04  2.9777533E-04
  -12.0000  3.0783016E-04  3.2922652E-04  3.1593949E-04
  -11.0000  3.2759989E-04  3.5207754E-04  3.3621781E-04
  -10.0000  3.4978884E-04  3.7797901E-04  3.5898760E-04
  -9.00000  3.7485409E-04  4.0755867E-04  3.8472013E-04
  -8.00000  4.0337448E-04  4.4162477E-04  4.1401177E-04
  -7.00000  4.3609415E-04  4.8123502E-04  4.4762836E-04
  -6.00000  4.7398648E-04  5.2779927E-04  4.8657016E-04
  -5.00000  5.1835047E-04  5.8323714E-04  5.3216945E-04
  -4.00000  5.7096115E-04  6.5022804E-04  5.8624224E-04
  -3.00000  6.3431348E-04  7.3262377E-04  6.5133347E-04
  -2.00000  7.1203751E-04  8.3616266E-04  7.3113307E-04
  -1.00000  8.0964809E-04  9.6978138E-04  8.3122614E-04
   0.00000  9.3600583E-04  1.1482155E-03  9.6055696E-04
   1.00000  1.1064674E-03  1.3977089E-03  1.1346081E-03
   2.00000  1.3507144E-03  1.7704959E-03  1.3834364E-03
   3.00000  1.7368317E-03  2.3905572E-03  1.7772305E-03
   4.00000  2.4755677E-03  3.6594330E-03  2.5433243E-03
   5.00000  4.4670993E-03  7.3400044E-03  4.6714455E-03
   5.20000  5.1216810E-03  8.5255519E-03  5.3339967E-03
   5.40000  5.8207912E-03  9.7315484E-03  6.0062179E-03
   5.60000  6.5541243E-03  1.0920336E-02  6.6817313E-03
   5.80000  7.3286133E-03  1.2099753E-02  7.3684758E-03
   6.00000  8.1567184E-03  1.3297890E-02  8.0655165E-03
   6.20000  9.0517547E-03  1.4551347E-02  8.7623325E-03
   6.40000  1.0026806E-02  1.5899650E-02  9.4502998E-03
   6.60000  1.1092483E-02  1.7378827E-02  1.0132627E-02
   6.80000  1.2251617E-02  1.9016540E-02  1.0825822E-02
   7.00000  1.3490770E-02  2.0833043E-02  1.1553901E-02
   7.20000  1.4771832E-02  2.2848197E-02  1.2340767E-02
   7.40000  1.6032689E-02  2.5089598E-02  1.3205552E-02
   7.60000  1.7206167E-02  2.7595009E-02  1.4163108E-02
   7.80000  1.8252374E-02  3.0405886E-02  1.5228353E-02
   8.00000  1.9181501E-02  3.3554347E-02  1.6420116E-02
   8.20000  2.0048423E-02  3.7047501E-02  1.7760368E-02
   8.40000  2.0925837E-02  4.0850634E-02  1.9268797E-02
   8.60000  2.1877230E-02  4.4870166E-02  2.0955857E-02
   8.80000  2.2942586E-02  4.8940603E-02  2.2817277E-02
   9.00000  2.4136146E-02  5.2823919E-02  2.4831539E-02
   9.20000  2.5450128E-02  5.6231003E-02  2.6961066E-02
   9.40000  2.6859079E-02  5.8868990E-02  2.9156850E-02
   9.60000  2.8322002E-02  6.0505019E-02  3.1364923E-02
   9.80000  2.9783927E-02  6.1022571E-02  3.3533924E-02
   10.0000  3.1180597E-02  6.0445067E-02  3.5622401E-02
   10.2500  3.2735883E-02  5.8412859E-02  3.8075918E-02
   10.5000  3.3983023E-02  5.5336216E-02  4.0315608E-02
   10.7500  3.4865119E-02  5.1676574E-02  4.2295803E-02
   11.0000  3.5382608E-02  4.7821484E-02  4.3954366E-02
   11.2500  3.5586820E-02  4.4046119E-02  4.5215749E-02
   11.5000  3.5561209E-02  4.0517841E-02  4.6011894E-02
   11.7500  3.5398509E-02  3.7320715E-02  4.6308661E-02
   12.0000  3.5183244E-02  3.4482799E-02  4.6122882E-02
   12.2500  3.4982766E-02  3.1998348E-02  4.5523423E-02
   12.5000  3.4844791E-02  2.9844013E-02  4.4618455E-02
   12.7500  3.4798661E-02  2.7989668E-02  4.3533653E-02
   13.0000  3.4858696E-02  2.6404037E-02  4.2388361E-02
   13.2500  3.5028129E-02  2.5056853E-02  4.1279258E-02
   13.5000  3.5302279E-02  2.3919710E-02  4.0274622E-02
   13.7500  3.5670620E-02  2.2966602E-02  3.9415840E-02
   14.0000  3.6118033E-02  2.2174242E-02  3.8722048E-02
   14.2500  3.6625579E-02  2.1522184E-02  3.8195282E-02
   14.5000  3.7171082E-02  2.0992748E-02  3.7824925E-02
   14.7500  3.7729740E-02  2.0570830E-02  3.7591181E-02
   15.0000  3.8274945E-02  2.0243631E-02  3.7467777E-02
   15.2500  3.8779453E-02  2.0000361E-02  3.7424235E-02
   15.5000  3.9216937E-02  1.9831941E-02  3.7428056E-02
   15.7500  3.9563887E-02  1.9730726E-02  3.7446989E-02
   16.0000  3.9801669E-02  1.9690267E-02  3.7451370E-02
   16.2500  3.9918415E-02  1.9705119E-02  3.7416349E-02
   16.5000  3.9910384E-02  1.9770665E-02  3.7323661E-02
   16.7500  3.9782441E-02  1.9882977E-02  3.7162632E-02
   17.0000  3.9547476E-02  2.0038669E-02  3.6930248E-02
   17.2500  3.9224838E-02  2.0234782E-02  3.6630285E-02
   17.5000  3.8838048E-02  2.0468664E-02  3.6271741E-02
   17.7500  3.8412233E-02  2.0737877E-02  3.5866926E-02
   18.0000  3.7971732E-02  2.1040130E-02  3.5429555E-02
   18.2500  3.7538191E-02  2.1373236E-02  3.4973156E-02
   18.5000  3.7129311E-02  2.1735103E-02  3.4509916E-02
   18.7500  3.6758261E-02  2.2123748E-02  3.4049990E-02
   19.0000  3.6433617E-02  2.2537349E-02  3.3601212E-02
   19.2500  3.6159681E-02  2.2974311E-02  3.3169084E-02
   19.5000  3.5937010E-02  2.3433339E-02  3.2756940E-02
   19.7500  3.5763004E-02  2.3913426E-02  3.2366239E-02
   20.0000  3.5632451E-02  2.4413622E-02  3.1996978E-02
   21.0000  3.5378873E-02  2.6577235E-02  3.0711975E-02
   22.0000  3.5117374E-02  2.8868173E-02  2.9652740E-02
   23.0000  3.4411612E-02  3.1045139E-02  2.8706155E-02
   24.0000  3.3160219E-02  3.2776345E-02  2.7820067E-02
   25.0000  3.1540366E-02  3.3766998E-02  2.7011840E-02
   26.0000  2.9787873E-02  3.3941653E-02  2.6323647E-02
   27.0000  2.8100095E-02  3.3437141E-02  2.5790070E-02
   28.0000  2.6629777E-02  3.2493390E-02  2.5416368E-02
   29.0000  2.5462786E-02  3.1347437E-02  2.5177011E-02
   30.0000  2.4596711E-02  3.0169464E-02  2.5027851E-02
   31.0000  2.3963345E-02  2.9047749E-02  2.4917112E-02
   32.0000  2.3474339E-02  2.8005731E-02  2.4795175E-02
   33.0000  2.3054664E-02  2.7028797E-02  2.4622171E-02
   34.0000  2.2654868E-02  2.6087875E-02  2.4371720E-02
   35.0000  2.2249016E-02  2.5156495E-02  2.4032275E-02
   36.0000  2.1828599E-02  2.4222323E-02  2.3608246E-02
   37.0000  2.1398325E-02  2.3294282E-02  2.3121046E-02
   38.0000  2.0974560E-02  2.2405486E-02  2.2609578E-02
   39.0000  2.0585176E-02  2.1611918E-02  2.2128857E-02
   40.0000  2.0266730E-02  2.0980927E-02  2.1739208E-02
