    Energy   (100,001)      (010,001)      (001,110)   
  -25.0000  1.6943144E-04  1.8606961E-04  1.7513856E-04
  -24.0000  1.7563878E-04  1.9296227E-04  1.8161580E-04
  -23.0000  1.8227212E-04  2.0034426E-04  1.8854354E-04
  -22.0000  1.8937544E-04  2.0826844E-04  1.9596894E-04
  -21.0000  1.9699889E-04  2.1679553E-04  2.0394585E-04
  -20.0000  2.0519990E-04  2.2599550E-04  2.1253608E-04
  -19.0000  2.1404455E-04  2.3594947E-04  2.2181081E-04
  -18.0000  2.2360923E-04  2.4675195E-04  2.3185256E-04
  -17.0000  2.3398280E-04  2.5851373E-04  2.4275738E-04
  -16.0000  2.4526912E-04  2.7136550E-04  2.5463783E-04
  -15.0000  2.5759041E-04  2.8546244E-04  2.6762656E-04
  -14.0000  2.7109148E-04  3.0099027E-04  2.8188108E-04
  -13.0000  2.8594519E-04  3.1817298E-04  2.9758971E-04
  -12.0000  3.0235957E-04  3.3728321E-04  3.1497954E-04
  -11.0000  3.2058727E-04  3.5865599E-04  3.3432686E-04
  -10.0000  3.4093823E-04  3.8270757E-04  3.5597121E-04
  -9.00000  3.6379698E-04  4.0996135E-04  3.8033452E-04
  -8.00000  3.8964673E-04  4.4108438E-04  4.0794771E-04
  -7.00000  4.1910346E-04  4.7693986E-04  4.3948833E-04
  -6.00000  4.5296564E-04  5.1866445E-04  4.7583521E-04
  -5.00000  4.9228836E-04  5.6778515E-04  5.1814971E-04
  -4.00000  5.3849811E-04  6.2640216E-04  5.6800059E-04
  -3.00000  5.9357695E-04  6.9748563E-04  6.2756312E-04
  -2.00000  6.6037327E-04  7.8538107E-04  6.9995121E-04
  -1.00000  7.4315813E-04  8.9672128E-04  7.8980406E-04
   0.00000  8.4870259E-04  1.0422020E-03  9.0440098E-04
   1.00000  9.8859404E-04  1.2404109E-03  1.0559995E-03
   2.00000  1.1850154E-03  1.5273815E-03  1.2674761E-03
   3.00000  1.4888009E-03  1.9863783E-03  1.5891638E-03
   4.00000  2.0602160E-03  2.8808552E-03  2.1698583E-03
   5.00000  3.5922597E-03  5.3467325E-03  3.6267760E-03
   5.20000  4.0761279E-03  6.1251919E-03  4.0991260E-03
   5.40000  4.5700702E-03  6.9148335E-03  4.6057682E-03
   5.60000  5.0621271E-03  7.6970933E-03  5.1384281E-03
   5.80000  5.5581722E-03  8.4841147E-03  5.7006067E-03
   6.00000  6.0700288E-03  9.2979208E-03  6.3000990E-03
   6.20000  6.6093138E-03  1.0160314E-02  6.9448009E-03
   6.40000  7.1853574E-03  1.1090615E-02  7.6411241E-03
   6.60000  7.8048804E-03  1.2105684E-02  8.3933692E-03
   6.80000  8.4729514E-03  1.3220101E-02  9.2035154E-03
   7.00000  9.1947206E-03  1.4445991E-02  1.0071278E-02
   7.20000  9.9769105E-03  1.5792512E-02  1.0994344E-02
   7.40000  1.0828038E-02  1.7265116E-02  1.1968715E-02
   7.60000  1.1756823E-02  1.8864869E-02  1.2989093E-02
   7.80000  1.2768771E-02  2.0588327E-02  1.4049232E-02
   8.00000  1.3861261E-02  2.2428291E-02  1.5142401E-02
   8.20000  1.5018285E-02  2.4375352E-02  1.6262345E-02
   8.40000  1.6207505E-02  2.6419817E-02  1.7405449E-02
   8.60000  1.7383666E-02  2.8554227E-02  1.8574553E-02
   8.80000  1.8500578E-02  3.0776742E-02  1.9783426E-02
   9.00000  1.9527936E-02  3.3094181E-02  2.1058826E-02
   9.20000  2.0463731E-02  3.5521608E-02  2.2436832E-02
   9.40000  2.1334128E-02  3.8075631E-02  2.3952873E-02
   9.60000  2.2181227E-02  4.0761985E-02  2.5628981E-02
   9.80000  2.3046852E-02  4.3561310E-02  2.7463715E-02
   10.0000  2.3960477E-02  4.6417179E-02  2.9428148E-02
   10.2500  2.5186527E-02  4.9909377E-02  3.1981641E-02
   10.5000  2.6491586E-02  5.3044104E-02  3.4508903E-02
   10.7500  2.7831591E-02  5.5479766E-02  3.6853205E-02
   11.0000  2.9145334E-02  5.6900214E-02  3.8872448E-02
   11.2500  3.0367955E-02  5.7103773E-02  4.0464679E-02
   11.5000  3.1443345E-02  5.6064240E-02  4.1585491E-02
   11.7500  3.2334246E-02  5.3940584E-02  4.2247476E-02
   12.0000  3.3027330E-02  5.1027507E-02  4.2503982E-02
   12.2500  3.3531261E-02  4.7669232E-02  4.2427885E-02
   12.5000  3.3870267E-02  4.4177510E-02  4.2093532E-02
   12.7500  3.4078059E-02  4.0784662E-02  4.1567277E-02
   13.0000  3.4193650E-02  3.7635304E-02  4.0908296E-02
   13.2500  3.4257238E-02  3.4801791E-02  4.0172120E-02
   13.5000  3.4305804E-02  3.2306965E-02  3.9409323E-02
   13.7500  3.4370112E-02  3.0143993E-02  3.8661997E-02
   14.0000  3.4473781E-02  2.8290183E-02  3.7963260E-02
   14.2500  3.4633503E-02  2.6715724E-02  3.7338738E-02
   14.5000  3.4859492E-02  2.5388954E-02  3.6807523E-02
   14.7500  3.5155905E-02  2.4279302E-02  3.6382368E-02
   15.0000  3.5521257E-02  2.3358739E-02  3.6069731E-02
   15.2500  3.5948889E-02  2.2602337E-02  3.5869947E-02
   15.5000  3.6427538E-02  2.1988343E-02  3.5777590E-02
   15.7500  3.6942028E-02  2.1498007E-02  3.5781953E-02
   16.0000  3.7474109E-02  2.1115297E-02  3.5867656E-02
   16.2500  3.8003435E-02  2.0826564E-02  3.6015436E-02
   16.5000  3.8508696E-02  2.0620217E-02  3.6203176E-02
   16.7500  3.8968883E-02  2.0486405E-02  3.6407256E-02
   17.0000  3.9364663E-02  2.0416765E-02  3.6604161E-02
   17.2500  3.9679776E-02  2.0404192E-02  3.6772233E-02
   17.5000  3.9902330E-02  2.0442675E-02  3.6893322E-02
   17.7500  4.0025814E-02  2.0527150E-02  3.6954073E-02
   18.0000  4.0049638E-02  2.0653387E-02  3.6946647E-02
   18.2500  3.9979083E-02  2.0817893E-02  3.6868765E-02
   18.5000  3.9824605E-02  2.1017819E-02  3.6723129E-02
   18.7500  3.9600591E-02  2.1250875E-02  3.6516378E-02
   19.0000  3.9323735E-02  2.1515250E-02  3.6257776E-02
   19.2500  3.9011286E-02  2.1809552E-02  3.5957864E-02
   19.5000  3.8679390E-02  2.2132752E-02  3.5627234E-02
   19.7500  3.8341788E-02  2.2484072E-02  3.5275601E-02
   20.0000  3.8009108E-02  2.2862734E-02  3.4911372E-02
   21.0000  3.6841321E-02  2.4617551E-02  3.3458657E-02
   22.0000  3.5938097E-02  2.6640427E-02  3.2182580E-02
   23.0000  3.5028346E-02  2.8736244E-02  3.1108132E-02
   24.0000  3.3851178E-02  3.0679215E-02  3.0176210E-02
   25.0000  3.2369085E-02  3.2266716E-02  2.9334800E-02
   26.0000  3.0762122E-02  3.3357072E-02  2.8557120E-02
   27.0000  2.9264941E-02  3.3893509E-02  2.7842801E-02
   28.0000  2.8011250E-02  3.3913810E-02  2.7219680E-02
   29.0000  2.7019112E-02  3.3530286E-02  2.6728873E-02
   30.0000  2.6247892E-02  3.2880175E-02  2.6383069E-02
   31.0000  2.5649217E-02  3.2088641E-02  2.6156345E-02
   32.0000  2.5177557E-02  3.1251449E-02  2.5997609E-02
   33.0000  2.4788636E-02  3.0429913E-02  2.5850761E-02
   34.0000  2.4443632E-02  2.9654924E-02  2.5670676E-02
   35.0000  2.4113924E-02  2.8935472E-02  2.5428482E-02
   36.0000  2.3782915E-02  2.8267952E-02  2.5111347E-02
   37.0000  2.3445802E-02  2.7644202E-02  2.4723331E-02
   38.0000  2.3109506E-02  2.7059661E-02  2.4288971E-02
   39.0000  2.2794347E-02  2.6526560E-02  2.3856438E-02
   40.0000  2.2532843E-02  2.6087008E-02  2.3491175E-02
