    Energy   (100,001)      (010,001)      (001,110)   
  -25.0000  1.7253719E-04  1.7943435E-04  1.7957896E-04
  -24.0000  1.7853828E-04  1.8643753E-04  1.8577257E-04
  -23.0000  1.8493243E-04  1.9395651E-04  1.9237199E-04
  -22.0000  1.9175854E-04  2.0204866E-04  1.9941750E-04
  -21.0000  1.9906082E-04  2.1078002E-04  2.0695489E-04
  -20.0000  2.0688961E-04  2.2022702E-04  2.1503633E-04
  -19.0000  2.1530260E-04  2.3047853E-04  2.2372158E-04
  -18.0000  2.2436614E-04  2.4163852E-04  2.3307940E-04
  -17.0000  2.3415695E-04  2.5382932E-04  2.4318932E-04
  -16.0000  2.4476428E-04  2.6719587E-04  2.5414380E-04
  -15.0000  2.5629252E-04  2.8191105E-04  2.6605102E-04
  -14.0000  2.6886463E-04  2.9818275E-04  2.7903833E-04
  -13.0000  2.8262647E-04  3.1626304E-04  2.9325670E-04
  -12.0000  2.9775243E-04  3.3646041E-04  3.0888656E-04
  -11.0000  3.1445292E-04  3.5915626E-04  3.2614531E-04
  -10.0000  3.3298423E-04  3.8482760E-04  3.4529745E-04
  -9.00000  3.5366209E-04  4.1407848E-04  3.6666817E-04
  -8.00000  3.7688027E-04  4.4768485E-04  3.9066216E-04
  -7.00000  4.0313700E-04  4.8665957E-04  4.1778990E-04
  -6.00000  4.3307310E-04  5.3234925E-04  4.4870559E-04
  -5.00000  4.6752901E-04  5.8658254E-04  4.8426312E-04
  -4.00000  5.0763245E-04  6.5190515E-04  5.2560177E-04
  -3.00000  5.5493951E-04  7.3196740E-04  5.7428246E-04
  -2.00000  6.1167265E-04  8.3219525E-04  6.3251595E-04
  -1.00000  6.8114880E-04  9.6102495E-04  7.0356979E-04
   0.00000  7.6861416E-04  1.1323594E-03  7.9255856E-04
   1.00000  8.8305995E-04  1.3709964E-03  9.0816605E-04
   2.00000  1.0418276E-03  1.7265435E-03  1.0670748E-03
   3.00000  1.2853148E-03  2.3180757E-03  1.3085958E-03
   4.00000  1.7444904E-03  3.5391103E-03  1.7658626E-03
   5.00000  2.9960705E-03  7.1390090E-03  3.0325256E-03
   5.20000  3.3869000E-03  8.2858530E-03  3.3939088E-03
   5.40000  3.7791675E-03  9.4354740E-03  3.7169355E-03
   5.60000  4.1631699E-03  1.0554676E-02  3.9910084E-03
   5.80000  4.5442937E-03  1.1657483E-02  4.2296057E-03
   6.00000  4.9315744E-03  1.2771786E-02  4.4527117E-03
   6.20000  5.3326462E-03  1.3923455E-02  4.6789576E-03
   6.40000  5.7528890E-03  1.5132909E-02  4.9240818E-03
   6.60000  6.1957181E-03  1.6415571E-02  5.2011506E-03
   6.80000  6.6630898E-03  1.7783253E-02  5.5210058E-03
   7.00000  7.1562221E-03  1.9246158E-02  5.8926590E-03
   7.20000  7.6765834E-03  2.0815509E-02  6.3236242E-03
   7.40000  8.2268837E-03  2.2506398E-02  6.8201830E-03
   7.60000  8.8115665E-03  2.4339775E-02  7.3875553E-03
   7.80000  9.4363980E-03  2.6342425E-02  8.0299339E-03
   8.00000  1.0107092E-02  2.8544805E-02  8.7502619E-03
   8.20000  1.0827257E-02  3.0977078E-02  9.5496551E-03
   8.40000  1.1596011E-02  3.3663315E-02  1.0426482E-02
   8.60000  1.2405498E-02  3.6613432E-02  1.1375259E-02
   8.80000  1.3239011E-02  3.9812776E-02  1.2385870E-02
   9.00000  1.4071226E-02  4.3210260E-02  1.3444015E-02
   9.20000  1.4871881E-02  4.6707960E-02  1.4533371E-02
   9.40000  1.5613097E-02  5.0156782E-02  1.5638880E-02
   9.60000  1.6278038E-02  5.3362649E-02  1.6749721E-02
   9.80000  1.6866606E-02  5.6105605E-02  1.7860280E-02
   10.0000  1.7394821E-02  5.8170618E-02  1.8968375E-02
   10.2500  1.8009643E-02  5.9541939E-02  2.0346838E-02
   10.5000  1.8621787E-02  5.9428066E-02  2.1709919E-02
   10.7500  1.9268168E-02  5.7910687E-02  2.3045212E-02
   11.0000  1.9965514E-02  5.5283039E-02  2.4339260E-02
   11.2500  2.0713453E-02  5.1946057E-02  2.5578783E-02
   11.5000  2.1500172E-02  4.8292548E-02  2.6750166E-02
   11.7500  2.2307947E-02  4.4632012E-02  2.7839610E-02
   12.0000  2.3118375E-02  4.1167768E-02  2.8835666E-02
   12.2500  2.3916916E-02  3.8009069E-02  2.9732871E-02
   12.5000  2.4695650E-02  3.5197078E-02  3.0533920E-02
   12.7500  2.5453568E-02  3.2730731E-02  3.1249539E-02
   13.0000  2.6194159E-02  3.0586828E-02  3.1896851E-02
   13.2500  2.6922237E-02  2.8733626E-02  3.2496265E-02
   13.5000  2.7642862E-02  2.7138444E-02  3.3067695E-02
   13.7500  2.8361662E-02  2.5770955E-02  3.3628402E-02
   14.0000  2.9085150E-02  2.4604129E-02  3.4192694E-02
   14.2500  2.9820558E-02  2.3614235E-02  3.4772172E-02
   14.5000  3.0575113E-02  2.2780607E-02  3.5375780E-02
   14.7500  3.1354930E-02  2.2085360E-02  3.6009634E-02
   15.0000  3.2163797E-02  2.1513064E-02  3.6676681E-02
   15.2500  3.3002067E-02  2.1050417E-02  3.7376273E-02
   15.5000  3.3865873E-02  2.0685924E-02  3.8103710E-02
   15.7500  3.4746854E-02  2.0409630E-02  3.8849915E-02
   16.0000  3.5632487E-02  2.0212885E-02  3.9601407E-02
   16.2500  3.6507057E-02  2.0088167E-02  4.0340742E-02
   16.5000  3.7353133E-02  2.0028935E-02  4.1047506E-02
   16.7500  3.8153318E-02  2.0029511E-02  4.1699804E-02
   17.0000  3.8891930E-02  2.0084987E-02  4.2276047E-02
   17.2500  3.9556329E-02  2.0191113E-02  4.2756757E-02
   17.5000  4.0137677E-02  2.0344194E-02  4.3126115E-02
   17.7500  4.0631140E-02  2.0540958E-02  4.3373082E-02
   18.0000  4.1035654E-02  2.0778429E-02  4.3492028E-02
   18.2500  4.1353443E-02  2.1053795E-02  4.3482881E-02
   18.5000  4.1589461E-02  2.1364310E-02  4.3350859E-02
   18.7500  4.1750810E-02  2.1707233E-02  4.3105820E-02
   19.0000  4.1846167E-02  2.2079835E-02  4.2761275E-02
   19.2500  4.1885170E-02  2.2479463E-02  4.2333115E-02
   19.5000  4.1877768E-02  2.2903664E-02  4.1838185E-02
   19.7500  4.1833612E-02  2.3350258E-02  4.1292977E-02
   20.0000  4.1761617E-02  2.3817212E-02  4.0712863E-02
   21.0000  4.1340896E-02  2.5837227E-02  3.8312452E-02
   22.0000  4.0895568E-02  2.7979540E-02  3.6194866E-02
   23.0000  4.0400571E-02  3.0097469E-02  3.4497505E-02
   24.0000  3.9659374E-02  3.1991463E-02  3.3129409E-02
   25.0000  3.8493433E-02  3.3414079E-02  3.1968426E-02
   26.0000  3.6870323E-02  3.4172214E-02  3.0936415E-02
   27.0000  3.4931269E-02  3.4232709E-02  3.0016286E-02
   28.0000  3.2919398E-02  3.3724387E-02  2.9234072E-02
   29.0000  3.1067924E-02  3.2849378E-02  2.8621920E-02
   30.0000  2.9522802E-02  3.1793784E-02  2.8186483E-02
   31.0000  2.8327545E-02  3.0692990E-02  2.7900332E-02
   32.0000  2.7449536E-02  2.9630600E-02  2.7715511E-02
   33.0000  2.6819438E-02  2.8633592E-02  2.7585544E-02
   34.0000  2.6363896E-02  2.7695854E-02  2.7476056E-02
   35.0000  2.6019722E-02  2.6801706E-02  2.7364323E-02
   36.0000  2.5737124E-02  2.5937493E-02  2.7235421E-02
   37.0000  2.5479112E-02  2.5099246E-02  2.7079806E-02
   38.0000  2.5220476E-02  2.4299269E-02  2.6895164E-02
   39.0000  2.4957235E-02  2.3574486E-02  2.6693463E-02
   40.0000  2.4718500E-02  2.2987046E-02  2.6508648E-02
