    Energy   (100,001)      (010,001)      (001,110)   
  -25.0000  1.6629620E-04  1.8597061E-04  1.7669126E-04
  -24.0000  1.7229287E-04  1.9308176E-04  1.8303631E-04
  -23.0000  1.7869025E-04  2.0070989E-04  1.8981016E-04
  -22.0000  1.8552837E-04  2.0891194E-04  1.9705645E-04
  -21.0000  1.9285263E-04  2.1775339E-04  2.0482488E-04
  -20.0000  2.0071479E-04  2.2730989E-04  2.1317224E-04
  -19.0000  2.0917408E-04  2.3766934E-04  2.2216373E-04
  -18.0000  2.1829860E-04  2.4893437E-04  2.3187458E-04
  -17.0000  2.2816704E-04  2.6122559E-04  2.4239203E-04
  -16.0000  2.3887076E-04  2.7468561E-04  2.5381780E-04
  -15.0000  2.5051652E-04  2.8948426E-04  2.6627121E-04
  -14.0000  2.6322976E-04  3.0582529E-04  2.7989313E-04
  -13.0000  2.7715891E-04  3.2395519E-04  2.9485107E-04
  -12.0000  2.9248090E-04  3.4417486E-04  3.1134575E-04
  -11.0000  3.0940832E-04  3.6685523E-04  3.2961970E-04
  -10.0000  3.2819890E-04  3.9245869E-04  3.4996880E-04
  -9.00000  3.4916823E-04  4.2156862E-04  3.7275775E-04
  -8.00000  3.7270707E-04  4.5493121E-04  3.9844138E-04
  -7.00000  3.9930541E-04  4.9351570E-04  4.2759448E-04
  -6.00000  4.2958654E-04  5.3860325E-04  4.6095451E-04
  -5.00000  4.6435675E-04  5.9192192E-04  4.9948432E-04
  -4.00000  5.0467969E-04  6.5585789E-04  5.4446711E-04
  -3.00000  5.5199202E-04  7.3379934E-04  5.9765570E-04
  -2.00000  6.0829117E-04  8.3072217E-04  6.6151778E-04
  -1.00000  6.7645815E-04  9.5424698E-04  7.3966330E-04
   0.00000  7.6085496E-04  1.1166926E-03  8.3764820E-04
   1.00000  8.6854958E-04  1.3394841E-03  9.6465530E-04
   2.00000  1.0122285E-03  1.6640589E-03  1.1376007E-03
   3.00000  1.2189036E-03  2.1854291E-03  1.3939128E-03
   4.00000  1.5676085E-03  3.1994912E-03  1.8502437E-03
   5.00000  2.3831827E-03  5.9610149E-03  2.9904521E-03
   5.20000  2.6311796E-03  6.8334414E-03  3.3094335E-03
   5.40000  2.8859260E-03  7.7273588E-03  3.6068624E-03
   5.60000  3.1430573E-03  8.6278277E-03  3.8839676E-03
   5.80000  3.4061015E-03  9.5525836E-03  4.1597180E-03
   6.00000  3.6804718E-03  1.0528706E-02  4.4543680E-03
   6.20000  3.9708107E-03  1.1581987E-02  4.7835870E-03
   6.40000  4.2807087E-03  1.2735134E-02  5.1585474E-03
   6.60000  4.6131250E-03  1.4008382E-02  5.5870997E-03
   6.80000  4.9708146E-03  1.5419920E-02  6.0744031E-03
   7.00000  5.3566061E-03  1.6985511E-02  6.6228677E-03
   7.20000  5.7735658E-03  1.8717373E-02  7.2318060E-03
   7.40000  6.2251151E-03  2.0622764E-02  7.8974641E-03
   7.60000  6.7151734E-03  2.2703063E-02  8.6141342E-03
   7.80000  7.2483844E-03  2.4954459E-02  9.3766984E-03
   8.00000  7.8304047E-03  2.7370859E-02  1.0184116E-02
   8.20000  8.4681083E-03  2.9947523E-02  1.1042379E-02
   8.40000  9.1694927E-03  3.2682074E-02  1.1965208E-02
   8.60000  9.9431359E-03  3.5570880E-02  1.2971807E-02
   8.80000  1.0797224E-02  3.8602125E-02  1.4082670E-02
   9.00000  1.1738361E-02  4.1749502E-02  1.5315371E-02
   9.20000  1.2770525E-02  4.4970082E-02  1.6681705E-02
   9.40000  1.3894599E-02  4.8206002E-02  1.8186236E-02
   9.60000  1.5108660E-02  5.1385188E-02  1.9825564E-02
   9.80000  1.6408716E-02  5.4416483E-02  2.1587990E-02
   10.0000  1.7789005E-02  5.7180899E-02  2.3453841E-02
   10.2500  1.9614016E-02  6.0030050E-02  2.5890737E-02
   10.5000  2.1524624E-02  6.1900913E-02  2.8385963E-02
   10.7500  2.3479606E-02  6.2525142E-02  3.0873394E-02
   11.0000  2.5421410E-02  6.1794546E-02  3.3285589E-02
   11.2500  2.7279942E-02  5.9803697E-02  3.5553260E-02
   11.5000  2.8982705E-02  5.6814695E-02  3.7605562E-02
   11.7500  3.0469679E-02  5.3176479E-02  3.9375896E-02
   12.0000  3.1707377E-02  4.9238740E-02  4.0811852E-02
   12.2500  3.2695235E-02  4.5290158E-02  4.1884201E-02
   12.5000  3.3461511E-02  4.1533008E-02  4.2590416E-02
   12.7500  3.4052703E-02  3.8087253E-02  4.2952554E-02
   13.0000  3.4522540E-02  3.5008124E-02  4.3011960E-02
   13.2500  3.4923368E-02  3.2305921E-02  4.2822434E-02
   13.5000  3.5300414E-02  2.9963706E-02  4.2443706E-02
   13.7500  3.5688863E-02  2.7950908E-02  4.1935624E-02
   14.0000  3.6113335E-02  2.6231848E-02  4.1353162E-02
   14.2500  3.6588782E-02  2.4770451E-02  4.0742960E-02
   14.5000  3.7121830E-02  2.3532890E-02  4.0141728E-02
   14.7500  3.7712060E-02  2.2488995E-02  3.9576187E-02
   15.0000  3.8353057E-02  2.1612764E-02  3.9063919E-02
   15.2500  3.9033231E-02  2.0882277E-02  3.8614640E-02
   15.5000  3.9736485E-02  2.0279281E-02  3.8231533E-02
   15.7500  4.0442895E-02  1.9788633E-02  3.7912516E-02
   16.0000  4.1129587E-02  1.9397733E-02  3.7651395E-02
   16.2500  4.1771931E-02  1.9096008E-02  3.7438956E-02
   16.5000  4.2345124E-02  1.8874495E-02  3.7264029E-02
   16.7500  4.2826103E-02  1.8725511E-02  3.7114548E-02
   17.0000  4.3195579E-02  1.8642415E-02  3.6978577E-02
   17.2500  4.3439923E-02  1.8619437E-02  3.6845253E-02
   17.5000  4.3552553E-02  1.8651567E-02  3.6705547E-02
   17.7500  4.3534552E-02  1.8734468E-02  3.6552790E-02
   18.0000  4.3394373E-02  1.8864424E-02  3.6382908E-02
   18.2500  4.3146674E-02  1.9038282E-02  3.6194366E-02
   18.5000  4.2810534E-02  1.9253408E-02  3.5987868E-02
   18.7500  4.2407361E-02  1.9507630E-02  3.5765881E-02
   19.0000  4.1958829E-02  1.9799210E-02  3.5532064E-02
   19.2500  4.1485114E-02  2.0126815E-02  3.5290680E-02
   19.5000  4.1003570E-02  2.0489510E-02  3.5046058E-02
   19.7500  4.0527964E-02  2.0886681E-02  3.4802176E-02
   20.0000  4.0068404E-02  2.1317798E-02  3.4562470E-02
   21.0000  3.8502628E-02  2.3356296E-02  3.3700050E-02
   22.0000  3.7432241E-02  2.5810008E-02  3.3057470E-02
   23.0000  3.6703602E-02  2.8510724E-02  3.2605786E-02
   24.0000  3.6058635E-02  3.1169836E-02  3.2245653E-02
   25.0000  3.5239962E-02  3.3400764E-02  3.1866228E-02
   26.0000  3.4087820E-02  3.4859210E-02  3.1378628E-02
   27.0000  3.2614090E-02  3.5413478E-02  3.0749635E-02
   28.0000  3.0999845E-02  3.5188870E-02  3.0032535E-02
   29.0000  2.9485860E-02  3.4453150E-02  2.9342097E-02
   30.0000  2.8216542E-02  3.3457968E-02  2.8765917E-02
   31.0000  2.7223046E-02  3.2377472E-02  2.8335061E-02
   32.0000  2.6467134E-02  3.1312696E-02  2.8033835E-02
   33.0000  2.5878370E-02  3.0310087E-02  2.7815780E-02
   34.0000  2.5381089E-02  2.9379998E-02  2.7621063E-02
   35.0000  2.4910760E-02  2.8512480E-02  2.7390150E-02
   36.0000  2.4422945E-02  2.7690648E-02  2.7073774E-02
   37.0000  2.3898546E-02  2.6901553E-02  2.6642626E-02
   38.0000  2.3348066E-02  2.6146126E-02  2.6100750E-02
   39.0000  2.2814517E-02  2.5451977E-02  2.5503539E-02
   40.0000  2.2365761E-02  2.4880936E-02  2.4963663E-02
