    Energy   (100,001)      (010,001)      (001,110)   
  -25.0000  1.6105378E-04  1.7964630E-04  1.6581985E-04
  -24.0000  1.6723589E-04  1.8653900E-04  1.7226322E-04
  -23.0000  1.7385237E-04  1.9393243E-04  1.7916878E-04
  -22.0000  1.8094844E-04  2.0188164E-04  1.8658589E-04
  -21.0000  1.8857570E-04  2.1044990E-04  1.9457108E-04
  -20.0000  1.9679319E-04  2.1971032E-04  2.0318929E-04
  -19.0000  2.0566884E-04  2.2974781E-04  2.1251555E-04
  -18.0000  2.1528115E-04  2.4066151E-04  2.2263690E-04
  -17.0000  2.2572129E-04  2.5256789E-04  2.3365498E-04
  -16.0000  2.3709576E-04  2.6560467E-04  2.4568907E-04
  -15.0000  2.4952971E-04  2.7993580E-04  2.5888010E-04
  -14.0000  2.6317114E-04  2.9575798E-04  2.7339574E-04
  -13.0000  2.7819632E-04  3.1330918E-04  2.8943698E-04
  -12.0000  2.9481684E-04  3.3287986E-04  3.0724673E-04
  -11.0000  3.1328886E-04  3.5482819E-04  3.2712126E-04
  -10.0000  3.3392535E-04  3.7960067E-04  3.4942556E-04
  -9.00000  3.5711279E-04  4.0776087E-04  3.7461439E-04
  -8.00000  3.8333402E-04  4.4002999E-04  4.0326148E-04
  -7.00000  4.1320030E-04  4.7734542E-04  4.3610100E-04
  -6.00000  4.4749722E-04  5.2094742E-04  4.7408789E-04
  -5.00000  4.8725230E-04  5.7251096E-04  5.1848776E-04
  -4.00000  5.3383719E-04  6.3435278E-04  5.7101536E-04
  -3.00000  5.8912847E-04  7.0976973E-04  6.3405611E-04
  -2.00000  6.5577148E-04  8.0361772E-04  7.1103730E-04
  -1.00000  7.3763887E-04  9.2336244E-04  8.0708802E-04
   0.00000  8.4068822E-04  1.0811350E-03  9.3030713E-04
   1.00000  9.7473680E-04  1.2981815E-03  1.0944737E-03
   2.00000  1.1577135E-03  1.6159836E-03  1.3258125E-03
   3.00000  1.4284366E-03  2.1308586E-03  1.6844513E-03
   4.00000  1.9020772E-03  3.1473562E-03  2.3642295E-03
   5.00000  3.0560025E-03  5.9775293E-03  4.2059000E-03
   5.20000  3.4108709E-03  6.8816288E-03  4.7479557E-03
   5.40000  3.7745219E-03  7.8089128E-03  5.2558823E-03
   5.60000  4.1395863E-03  8.7394953E-03  5.7136453E-03
   5.80000  4.5104841E-03  9.6872614E-03  6.1359413E-03
   6.00000  4.8949786E-03  1.0676462E-02  6.5455701E-03
   6.20000  5.3004132E-03  1.1730011E-02  6.9629517E-03
   6.40000  5.7331974E-03  1.2867098E-02  7.4054957E-03
   6.60000  6.1991867E-03  1.4104240E-02  7.8908360E-03
   6.80000  6.7041740E-03  1.5456776E-02  8.4404112E-03
   7.00000  7.2543526E-03  1.6939225E-02  9.0813925E-03
   7.20000  7.8566363E-03  1.8563580E-02  9.8463362E-03
   7.40000  8.5187444E-03  2.0335604E-02  1.0771322E-02
   7.60000  9.2491099E-03  2.2250746E-02  1.1893747E-02
   7.80000  1.0056756E-02  2.4292888E-02  1.3250186E-02
   8.00000  1.0951252E-02  2.6439888E-02  1.4873819E-02
   8.20000  1.1942766E-02  2.8677455E-02  1.6790757E-02
   8.40000  1.3042045E-02  3.1014587E-02  1.9015136E-02
   8.60000  1.4260107E-02  3.3487229E-02  2.1543045E-02
   8.80000  1.5607553E-02  3.6144280E-02  2.4345121E-02
   9.00000  1.7093555E-02  3.9024675E-02  2.7358495E-02
   9.20000  1.8724399E-02  4.2135904E-02  3.0481310E-02
   9.40000  2.0501443E-02  4.5434079E-02  3.3575173E-02
   9.60000  2.2418482E-02  4.8808497E-02  3.6479931E-02
   9.80000  2.4458843E-02  5.2080933E-02  3.9040018E-02
   10.0000  2.6592555E-02  5.5021239E-02  4.1134438E-02
   10.2500  2.9320333E-02  5.7846270E-02  4.3005179E-02
   10.5000  3.2001165E-02  5.9328986E-02  4.4060088E-02
   10.7500  3.4492244E-02  5.9243784E-02  4.4423539E-02
   11.0000  3.6653879E-02  5.7651947E-02  4.4273781E-02
   11.2500  3.8380180E-02  5.4865050E-02  4.3785773E-02
   11.5000  3.9624616E-02  5.1324301E-02  4.3101265E-02
   11.7500  4.0408933E-02  4.7465783E-02  4.2323175E-02
   12.0000  4.0811105E-02  4.3630774E-02  4.1521755E-02
   12.2500  4.0937104E-02  4.0038295E-02  4.0743455E-02
   12.5000  4.0891586E-02  3.6800535E-02  4.0018865E-02
   12.7500  4.0761336E-02  3.3954346E-02  3.9368499E-02
   13.0000  4.0610853E-02  3.1491445E-02  3.8806223E-02
   13.2500  4.0483800E-02  2.9380828E-02  3.8340514E-02
   13.5000  4.0406566E-02  2.7583033E-02  3.7974224E-02
   13.7500  4.0392193E-02  2.6057992E-02  3.7704458E-02
   14.0000  4.0444055E-02  2.4768615E-02  3.7523533E-02
   14.2500  4.0558782E-02  2.3682053E-02  3.7420298E-02
   14.5000  4.0728105E-02  2.2769965E-02  3.7381052E-02
   14.7500  4.0939836E-02  2.2008346E-02  3.7390043E-02
   15.0000  4.1178349E-02  2.1377143E-02  3.7429818E-02
   15.2500  4.1424977E-02  2.0859788E-02  3.7481701E-02
   15.5000  4.1658651E-02  2.0442692E-02  3.7526556E-02
   15.7500  4.1857008E-02  2.0114759E-02  3.7545919E-02
   16.0000  4.1998068E-02  1.9866933E-02  3.7523425E-02
   16.2500  4.2062397E-02  1.9691798E-02  3.7446323E-02
   16.5000  4.2035516E-02  1.9583231E-02  3.7306768E-02
   16.7500  4.1910096E-02  1.9536119E-02  3.7102544E-02
   17.0000  4.1687447E-02  1.9546123E-02  3.6837038E-02
   17.2500  4.1377851E-02  1.9609497E-02  3.6518434E-02
   17.5000  4.0999574E-02  1.9722945E-02  3.6158336E-02
   17.7500  4.0576679E-02  1.9883515E-02  3.5770137E-02
   18.0000  4.0136117E-02  2.0088522E-02  3.5367459E-02
   18.2500  3.9704646E-02  2.0335495E-02  3.4962892E-02
   18.5000  3.9306149E-02  2.0622154E-02  3.4567148E-02
   18.7500  3.8959692E-02  2.0946409E-02  3.4188631E-02
   19.0000  3.8678454E-02  2.1306373E-02  3.3833328E-02
   19.2500  3.8469444E-02  2.1700415E-02  3.3504946E-02
   19.5000  3.8333815E-02  2.2127194E-02  3.3205163E-02
   19.7500  3.8267458E-02  2.2585628E-02  3.2933951E-02
   20.0000  3.8261585E-02  2.3074645E-02  3.2689957E-02
   21.0000  3.8539831E-02  2.5295087E-02  3.1935207E-02
   22.0000  3.8454943E-02  2.7798155E-02  3.1388262E-02
   23.0000  3.7185238E-02  3.0306491E-02  3.0860195E-02
   24.0000  3.4725443E-02  3.2444721E-02  3.0217274E-02
   25.0000  3.1719514E-02  3.3956003E-02  2.9404073E-02
   26.0000  2.8858255E-02  3.4746006E-02  2.8453551E-02
   27.0000  2.6512652E-02  3.4854717E-02  2.7464020E-02
   28.0000  2.4751150E-02  3.4421255E-02  2.6545171E-02
   29.0000  2.3493600E-02  3.3629812E-02  2.5768685E-02
   30.0000  2.2621561E-02  3.2652127E-02  2.5148677E-02
   31.0000  2.2023054E-02  3.1611602E-02  2.4652155E-02
   32.0000  2.1602543E-02  3.0577172E-02  2.4223390E-02
   33.0000  2.1280296E-02  2.9576229E-02  2.3805173E-02
   34.0000  2.0992246E-02  2.8612767E-02  2.3351308E-02
   35.0000  2.0693013E-02  2.7682270E-02  2.2833390E-02
   36.0000  2.0360510E-02  2.6780752E-02  2.2246495E-02
   37.0000  1.9997993E-02  2.5909955E-02  2.1614154E-02
   38.0000  1.9629679E-02  2.5083127E-02  2.0987305E-02
   39.0000  1.9291179E-02  2.4335461E-02  2.0431445E-02
   40.0000  1.9017601E-02  2.3729203E-02  2.0000825E-02
