    Energy   (100,001)      (010,001)      (001,110)   
  -25.0000  1.7083135E-04  1.8416293E-04  1.8088623E-04
  -24.0000  1.7680274E-04  1.9129231E-04  1.8717806E-04
  -23.0000  1.8316645E-04  1.9894556E-04  1.9388670E-04
  -22.0000  1.8996138E-04  2.0718097E-04  2.0105408E-04
  -21.0000  1.9723164E-04  2.1606562E-04  2.0872795E-04
  -20.0000  2.0502753E-04  2.2567714E-04  2.1696282E-04
  -19.0000  2.1340665E-04  2.3610585E-04  2.2582126E-04
  -18.0000  2.2243521E-04  2.4745737E-04  2.3537546E-04
  -17.0000  2.3218976E-04  2.5985602E-04  2.4570909E-04
  -16.0000  2.4275929E-04  2.7344910E-04  2.5691973E-04
  -15.0000  2.5424783E-04  2.8841233E-04  2.6912188E-04
  -14.0000  2.6677781E-04  3.0495700E-04  2.8245080E-04
  -13.0000  2.8049436E-04  3.2333932E-04  2.9706744E-04
  -12.0000  2.9557080E-04  3.4387286E-04  3.1316494E-04
  -11.0000  3.1221596E-04  3.6694529E-04  3.3097709E-04
  -10.0000  3.3068386E-04  3.9304136E-04  3.5078983E-04
  -9.00000  3.5128683E-04  4.2277483E-04  3.7295677E-04
  -8.00000  3.7441357E-04  4.5693386E-04  3.9792088E-04
  -7.00000  4.0055464E-04  4.9654674E-04  4.2624516E-04
  -6.00000  4.3033907E-04  5.4297961E-04  4.5865745E-04
  -5.00000  4.6458881E-04  5.9808580E-04  4.9611738E-04
  -4.00000  5.0440208E-04  6.6444168E-04  5.3992051E-04
  -3.00000  5.5128653E-04  7.4573424E-04  5.9186667E-04
  -2.00000  6.0738282E-04  8.4742866E-04  6.5454714E-04
  -1.00000  6.7586434E-04  9.7798891E-04  7.3186707E-04
   0.00000  7.6171361E-04  1.1512866E-03  8.3007990E-04
   1.00000  8.7340812E-04  1.3918706E-03  9.6008096E-04
   2.00000  1.0272080E-03  1.7483119E-03  1.1433641E-03
   3.00000  1.2609848E-03  2.3354721E-03  1.4315675E-03
   4.00000  1.6988906E-03  3.5263877E-03  1.9985481E-03
   5.00000  2.8919618E-03  6.9492553E-03  3.6377645E-03
   5.20000  3.2565289E-03  8.0218471E-03  4.1625498E-03
   5.40000  3.6117414E-03  9.0890395E-03  4.6917696E-03
   5.60000  3.9461417E-03  1.0124373E-02  5.2090586E-03
   5.80000  4.2651817E-03  1.1149546E-02  5.7154585E-03
   6.00000  4.5794321E-03  1.2201289E-02  6.2116226E-03
   6.20000  4.8989734E-03  1.3315586E-02  6.6885821E-03
   6.40000  5.2321023E-03  1.4524286E-02  7.1277208E-03
   6.60000  5.5853874E-03  1.5855516E-02  7.5086540E-03
   6.80000  5.9640825E-03  1.7334577E-02  7.8220292E-03
   7.00000  6.3725877E-03  1.8984577E-02  8.0795211E-03
   7.20000  6.8147649E-03  2.0826772E-02  8.3133860E-03
   7.40000  7.2940475E-03  2.2880664E-02  8.5661189E-03
   7.60000  7.8134419E-03  2.5163793E-02  8.8782167E-03
   7.80000  8.3755405E-03  2.7691165E-02  9.2809121E-03
   8.00000  8.9825426E-03  3.0474394E-02  9.7948162E-03
   8.20000  9.6361624E-03  3.3519786E-02  1.0431682E-02
   8.40000  1.0337303E-02  3.6823774E-02  1.1196419E-02
   8.60000  1.1085453E-02  4.0365137E-02  1.2087870E-02
   8.80000  1.1877925E-02  4.4094561E-02  1.3098178E-02
   9.00000  1.2709237E-02  4.7922981E-02  1.4211423E-02
   9.20000  1.3571044E-02  5.1711911E-02  1.5402811E-02
   9.40000  1.4453008E-02  5.5271137E-02  1.6639857E-02
   9.60000  1.5344672E-02  5.8370279E-02  1.7886384E-02
   9.80000  1.6237880E-02  6.0768609E-02  1.9108692E-02
   10.0000  1.7128703E-02  6.2259915E-02  2.0281560E-02
   10.2500  1.8240321E-02  6.2667766E-02  2.1658713E-02
   10.5000  1.9357769E-02  6.1468910E-02  2.2936893E-02
   10.7500  2.0490108E-02  5.8917153E-02  2.4134904E-02
   11.0000  2.1639668E-02  5.5421012E-02  2.5280669E-02
   11.2500  2.2797570E-02  5.1415746E-02  2.6400366E-02
   11.5000  2.3943855E-02  4.7272880E-02  2.7511164E-02
   11.7500  2.5051066E-02  4.3263158E-02  2.8617676E-02
   12.0000  2.6089868E-02  3.9556463E-02  2.9711427E-02
   12.2500  2.7035457E-02  3.6239220E-02  3.0773082E-02
   12.5000  2.7873159E-02  3.3337105E-02  3.1777016E-02
   12.7500  2.8601046E-02  3.0837374E-02  3.2698126E-02
   13.0000  2.9228624E-02  2.8707292E-02  3.3519297E-02
   13.2500  2.9773875E-02  2.6906403E-02  3.4236224E-02
   13.5000  3.0260584E-02  2.5393307E-02  3.4857834E-02
   13.7500  3.0715319E-02  2.4129091E-02  3.5402955E-02
   14.0000  3.1164073E-02  2.3078945E-02  3.5895383E-02
   14.2500  3.1629500E-02  2.2212773E-02  3.6359165E-02
   14.5000  3.2129124E-02  2.1505152E-02  3.6815077E-02
   14.7500  3.2674290E-02  2.0934892E-02  3.7278597E-02
   15.0000  3.3269803E-02  2.0484425E-02  3.7759020E-02
   15.2500  3.3914321E-02  2.0139227E-02  3.8259008E-02
   15.5000  3.4601183E-02  1.9887338E-02  3.8774358E-02
   15.7500  3.5319298E-02  1.9718908E-02  3.9294191E-02
   16.0000  3.6054036E-02  1.9625794E-02  3.9801735E-02
   16.2500  3.6788221E-02  1.9601187E-02  4.0275839E-02
   16.5000  3.7503323E-02  1.9639301E-02  4.0693175E-02
   16.7500  3.8180886E-02  1.9735123E-02  4.1030926E-02
   17.0000  3.8804087E-02  1.9884198E-02  4.1269590E-02
   17.2500  3.9359266E-02  2.0082466E-02  4.1395400E-02
   17.5000  3.9837174E-02  2.0326142E-02  4.1401922E-02
   17.7500  4.0233737E-02  2.0611619E-02  4.1290543E-02
   18.0000  4.0550178E-02  2.0935417E-02  4.1069840E-02
   18.2500  4.0792487E-02  2.1294150E-02  4.0754068E-02
   18.5000  4.0970359E-02  2.1684517E-02  4.0361143E-02
   18.7500  4.1095794E-02  2.2103323E-02  3.9910549E-02
   19.0000  4.1181611E-02  2.2547522E-02  3.9421461E-02
   19.2500  4.1240100E-02  2.3014298E-02  3.8911290E-02
   19.5000  4.1281930E-02  2.3501152E-02  3.8394701E-02
   19.7500  4.1315398E-02  2.4005915E-02  3.7883143E-02
   20.0000  4.1346027E-02  2.4526539E-02  3.7384980E-02
   21.0000  4.1459078E-02  2.6709964E-02  3.5625071E-02
   22.0000  4.1400905E-02  2.8900548E-02  3.4308924E-02
   23.0000  4.0837444E-02  3.0897768E-02  3.3335681E-02
   24.0000  3.9567789E-02  3.2481956E-02  3.2540006E-02
   25.0000  3.7660026E-02  3.3468978E-02  3.1791702E-02
   26.0000  3.5385788E-02  3.3800749E-02  3.1031561E-02
   27.0000  3.3077896E-02  3.3568198E-02  3.0277070E-02
   28.0000  3.0999781E-02  3.2945203E-02  2.9595400E-02
   29.0000  2.9288537E-02  3.2105848E-02  2.9055331E-02
   30.0000  2.7971669E-02  3.1179843E-02  2.8687766E-02
   31.0000  2.7009400E-02  3.0246292E-02  2.8475130E-02
   32.0000  2.6329930E-02  2.9344764E-02  2.8365915E-02
   33.0000  2.5853663E-02  2.8489102E-02  2.8297419E-02
   34.0000  2.5508149E-02  2.7679883E-02  2.8213398E-02
   35.0000  2.5234466E-02  2.6916579E-02  2.8075217E-02
   36.0000  2.4990602E-02  2.6202083E-02  2.7866810E-02
   37.0000  2.4755527E-02  2.5535696E-02  2.7591887E-02
   38.0000  2.4526220E-02  2.4919155E-02  2.7273262E-02
   39.0000  2.4313074E-02  2.4369706E-02  2.6951721E-02
   40.0000  2.4135378E-02  2.3926260E-02  2.6679211E-02
