    Energy   (100,001)      (010,001)      (001,110)   
  -25.0000  1.6570175E-04  1.8529279E-04  1.7673623E-04
  -24.0000  1.7189169E-04  1.9218874E-04  1.8336263E-04
  -23.0000  1.7851025E-04  1.9957536E-04  1.9045709E-04
  -22.0000  1.8560179E-04  2.0750573E-04  1.9806945E-04
  -21.0000  1.9321683E-04  2.1604083E-04  2.0625676E-04
  -20.0000  2.0141326E-04  2.2525097E-04  2.1508462E-04
  -19.0000  2.1025763E-04  2.3521765E-04  2.2462889E-04
  -18.0000  2.1982686E-04  2.4603585E-04  2.3497764E-04
  -17.0000  2.3021030E-04  2.5781695E-04  2.4623383E-04
  -16.0000  2.4151236E-04  2.7069234E-04  2.5851844E-04
  -15.0000  2.5385578E-04  2.8481809E-04  2.7197468E-04
  -14.0000  2.6738580E-04  3.0038101E-04  2.8677324E-04
  -13.0000  2.8227557E-04  3.1760646E-04  3.0311917E-04
  -12.0000  2.9873313E-04  3.3676881E-04  3.2126102E-04
  -11.0000  3.1701070E-04  3.5820531E-04  3.4150290E-04
  -10.0000  3.3741700E-04  3.8233502E-04  3.6422094E-04
  -9.00000  3.6033409E-04  4.0968497E-04  3.8988593E-04
  -8.00000  3.8624061E-04  4.4092693E-04  4.1909511E-04
  -7.00000  4.1574463E-04  4.7693029E-04  4.5261786E-04
  -6.00000  4.4963106E-04  5.1883976E-04  4.9146292E-04
  -5.00000  4.8893213E-04  5.6819302E-04  5.3698025E-04
  -4.00000  5.3503535E-04  6.2710417E-04  5.9102068E-04
  -3.00000  5.8985571E-04  6.9856140E-04  6.5619671E-04
  -2.00000  6.5612328E-04  7.8693277E-04  7.3633018E-04
  -1.00000  7.3789359E-04  8.9887705E-04  8.3727058E-04
   0.00000  8.4152629E-04  1.0451133E-03  9.6851730E-04
   1.00000  9.7777108E-04  1.2442296E-03  1.1468055E-03
   2.00000  1.1669352E-03  1.5321817E-03  1.4053541E-03
   3.00000  1.4549693E-03  1.9919820E-03  1.8239329E-03
   4.00000  1.9855168E-03  2.8872665E-03  2.6696674E-03
   5.00000  3.3753768E-03  5.3583136E-03  5.1415987E-03
   5.20000  3.8086477E-03  6.1310029E-03  5.9139043E-03
   5.40000  4.2497580E-03  6.9046782E-03  6.6712240E-03
   5.60000  4.6913450E-03  7.6573206E-03  7.3879010E-03
   5.80000  5.1422653E-03  8.3981031E-03  8.0710431E-03
   6.00000  5.6136421E-03  9.1463382E-03  8.7355169E-03
   6.20000  6.1108212E-03  9.9219853E-03  9.3947156E-03
   6.40000  6.6313041E-03  1.0744134E-02  1.0063257E-02
   6.60000  7.1676338E-03  1.1631670E-02  1.0762826E-02
   6.80000  7.7138602E-03  1.2604084E-02  1.1524391E-02
   7.00000  8.2715922E-03  1.3682079E-02  1.2383542E-02
   7.20000  8.8514680E-03  1.4887930E-02  1.3371535E-02
   7.40000  9.4697498E-03  1.6245613E-02  1.4507679E-02
   7.60000  1.0143244E-02  1.7780615E-02  1.5795944E-02
   7.80000  1.0885557E-02  1.9519394E-02  1.7224699E-02
   8.00000  1.1705761E-02  2.1488507E-02  1.8767653E-02
   8.20000  1.2609232E-02  2.3713269E-02  2.0385814E-02
   8.40000  1.3599961E-02  2.6215677E-02  2.2031819E-02
   8.60000  1.4683259E-02  2.9011500E-02  2.3657630E-02
   8.80000  1.5867248E-02  3.2106164E-02  2.5223792E-02
   9.00000  1.7161535E-02  3.5488470E-02  2.6705779E-02
   9.20000  1.8572978E-02  3.9121382E-02  2.8093973E-02
   9.40000  2.0100225E-02  4.2930851E-02  2.9388147E-02
   9.60000  2.1729304E-02  4.6796129E-02  3.0590829E-02
   9.80000  2.3431859E-02  5.0546850E-02  3.1703711E-02
   10.0000  2.5166580E-02  5.3971823E-02  3.2728404E-02
   10.2500  2.7304156E-02  5.7444983E-02  3.3892649E-02
   10.5000  2.9316200E-02  5.9642004E-02  3.4944728E-02
   10.7500  3.1122951E-02  6.0308491E-02  3.5905061E-02
   11.0000  3.2674052E-02  5.9433121E-02  3.6783055E-02
   11.2500  3.3951247E-02  5.7246927E-02  3.7571063E-02
   11.5000  3.4964385E-02  5.4134085E-02  3.8247968E-02
   11.7500  3.5741598E-02  5.0512348E-02  3.8786927E-02
   12.0000  3.6318638E-02  4.6740609E-02  3.9163375E-02
   12.2500  3.6731958E-02  4.3075994E-02  3.9362003E-02
   12.5000  3.7015970E-02  3.9672693E-02  3.9381574E-02
   12.7500  3.7202185E-02  3.6604574E-02  3.9236060E-02
   13.0000  3.7319020E-02  3.3893272E-02  3.8952247E-02
   13.2500  3.7392107E-02  3.1529769E-02  3.8565605E-02
   13.5000  3.7444002E-02  2.9488622E-02  3.8115343E-02
   13.7500  3.7493285E-02  2.7737360E-02  3.7639540E-02
   14.0000  3.7554229E-02  2.6242146E-02  3.7171551E-02
   14.2500  3.7637086E-02  2.4970742E-02  3.6738004E-02
   14.5000  3.7748425E-02  2.3893932E-02  3.6358066E-02
   14.7500  3.7891415E-02  2.2986064E-02  3.6043604E-02
   15.0000  3.8066085E-02  2.2225087E-02  3.5799924E-02
   15.2500  3.8269586E-02  2.1592306E-02  3.5626801E-02
   15.5000  3.8496463E-02  2.1071996E-02  3.5519602E-02
   15.7500  3.8738947E-02  2.0650975E-02  3.5470368E-02
   16.0000  3.8987305E-02  2.0318177E-02  3.5468800E-02
   16.2500  3.9230302E-02  2.0064283E-02  3.5503145E-02
   16.5000  3.9455813E-02  1.9881409E-02  3.5560969E-02
   16.7500  3.9651609E-02  1.9762846E-02  3.5629861E-02
   17.0000  3.9806306E-02  1.9702866E-02  3.5698059E-02
   17.2500  3.9910391E-02  1.9696559E-02  3.5755002E-02
   17.5000  3.9957228E-02  1.9739696E-02  3.5791806E-02
   17.7500  3.9943862E-02  1.9828612E-02  3.5801617E-02
   18.0000  3.9871471E-02  1.9960099E-02  3.5779829E-02
   18.2500  3.9745363E-02  2.0131307E-02  3.5724131E-02
   18.5000  3.9574457E-02  2.0339665E-02  3.5634382E-02
   18.7500  3.9370346E-02  2.0582822E-02  3.5512307E-02
   19.0000  3.9146059E-02  2.0858623E-02  3.5361053E-02
   19.2500  3.8914727E-02  2.1165125E-02  3.5184655E-02
   19.5000  3.8688316E-02  2.1500635E-02  3.4987490E-02
   19.7500  3.8476607E-02  2.1863704E-02  3.4773801E-02
   20.0000  3.8286561E-02  2.2252971E-02  3.4547443E-02
   21.0000  3.7785614E-02  2.4033556E-02  3.3579463E-02
   22.0000  3.7533780E-02  2.6073993E-02  3.2597230E-02
   23.0000  3.7021229E-02  2.8250189E-02  3.1610550E-02
   24.0000  3.5794897E-02  3.0406096E-02  3.0592650E-02
   25.0000  3.3810478E-02  3.2350658E-02  2.9539206E-02
   26.0000  3.1414869E-02  3.3889654E-02  2.8483042E-02
   27.0000  2.9066101E-02  3.4871828E-02  2.7495336E-02
   28.0000  2.7082092E-02  3.5245801E-02  2.6663779E-02
   29.0000  2.5548899E-02  3.5095117E-02  2.6037284E-02
   30.0000  2.4421316E-02  3.4573590E-02  2.5614716E-02
   31.0000  2.3616042E-02  3.3831122E-02  2.5360295E-02
   32.0000  2.3045879E-02  3.2978638E-02  2.5220547E-02
   33.0000  2.2632086E-02  3.2082421E-02  2.5138172E-02
   34.0000  2.2309803E-02  3.1173541E-02  2.5060477E-02
   35.0000  2.2030745E-02  3.0261756E-02  2.4943197E-02
   36.0000  2.1764803E-02  2.9348682E-02  2.4753421E-02
   37.0000  2.1500410E-02  2.8439251E-02  2.4474488E-02
   38.0000  2.1242428E-02  2.7553272E-02  2.4114293E-02
   39.0000  2.1007558E-02  2.6738509E-02  2.3715549E-02
   40.0000  2.0816517E-02  2.6074004E-02  2.3356044E-02
