    Energy   (100,001)      (010,001)      (001,110)   
  -25.0000  1.6567610E-04  1.7558520E-04  1.7907174E-04
  -24.0000  1.7152249E-04  1.8250424E-04  1.8533758E-04
  -23.0000  1.7775136E-04  1.8993411E-04  1.9201869E-04
  -22.0000  1.8440017E-04  1.9793156E-04  1.9915675E-04
  -21.0000  1.9151133E-04  2.0656186E-04  2.0679914E-04
  -20.0000  1.9913309E-04  2.1590052E-04  2.1499996E-04
  -19.0000  2.0732053E-04  2.2603531E-04  2.2382126E-04
  -18.0000  2.1613685E-04  2.3706883E-04  2.3333453E-04
  -17.0000  2.2565489E-04  2.4912174E-04  2.4362263E-04
  -16.0000  2.3595907E-04  2.6233683E-04  2.5478204E-04
  -15.0000  2.4714775E-04  2.7688436E-04  2.6692589E-04
  -14.0000  2.5933626E-04  2.9296880E-04  2.8018765E-04
  -13.0000  2.7266074E-04  3.1083782E-04  2.9472597E-04
  -12.0000  2.8728309E-04  3.3079419E-04  3.1073093E-04
  -11.0000  3.0339740E-04  3.5321172E-04  3.2843231E-04
  -10.0000  3.2123850E-04  3.7855720E-04  3.4811063E-04
  -9.00000  3.4109344E-04  4.0742077E-04  3.7011218E-04
  -8.00000  3.6331714E-04  4.4055903E-04  3.9486983E-04
  -7.00000  3.8835429E-04  4.7895741E-04  4.2293249E-04
  -6.00000  4.1677068E-04  5.2392282E-04  4.5500792E-04
  -5.00000  4.4929925E-04  5.7722497E-04  4.9202661E-04
  -4.00000  4.8691014E-04  6.4131944E-04  5.3524061E-04
  -3.00000  5.3092186E-04  7.1971407E-04  5.8638303E-04
  -2.00000  5.8318668E-04  8.1760018E-04  6.4793876E-04
  -1.00000  6.4642087E-04  9.4300806E-04  7.2363559E-04
   0.00000  7.2484513E-04  1.1090929E-03  8.1941337E-04
   1.00000  8.2557715E-04  1.3391576E-03  9.4556835E-04
   2.00000  9.6218917E-04  1.6794589E-03  1.1223220E-03
   3.00000  1.1662421E-03  2.2401363E-03  1.3981647E-03
   4.00000  1.5413089E-03  3.3827840E-03  1.9371133E-03
   5.00000  2.5511412E-03  6.7099904E-03  3.4919658E-03
   5.20000  2.8655077E-03  7.7642134E-03  3.9814273E-03
   5.40000  3.1802729E-03  8.8147814E-03  4.4584982E-03
   5.60000  3.4873364E-03  9.8272420E-03  4.8984219E-03
   5.80000  3.7892620E-03  1.0813922E-02  5.3009395E-03
   6.00000  4.0884339E-03  1.1804652E-02  5.6779713E-03
   6.20000  4.3832062E-03  1.2829909E-02  6.0433138E-03
   6.40000  4.6695019E-03  1.3914322E-02  6.4063982E-03
   6.60000  4.9437796E-03  1.5075725E-02  6.7712652E-03
   6.80000  5.2050038E-03  1.6327419E-02  7.1396735E-03
   7.00000  5.4551878E-03  1.7681702E-02  7.5148018E-03
   7.20000  5.6990540E-03  1.9153060E-02  7.9030027E-03
   7.40000  5.9434238E-03  2.0760054E-02  8.3135169E-03
   7.60000  6.1965720E-03  2.2525775E-02  8.7572749E-03
   7.80000  6.4674966E-03  2.4476997E-02  9.2457569E-03
   8.00000  6.7651029E-03  2.6642147E-02  9.7902878E-03
   8.20000  7.0974763E-03  2.9048393E-02  1.0401673E-02
   8.40000  7.4714299E-03  3.1718037E-02  1.1089860E-02
   8.60000  7.8923612E-03  3.4664008E-02  1.1863288E-02
   8.80000  8.3643293E-03  3.7883917E-02  1.2727727E-02
   9.00000  8.8902612E-03  4.1352037E-02  1.3684639E-02
   9.20000  9.4722392E-03  4.5009038E-02  1.4729451E-02
   9.40000  1.0111833E-02  4.8750491E-02  1.5850311E-02
   9.60000  1.0810402E-02  5.2417874E-02  1.7027939E-02
   9.80000  1.1569250E-02  5.5799339E-02  1.8236939E-02
   10.0000  1.2389508E-02  5.8648328E-02  1.9448399E-02
   10.2500  1.3501902E-02  6.1095684E-02  2.0922275E-02
   10.5000  1.4709556E-02  6.1995431E-02  2.2307483E-02
   10.7500  1.6007510E-02  6.1263230E-02  2.3575669E-02
   11.0000  1.7386600E-02  5.9092065E-02  2.4720806E-02
   11.2500  1.8832507E-02  5.5864470E-02  2.5754660E-02
   11.5000  2.0325114E-02  5.2021358E-02  2.6697219E-02
   11.7500  2.1839569E-02  4.7955656E-02  2.7568182E-02
   12.0000  2.3349286E-02  4.3959978E-02  2.8384732E-02
   12.2500  2.4829956E-02  4.0221862E-02  2.9163430E-02
   12.5000  2.6263753E-02  3.6842789E-02  2.9921936E-02
   12.7500  2.7642315E-02  3.3862391E-02  3.0678757E-02
   13.0000  2.8966785E-02  3.1280115E-02  3.1450908E-02
   13.2500  3.0245374E-02  2.9071957E-02  3.2251052E-02
   13.5000  3.1490097E-02  2.7202198E-02  3.3086224E-02
   13.7500  3.2713090E-02  2.5631327E-02  3.3958616E-02
   14.0000  3.3923185E-02  2.4320991E-02  3.4867129E-02
   14.2500  3.5123988E-02  2.3236396E-02  3.5808311E-02
   14.5000  3.6313398E-02  2.2347045E-02  3.6776483E-02
   14.7500  3.7483898E-02  2.1626735E-02  3.7763472E-02
   15.0000  3.8623279E-02  2.1053244E-02  3.8758173E-02
   15.2500  3.9715679E-02  2.0607902E-02  3.9746144E-02
   15.5000  4.0742875E-02  2.0275126E-02  4.0709391E-02
   15.7500  4.1685710E-02  2.0041956E-02  4.1626559E-02
   16.0000  4.2525547E-02  1.9897623E-02  4.2473662E-02
   16.2500  4.3245662E-02  1.9833148E-02  4.3225414E-02
   16.5000  4.3832461E-02  1.9841002E-02  4.3857080E-02
   16.7500  4.4276453E-02  1.9914806E-02  4.4346663E-02
   17.0000  4.4572906E-02  2.0049079E-02  4.4677095E-02
   17.2500  4.4722186E-02  2.0239036E-02  4.4838092E-02
   17.5000  4.4729777E-02  2.0480398E-02  4.4827334E-02
   17.7500  4.4606006E-02  2.0769249E-02  4.4650760E-02
   18.0000  4.4365502E-02  2.1101906E-02  4.4321937E-02
   18.2500  4.4026397E-02  2.1474818E-02  4.3860638E-02
   18.5000  4.3609309E-02  2.1884481E-02  4.3290898E-02
   18.7500  4.3136163E-02  2.2327392E-02  4.2638857E-02
   19.0000  4.2628932E-02  2.2800033E-02  4.1930679E-02
   19.2500  4.2108393E-02  2.3298915E-02  4.1190750E-02
   19.5000  4.1593012E-02  2.3820640E-02  4.0440290E-02
   19.7500  4.1098140E-02  2.4361912E-02  3.9696516E-02
   20.0000  4.0635760E-02  2.4919297E-02  3.8972611E-02
   21.0000  3.9261183E-02  2.7214803E-02  3.6445221E-02
   22.0000  3.8741801E-02  2.9372060E-02  3.4655465E-02
   23.0000  3.8809931E-02  3.1138966E-02  3.3467219E-02
   24.0000  3.8950783E-02  3.2370740E-02  3.2623093E-02
   25.0000  3.8648195E-02  3.3037186E-02  3.1914476E-02
   26.0000  3.7605076E-02  3.3195775E-02  3.1222043E-02
   27.0000  3.5889850E-02  3.2956270E-02  3.0515549E-02
   28.0000  3.3866126E-02  3.2446064E-02  2.9835296E-02
   29.0000  3.1900089E-02  3.1765877E-02  2.9238029E-02
   30.0000  3.0206601E-02  3.0983675E-02  2.8760789E-02
   31.0000  2.8849194E-02  3.0143278E-02  2.8408254E-02
   32.0000  2.7795748E-02  2.9269529E-02  2.8157970E-02
   33.0000  2.6974747E-02  2.8372396E-02  2.7974085E-02
   34.0000  2.6308697E-02  2.7452042E-02  2.7818020E-02
   35.0000  2.5728286E-02  2.6505605E-02  2.7653271E-02
   36.0000  2.5177551E-02  2.5535029E-02  2.7447530E-02
   37.0000  2.4618621E-02  2.4555132E-02  2.7176750E-02
   38.0000  2.4040722E-02  2.3601036E-02  2.6834552E-02
   39.0000  2.3472686E-02  2.2733935E-02  2.6448478E-02
   40.0000  2.2984671E-02  2.2035346E-02  2.6091427E-02
