    Energy   (100,001)      (010,001)      (001,110)   
  -25.0000  1.6658071E-04  1.7704983E-04  1.7085830E-04
  -24.0000  1.7268204E-04  1.8393360E-04  1.7721483E-04
  -23.0000  1.7919740E-04  1.9132128E-04  1.8401254E-04
  -22.0000  1.8616878E-04  1.9926849E-04  1.9129734E-04
  -21.0000  1.9364387E-04  2.0783919E-04  1.9912161E-04
  -20.0000  2.0167716E-04  2.1710733E-04  2.0754538E-04
  -19.0000  2.1033113E-04  2.2715877E-04  2.1663778E-04
  -18.0000  2.1967774E-04  2.3809383E-04  2.2647878E-04
  -17.0000  2.2980034E-04  2.5003035E-04  2.3716142E-04
  -16.0000  2.4079596E-04  2.6310771E-04  2.4879453E-04
  -15.0000  2.5277819E-04  2.7749191E-04  2.6150626E-04
  -14.0000  2.6588092E-04  2.9338209E-04  2.7544852E-04
  -13.0000  2.8026303E-04  3.1101919E-04  2.9080267E-04
  -12.0000  2.9611445E-04  3.3069735E-04  3.0778709E-04
  -11.0000  3.1366415E-04  3.5277926E-04  3.2666704E-04
  -10.0000  3.3319077E-04  3.7771703E-04  3.4776798E-04
  -9.00000  3.5503676E-04  4.0608121E-04  3.7149370E-04
  -8.00000  3.7962800E-04  4.3860174E-04  3.9835146E-04
  -7.00000  4.0750099E-04  4.7622702E-04  4.2898770E-04
  -6.00000  4.3934175E-04  5.2021120E-04  4.6423986E-04
  -5.00000  4.7604287E-04  5.7224670E-04  5.0521365E-04
  -4.00000  5.1878960E-04  6.3467212E-04  5.5340247E-04
  -3.00000  5.6919501E-04  7.1081099E-04  6.1087906E-04
  -2.00000  6.2952188E-04  8.0555008E-04  6.8061905E-04
  -1.00000  7.0306947E-04  9.2638560E-04  7.6708228E-04
   0.00000  7.9490227E-04  1.0854628E-03  8.7734697E-04
   1.00000  9.1338020E-04  1.3039740E-03  1.0235853E-03
   2.00000  1.0739202E-03  1.6231086E-03  1.2294094E-03
   3.00000  1.3107899E-03  2.1380392E-03  1.5506364E-03
   4.00000  1.7315326E-03  3.1486781E-03  2.1748697E-03
   5.00000  2.7951052E-03  5.9388596E-03  3.9288537E-03
   5.20000  3.1046209E-03  6.8197397E-03  4.4354066E-03
   5.40000  3.3990992E-03  7.7174851E-03  4.9005320E-03
   5.60000  3.6714955E-03  8.6155908E-03  5.3160970E-03
   5.80000  3.9302158E-03  9.5306070E-03  5.7022413E-03
   6.00000  4.1874191E-03  1.0487691E-02  6.0825903E-03
   6.20000  4.4542389E-03  1.1509414E-02  6.4758174E-03
   6.40000  4.7403941E-03  1.2613313E-02  6.8961865E-03
   6.60000  5.0548616E-03  1.3811973E-02  7.3556079E-03
   6.80000  5.4063993E-03  1.5113890E-02  7.8650878E-03
   7.00000  5.8037280E-03  1.6525405E-02  8.4355236E-03
   7.20000  6.2554527E-03  1.8053927E-02  9.0780651E-03
   7.40000  6.7698242E-03  1.9711832E-02  9.8041302E-03
   7.60000  7.3544700E-03  2.1520086E-02  1.0625105E-02
   7.80000  8.0162274E-03  2.3510412E-02  1.1551751E-02
   8.00000  8.7611672E-03  2.5724723E-02  1.2593311E-02
   8.20000  9.5948117E-03  2.8210962E-02  1.3756316E-02
   8.40000  1.0522438E-02  3.1015175E-02  1.5043090E-02
   8.60000  1.1549237E-02  3.4170295E-02  1.6450088E-02
   8.80000  1.2680046E-02  3.7682432E-02  1.7966367E-02
   9.00000  1.3918470E-02  4.1515745E-02  1.9572583E-02
   9.20000  1.5265569E-02  4.5577590E-02  2.1240849E-02
   9.40000  1.6718650E-02  4.9707339E-02  2.2935646E-02
   9.60000  1.8270383E-02  5.3674676E-02  2.4616192E-02
   9.80000  1.9907852E-02  5.7195480E-02  2.6240965E-02
   10.0000  2.1611262E-02  5.9972780E-02  2.7773778E-02
   10.2500  2.3789860E-02  6.2030570E-02  2.9522611E-02
   10.5000  2.5953665E-02  6.2311837E-02  3.1067311E-02
   10.7500  2.8012099E-02  6.0918845E-02  3.2415851E-02
   11.0000  2.9871760E-02  5.8219622E-02  3.3594036E-02
   11.2500  3.1458962E-02  5.4692915E-02  3.4632423E-02
   11.5000  3.2736164E-02  5.0786501E-02  3.5557159E-02
   11.7500  3.3705970E-02  4.6840221E-02  3.6385346E-02
   12.0000  3.4406259E-02  4.3074458E-02  3.7125701E-02
   12.2500  3.4898137E-02  3.9612903E-02  3.7782080E-02
   12.5000  3.5251301E-02  3.6511179E-02  3.8355844E-02
   12.7500  3.5532117E-02  3.3780718E-02  3.8847258E-02
   13.0000  3.5796653E-02  3.1406715E-02  3.9258155E-02
   13.2500  3.6088122E-02  2.9360719E-02  3.9594617E-02
   13.5000  3.6436799E-02  2.7608653E-02  3.9867471E-02
   13.7500  3.6861080E-02  2.6115560E-02  4.0090797E-02
   14.0000  3.7369009E-02  2.4848283E-02  4.0279630E-02
   14.2500  3.7959732E-02  2.3776843E-02  4.0447641E-02
   14.5000  3.8624641E-02  2.2874998E-02  4.0605253E-02
   14.7500  3.9348189E-02  2.2120312E-02  4.0758398E-02
   15.0000  4.0108575E-02  2.1493938E-02  4.0907991E-02
   15.2500  4.0878507E-02  2.0980250E-02  4.1050047E-02
   15.5000  4.1626294E-02  2.0566405E-02  4.1176362E-02
   15.7500  4.2317487E-02  2.0241881E-02  4.1275616E-02
   16.0000  4.2917177E-02  1.9998040E-02  4.1334805E-02
   16.2500  4.3392853E-02  1.9827733E-02  4.1340859E-02
   16.5000  4.3717508E-02  1.9724962E-02  4.1282276E-02
   16.7500  4.3872530E-02  1.9684596E-02  4.1150582E-02
   17.0000  4.3849817E-02  1.9702153E-02  4.0941401E-02
   17.2500  4.3652705E-02  1.9773623E-02  4.0654996E-02
   17.5000  4.3295504E-02  1.9895359E-02  4.0296197E-02
   17.7500  4.2801751E-02  2.0063990E-02  3.9873779E-02
   18.0000  4.2201514E-02  2.0276375E-02  3.9399424E-02
   18.2500  4.1528276E-02  2.0529580E-02  3.8886485E-02
   18.5000  4.0815867E-02  2.0820859E-02  3.8348744E-02
   18.7500  4.0095871E-02  2.1147662E-02  3.7799339E-02
   19.0000  3.9395703E-02  2.1507651E-02  3.7249935E-02
   19.2500  3.8737420E-02  2.1898742E-02  3.6710177E-02
   19.5000  3.8137180E-02  2.2319152E-02  3.6187384E-02
   19.7500  3.7605253E-02  2.2767377E-02  3.5686517E-02
   20.0000  3.7146549E-02  2.3241957E-02  3.5210464E-02
   21.0000  3.6014897E-02  2.5356895E-02  3.3573150E-02
   22.0000  3.5708676E-02  2.7678924E-02  3.2326621E-02
   23.0000  3.5647479E-02  2.9990357E-02  3.1332573E-02
   24.0000  3.5310235E-02  3.1992272E-02  3.0450567E-02
   25.0000  3.4430549E-02  3.3379127E-02  2.9599840E-02
   26.0000  3.3031277E-02  3.4022468E-02  2.8764633E-02
   27.0000  3.1353175E-02  3.3990642E-02  2.7978425E-02
   28.0000  2.9691442E-02  3.3469929E-02  2.7293787E-02
   29.0000  2.8253114E-02  3.2670388E-02  2.6751014E-02
   30.0000  2.7116305E-02  3.1759171E-02  2.6360328E-02
   31.0000  2.6262512E-02  3.0837070E-02  2.6100486E-02
   32.0000  2.5624253E-02  2.9945244E-02  2.5928529E-02
   33.0000  2.5120301E-02  2.9083990E-02  2.5791650E-02
   34.0000  2.4675952E-02  2.8231578E-02  2.5635329E-02
   35.0000  2.4233751E-02  2.7360432E-02  2.5408212E-02
   36.0000  2.3760118E-02  2.6451264E-02  2.5067824E-02
   37.0000  2.3249982E-02  2.5505246E-02  2.4590500E-02
   38.0000  2.2727618E-02  2.4553732E-02  2.3987289E-02
   39.0000  2.2240693E-02  2.3664849E-02  2.3324452E-02
   40.0000  2.1844630E-02  2.2936468E-02  2.2728042E-02
