    Energy   (100,001)      (010,001)      (001,110)   
  -25.0000  1.6832375E-04  1.7303438E-04  1.7770327E-04
  -24.0000  1.7444541E-04  1.7991156E-04  1.8425816E-04
  -23.0000  1.8098314E-04  1.8730042E-04  1.9127101E-04
  -22.0000  1.8797940E-04  1.9525819E-04  1.9879026E-04
  -21.0000  1.9548253E-04  2.0385081E-04  2.0687134E-04
  -20.0000  2.0354782E-04  2.1315461E-04  2.1557796E-04
  -19.0000  2.1223876E-04  2.2325840E-04  2.2498376E-04
  -18.0000  2.2162864E-04  2.3426611E-04  2.3517423E-04
  -17.0000  2.3180246E-04  2.4630013E-04  2.4624927E-04
  -16.0000  2.4285941E-04  2.5950548E-04  2.5832629E-04
  -15.0000  2.5491590E-04  2.7405526E-04  2.7154424E-04
  -14.0000  2.6810949E-04  2.9015770E-04  2.8606879E-04
  -13.0000  2.8260386E-04  3.0806541E-04  3.0209904E-04
  -12.0000  2.9859539E-04  3.2808765E-04  3.1987645E-04
  -11.0000  3.1632168E-04  3.5060697E-04  3.3969674E-04
  -10.0000  3.3607302E-04  3.7610195E-04  3.6192612E-04
  -9.00000  3.5820796E-04  4.0517884E-04  3.8702371E-04
  -8.00000  3.8317472E-04  4.3861658E-04  4.1557332E-04
  -7.00000  4.1154141E-04  4.7743207E-04  4.4832926E-04
  -6.00000  4.4403963E-04  5.2297721E-04  4.8628444E-04
  -5.00000  4.8162894E-04  5.7708745E-04  5.3077449E-04
  -4.00000  5.2559555E-04  6.4231658E-04  5.8364300E-04
  -3.00000  5.7770905E-04  7.2232307E-04  6.4751530E-04
  -2.00000  6.4048356E-04  8.2253673E-04  7.2627696E-04
  -1.00000  7.1763935E-04  9.5138017E-04  8.2596745E-04
   0.00000  8.1498496E-04  1.1226858E-03  9.5659929E-04
   1.00000  9.4229078E-04  1.3610035E-03  1.1363134E-03
   2.00000  1.1179196E-03  1.7151152E-03  1.4025450E-03
   3.00000  1.3832546E-03  2.3012034E-03  1.8503014E-03
   4.00000  1.8678302E-03  3.5013130E-03  2.8238570E-03
   5.00000  3.1247713E-03  6.9832075E-03  5.8701489E-03
   5.20000  3.5054418E-03  8.0478233E-03  6.6935032E-03
   5.40000  3.8810266E-03  9.0802570E-03  7.3639940E-03
   5.60000  4.2430204E-03  1.0065284E-02  7.8950213E-03
   5.80000  4.6005433E-03  1.1045814E-02  8.3874520E-03
   6.00000  4.9685109E-03  1.2073891E-02  8.9474227E-03
   6.20000  5.3621903E-03  1.3187497E-02  9.6493437E-03
   6.40000  5.7961988E-03  1.4408840E-02  1.0532999E-02
   6.60000  6.2845713E-03  1.5750430E-02  1.1608907E-02
   6.80000  6.8404143E-03  1.7222272E-02  1.2861489E-02
   7.00000  7.4745231E-03  1.8837588E-02  1.4249849E-02
   7.20000  8.1926738E-03  2.0615810E-02  1.5708592E-02
   7.40000  8.9918393E-03  2.2582732E-02  1.7150664E-02
   7.60000  9.8568014E-03  2.4768909E-02  1.8474532E-02
   7.80000  1.0760261E-02  2.7207825E-02  1.9579877E-02
   8.00000  1.1669562E-02  2.9934398E-02  2.0393872E-02
   8.20000  1.2559133E-02  3.2982416E-02  2.0899414E-02
   8.40000  1.3421746E-02  3.6377551E-02  2.1146496E-02
   8.60000  1.4270891E-02  4.0122989E-02  2.1235501E-02
   8.80000  1.5133513E-02  4.4177494E-02  2.1282627E-02
   9.00000  1.6039252E-02  4.8429535E-02  2.1388492E-02
   9.20000  1.7012304E-02  5.2675488E-02  2.1622296E-02
   9.40000  1.8067654E-02  5.6615303E-02  2.2020457E-02
   9.60000  1.9210585E-02  5.9882861E-02  2.2592706E-02
   9.80000  2.0437897E-02  6.2119837E-02  2.3329691E-02
   10.0000  2.1739353E-02  6.3074883E-02  2.4209612E-02
   10.2500  2.3444982E-02  6.2384980E-02  2.5466322E-02
   10.5000  2.5196572E-02  5.9897979E-02  2.6840390E-02
   10.7500  2.6939093E-02  5.6202698E-02  2.8274710E-02
   11.0000  2.8611605E-02  5.1925676E-02  2.9719768E-02
   11.2500  3.0157149E-02  4.7559407E-02  3.1131011E-02
   11.5000  3.1534353E-02  4.3416741E-02  3.2465012E-02
   11.7500  3.2724442E-02  3.9661424E-02  3.3679865E-02
   12.0000  3.3729963E-02  3.6357543E-02  3.4739033E-02
   12.2500  3.4567746E-02  3.3509378E-02  3.5616821E-02
   12.5000  3.5260776E-02  3.1087704E-02  3.6302793E-02
   12.7500  3.5832232E-02  2.9046490E-02  3.6803032E-02
   13.0000  3.6302602E-02  2.7333674E-02  3.7138367E-02
   13.2500  3.6689451E-02  2.5898341E-02  3.7340986E-02
   13.5000  3.7008827E-02  2.4694989E-02  3.7450175E-02
   13.7500  3.7276597E-02  2.3685083E-02  3.7507133E-02
   14.0000  3.7508631E-02  2.2836992E-02  3.7549724E-02
   14.2500  3.7719839E-02  2.2125337E-02  3.7608433E-02
   14.5000  3.7922650E-02  2.1530175E-02  3.7703977E-02
   14.7500  3.8125497E-02  2.1036111E-02  3.7846494E-02
   15.0000  3.8331699E-02  2.0631425E-02  3.8035966E-02
   15.2500  3.8538976E-02  2.0307269E-02  3.8263535E-02
   15.5000  3.8739662E-02  2.0056959E-02  3.8513413E-02
   15.7500  3.8921642E-02  1.9875384E-02  3.8765180E-02
   16.0000  3.9069951E-02  1.9758527E-02  3.8996281E-02
   16.2500  3.9168851E-02  1.9703092E-02  3.9184521E-02
   16.5000  3.9204137E-02  1.9706228E-02  3.9310321E-02
   16.7500  3.9165316E-02  1.9765325E-02  3.9358530E-02
   17.0000  3.9047320E-02  1.9877881E-02  3.9319580E-02
   17.2500  3.8851453E-02  2.0041416E-02  3.9189920E-02
   17.5000  3.8585429E-02  2.0253421E-02  3.8971747E-02
   17.7500  3.8262535E-02  2.0511337E-02  3.8672171E-02
   18.0000  3.7900124E-02  2.0812537E-02  3.8302025E-02
   18.2500  3.7517751E-02  2.1154330E-02  3.7874517E-02
   18.5000  3.7135269E-02  2.1533959E-02  3.7403932E-02
   18.7500  3.6771161E-02  2.1948622E-02  3.6904493E-02
   19.0000  3.6441264E-02  2.2395506E-02  3.6389449E-02
   19.2500  3.6157929E-02  2.2871858E-02  3.5870399E-02
   19.5000  3.5929580E-02  2.3375063E-02  3.5356850E-02
   19.7500  3.5760563E-02  2.3902648E-02  3.4856020E-02
   20.0000  3.5651211E-02  2.4452038E-02  3.4373023E-02
   21.0000  3.5700501E-02  2.6790739E-02  3.2679177E-02
   22.0000  3.6043846E-02  2.9140196E-02  3.1401057E-02
   23.0000  3.5947951E-02  3.1223289E-02  3.0445939E-02
   24.0000  3.5032371E-02  3.2789137E-02  2.9685029E-02
   25.0000  3.3498444E-02  3.3672551E-02  2.9025553E-02
   26.0000  3.1818870E-02  3.3835797E-02  2.8422707E-02
   27.0000  3.0322382E-02  3.3377870E-02  2.7875203E-02
   28.0000  2.9088103E-02  3.2496184E-02  2.7409063E-02
   29.0000  2.8066478E-02  3.1396736E-02  2.7043759E-02
   30.0000  2.7213361E-02  3.0237234E-02  2.6776850E-02
   31.0000  2.6514575E-02  2.9111302E-02  2.6584732E-02
   32.0000  2.5957235E-02  2.8056657E-02  2.6432097E-02
   33.0000  2.5512830E-02  2.7073294E-02  2.6283493E-02
   34.0000  2.5137705E-02  2.6141873E-02  2.6111026E-02
   35.0000  2.4781485E-02  2.5239001E-02  2.5896658E-02
   36.0000  2.4400300E-02  2.4348998E-02  2.5630498E-02
   37.0000  2.3973011E-02  2.3472500E-02  2.5308613E-02
   38.0000  2.3512646E-02  2.2632333E-02  2.4937248E-02
   39.0000  2.3064642E-02  2.1876510E-02  2.4546978E-02
   40.0000  2.2690563E-02  2.1270568E-02  2.4201616E-02
