    Energy   (100,001)      (010,001)      (001,110)   
  -25.0000  1.6912289E-04  1.8398543E-04  1.7271696E-04
  -24.0000  1.7543717E-04  1.9091481E-04  1.7921533E-04
  -23.0000  1.8219068E-04  1.9834233E-04  1.8617142E-04
  -22.0000  1.8942921E-04  2.0632241E-04  1.9363366E-04
  -21.0000  1.9720502E-04  2.1491757E-04  2.0165745E-04
  -20.0000  2.0557803E-04  2.2420004E-04  2.1030640E-04
  -19.0000  2.1461726E-04  2.3425361E-04  2.1965397E-04
  -18.0000  2.2440261E-04  2.4517612E-04  2.2978538E-04
  -17.0000  2.3502704E-04  2.5708240E-04  2.4080009E-04
  -16.0000  2.4659941E-04  2.7010820E-04  2.5281482E-04
  -15.0000  2.5924794E-04  2.8441503E-04  2.6596748E-04
  -14.0000  2.7312475E-04  3.0019657E-04  2.8042221E-04
  -13.0000  2.8841163E-04  3.1768702E-04  2.9637584E-04
  -12.0000  3.0532766E-04  3.3717214E-04  3.1406646E-04
  -11.0000  3.2413929E-04  3.5900415E-04  3.3378480E-04
  -10.0000  3.4517383E-04  3.8362203E-04  3.5588967E-04
  -9.00000  3.6883801E-04  4.1157970E-04  3.8082911E-04
  -8.00000  3.9564371E-04  4.4358596E-04  4.0917013E-04
  -7.00000  4.2624455E-04  4.8056218E-04  4.4164130E-04
  -6.00000  4.6148924E-04  5.2372778E-04  4.7919535E-04
  -5.00000  5.0250138E-04  5.7473062E-04  5.2310389E-04
  -4.00000  5.5080299E-04  6.3585239E-04  5.7510590E-04
  -3.00000  6.0851335E-04  7.1034548E-04  6.3765018E-04
  -2.00000  6.7868495E-04  8.0301239E-04  7.1431219E-04
  -1.00000  7.6590659E-04  9.2126413E-04  8.1055815E-04
   0.00000  8.7747444E-04  1.0772081E-03  9.3526669E-04
   1.00000  1.0259199E-03  1.2922152E-03  1.1041167E-03
   2.00000  1.2353502E-03  1.6084775E-03  1.3484145E-03
   3.00000  1.5614099E-03  2.1254811E-03  1.7442064E-03
   4.00000  2.1815107E-03  3.1638192E-03  2.5512107E-03
   5.00000  3.8677346E-03  6.1303857E-03  4.9325435E-03
   5.20000  4.3972571E-03  7.0887740E-03  5.6470537E-03
   5.40000  4.9324195E-03  8.0715267E-03  6.3193162E-03
   5.60000  5.4599545E-03  9.0518456E-03  6.9365945E-03
   5.80000  5.9869058E-03  1.0038869E-02  7.5302049E-03
   6.00000  6.5260725E-03  1.1055160E-02  8.1412553E-03
   6.20000  7.0892776E-03  1.2124411E-02  8.8029591E-03
   6.40000  7.6861766E-03  1.3266901E-02  9.5351741E-03
   6.60000  8.3246852E-03  1.4497595E-02  1.0343232E-02
   6.80000  9.0115775E-03  1.5825495E-02  1.1218672E-02
   7.00000  9.7530818E-03  1.7254375E-02  1.2142524E-02
   7.20000  1.0555499E-02  1.8784741E-02  1.3091483E-02
   7.40000  1.1425388E-02  2.0415496E-02  1.4044853E-02
   7.60000  1.2368603E-02  2.2143076E-02  1.4988717E-02
   7.80000  1.3388077E-02  2.3957584E-02  1.5916209E-02
   8.00000  1.4481371E-02  2.5839093E-02  1.6826236E-02
   8.20000  1.5639744E-02  2.7759721E-02  1.7723424E-02
   8.40000  1.6850171E-02  2.9694781E-02  1.8619219E-02
   8.60000  1.8100254E-02  3.1638605E-02  1.9531618E-02
   8.80000  1.9383157E-02  3.3613221E-02  2.0481493E-02
   9.00000  2.0698446E-02  3.5660120E-02  2.1486227E-02
   9.20000  2.2047294E-02  3.7817597E-02  2.2553601E-02
   9.40000  2.3425003E-02  4.0096469E-02  2.3678820E-02
   9.60000  2.4815486E-02  4.2465766E-02  2.4845871E-02
   9.80000  2.6190530E-02  4.4851735E-02  2.6032816E-02
   10.0000  2.7513780E-02  4.7147040E-02  2.7219126E-02
   10.2500  2.9037864E-02  4.9695885E-02  2.8682478E-02
   10.5000  3.0362924E-02  5.1660020E-02  3.0121829E-02
   10.7500  3.1461306E-02  5.2840317E-02  3.1550947E-02
   11.0000  3.2343142E-02  5.3121714E-02  3.2987153E-02
   11.2500  3.3041702E-02  5.2496098E-02  3.4434466E-02
   11.5000  3.3589864E-02  5.1063924E-02  3.5870026E-02
   11.7500  3.4010931E-02  4.9005224E-02  3.7241997E-02
   12.0000  3.4322230E-02  4.6534305E-02  3.8483945E-02
   12.2500  3.4541554E-02  4.3859233E-02  3.9536751E-02
   12.5000  3.4692036E-02  4.1154040E-02  4.0363452E-02
   12.7500  3.4802705E-02  3.8545495E-02  4.0954564E-02
   13.0000  3.4905458E-02  3.6112849E-02  4.1326411E-02
   13.2500  3.5030814E-02  3.3895885E-02  4.1514256E-02
   13.5000  3.5203932E-02  3.1906169E-02  4.1562896E-02
   13.7500  3.5441670E-02  3.0137836E-02  4.1517670E-02
   14.0000  3.5751073E-02  2.8576032E-02  4.1417846E-02
   14.2500  3.6129267E-02  2.7202590E-02  4.1293012E-02
   14.5000  3.6564534E-02  2.5999333E-02  4.1162100E-02
   14.7500  3.7038205E-02  2.4949677E-02  4.1034270E-02
   15.0000  3.7527040E-02  2.4039162E-02  4.0910850E-02
   15.2500  3.8005806E-02  2.3255411E-02  4.0787680E-02
   15.5000  3.8449794E-02  2.2587818E-02  4.0657428E-02
   15.7500  3.8837084E-02  2.2027164E-02  4.0511606E-02
   16.0000  3.9150377E-02  2.1565258E-02  4.0342130E-02
   16.2500  3.9378256E-02  2.1194661E-02  4.0142388E-02
   16.5000  3.9515794E-02  2.0908492E-02  3.9907817E-02
   16.7500  3.9564498E-02  2.0700316E-02  3.9636094E-02
   17.0000  3.9531651E-02  2.0564094E-02  3.9327032E-02
   17.2500  3.9429177E-02  2.0494177E-02  3.8982311E-02
   17.5000  3.9272229E-02  2.0485320E-02  3.8605146E-02
   17.7500  3.9077667E-02  2.0532695E-02  3.8199941E-02
   18.0000  3.8862623E-02  2.0631903E-02  3.7771962E-02
   18.2500  3.8643254E-02  2.0778972E-02  3.7327031E-02
   18.5000  3.8433780E-02  2.0970343E-02  3.6871225E-02
   18.7500  3.8245823E-02  2.1202842E-02  3.6410583E-02
   19.0000  3.8088034E-02  2.1473672E-02  3.5950798E-02
   19.2500  3.7965977E-02  2.1780396E-02  3.5496929E-02
   19.5000  3.7882196E-02  2.2120946E-02  3.5053128E-02
   19.7500  3.7836375E-02  2.2493553E-02  3.4622476E-02
   20.0000  3.7825505E-02  2.2896514E-02  3.4207033E-02
   21.0000  3.7992392E-02  2.4762281E-02  3.2720566E-02
   22.0000  3.8042389E-02  2.6892979E-02  3.1514850E-02
   23.0000  3.7402976E-02  2.9078767E-02  3.0513217E-02
   24.0000  3.5833830E-02  3.1068578E-02  2.9633750E-02
   25.0000  3.3553223E-02  3.2620381E-02  2.8826576E-02
   26.0000  3.1041271E-02  3.3580106E-02  2.8067300E-02
   27.0000  2.8734910E-02  3.3925722E-02  2.7346248E-02
   28.0000  2.6864612E-02  3.3755383E-02  2.6674300E-02
   29.0000  2.5468135E-02  3.3233006E-02  2.6087458E-02
   30.0000  2.4474384E-02  3.2512120E-02  2.5615503E-02
   31.0000  2.3791670E-02  3.1706218E-02  2.5264854E-02
   32.0000  2.3339749E-02  3.0887358E-02  2.5013291E-02
   33.0000  2.3046611E-02  3.0090874E-02  2.4816299E-02
   34.0000  2.2844977E-02  2.9324382E-02  2.4621912E-02
   35.0000  2.2675694E-02  2.8579523E-02  2.4384187E-02
   36.0000  2.2495121E-02  2.7844440E-02  2.4073181E-02
   37.0000  2.2281581E-02  2.7114771E-02  2.3682849E-02
   38.0000  2.2037642E-02  2.6402626E-02  2.3236861E-02
   39.0000  2.1787817E-02  2.5745158E-02  2.2789283E-02
   40.0000  2.1570593E-02  2.5206424E-02  2.2411543E-02
