    Energy   (100,001)      (010,001)      (001,110)   
  -25.0000  1.6411461E-04  1.9058218E-04  1.7511437E-04
  -24.0000  1.7016845E-04  1.9748435E-04  1.8149077E-04
  -23.0000  1.7663446E-04  2.0486882E-04  1.8830407E-04
  -22.0000  1.8355455E-04  2.1278714E-04  1.9559942E-04
  -21.0000  1.9097639E-04  2.2129841E-04  2.0342831E-04
  -20.0000  1.9895447E-04  2.3047071E-04  2.1184977E-04
  -19.0000  2.0755128E-04  2.4038285E-04  2.2093172E-04
  -18.0000  2.1683894E-04  2.5112656E-04  2.3075276E-04
  -17.0000  2.2690099E-04  2.6280922E-04  2.4140432E-04
  -16.0000  2.3783484E-04  2.7555737E-04  2.5299338E-04
  -15.0000  2.4975472E-04  2.8952107E-04  2.6564598E-04
  -14.0000  2.6279547E-04  3.0487967E-04  2.7951153E-04
  -13.0000  2.7711740E-04  3.2184922E-04  2.9476865E-04
  -12.0000  2.9291266E-04  3.4069228E-04  3.1163260E-04
  -11.0000  3.1041352E-04  3.6173111E-04  3.3036522E-04
  -10.0000  3.2990358E-04  3.8536548E-04  3.5128843E-04
  -9.00000  3.5173284E-04  4.1209734E-04  3.7480261E-04
  -8.00000  3.7633865E-04  4.4256544E-04  4.0141238E-04
  -7.00000  4.0427524E-04  4.7759516E-04  4.3176348E-04
  -6.00000  4.3625646E-04  5.1827171E-04  4.6669694E-04
  -5.00000  4.7321940E-04  5.6605099E-04  5.0733089E-04
  -4.00000  5.1642235E-04  6.2293284E-04  5.5518901E-04
  -3.00000  5.6760186E-04  6.9174276E-04  6.1241072E-04
  -2.00000  6.2923774E-04  7.7661257E-04  6.8211434E-04
  -1.00000  7.0502955E-04  8.8385141E-04  7.6906820E-04
   0.00000  8.0082847E-04  1.0236530E-03  8.8104457E-04
   1.00000  9.2667816E-04  1.2138170E-03  1.0318931E-03
   2.00000  1.1020651E-03  1.4891932E-03  1.2497744E-03
   3.00000  1.3731098E-03  1.9318735E-03  1.6053601E-03
   4.00000  1.8944713E-03  2.8105761E-03  2.3525623E-03
   5.00000  3.3608847E-03  5.3141799E-03  4.6756597E-03
   5.20000  3.8035127E-03  6.0932354E-03  5.3616556E-03
   5.40000  4.2234183E-03  6.8578338E-03  5.9673451E-03
   5.60000  4.6053718E-03  7.5809282E-03  6.4596740E-03
   5.80000  4.9584942E-03  8.2712625E-03  6.8590953E-03
   6.00000  5.2997152E-03  8.9505052E-03  7.2065354E-03
   6.20000  5.6449319E-03  9.6418248E-03  7.5423591E-03
   6.40000  6.0061559E-03  1.0366775E-02  7.8981477E-03
   6.60000  6.3911281E-03  1.1144956E-02  8.2954887E-03
   6.80000  6.8040709E-03  1.1994485E-02  8.7476977E-03
   7.00000  7.2470418E-03  1.2932635E-02  9.2619947E-03
   7.20000  7.7214698E-03  1.3976338E-02  9.8411395E-03
   7.40000  8.2294853E-03  1.5142464E-02  1.0484594E-02
   7.60000  8.7747254E-03  1.6447826E-02  1.1189680E-02
   7.80000  9.3624731E-03  1.7908900E-02  1.1953075E-02
   8.00000  9.9992120E-03  1.9541160E-02  1.2772629E-02
   8.20000  1.0691832E-02  2.1357889E-02  1.3649021E-02
   8.40000  1.1446773E-02  2.3368404E-02  1.4586417E-02
   8.60000  1.2269359E-02  2.5575856E-02  1.5591227E-02
   8.80000  1.3163379E-02  2.7974711E-02  1.6669047E-02
   9.00000  1.4130788E-02  3.0548134E-02  1.7821320E-02
   9.20000  1.5171687E-02  3.3266163E-02  1.9042783E-02
   9.40000  1.6284860E-02  3.6085520E-02  2.0319622E-02
   9.60000  1.7468455E-02  3.8950829E-02  2.1629177E-02
   9.80000  1.8720172E-02  4.1796441E-02  2.2942354E-02
   10.0000  2.0036433E-02  4.4547740E-02  2.4228263E-02
   10.2500  2.1761893E-02  4.7726924E-02  2.5755882E-02
   10.5000  2.3552998E-02  5.0453858E-02  2.7160925E-02
   10.7500  2.5369843E-02  5.2558713E-02  2.8427658E-02
   11.0000  2.7156003E-02  5.3895487E-02  2.9556991E-02
   11.2500  2.8843607E-02  5.4360124E-02  3.0561970E-02
   11.5000  3.0366107E-02  5.3919236E-02  3.1466230E-02
   11.7500  3.1671892E-02  5.2631130E-02  3.2296620E-02
   12.0000  3.2733423E-02  5.0639398E-02  3.3073387E-02
   12.2500  3.3550535E-02  4.8142279E-02  3.3804883E-02
   12.5000  3.4147483E-02  4.5352578E-02  3.4488025E-02
   12.7500  3.4564349E-02  4.2463011E-02  3.5113458E-02
   13.0000  3.4846888E-02  3.9625506E-02  3.5672332E-02
   13.2500  3.5039522E-02  3.6945057E-02  3.6160912E-02
   13.5000  3.5181637E-02  3.4484014E-02  3.6582119E-02
   13.7500  3.5305527E-02  3.2271435E-02  3.6945005E-02
   14.0000  3.5435397E-02  3.0313203E-02  3.7263184E-02
   14.2500  3.5587391E-02  2.8600638E-02  3.7552633E-02
   14.5000  3.5770572E-02  2.7116916E-02  3.7829176E-02
   14.7500  3.5988365E-02  2.5841442E-02  3.8106234E-02
   15.0000  3.6239957E-02  2.4752671E-02  3.8393247E-02
   15.2500  3.6521440E-02  2.3829792E-02  3.8694819E-02
   15.5000  3.6826673E-02  2.3053645E-02  3.9010452E-02
   15.7500  3.7147889E-02  2.2407116E-02  3.9334746E-02
   16.0000  3.7476129E-02  2.1875201E-02  3.9657986E-02
   16.2500  3.7801584E-02  2.1444894E-02  3.9967072E-02
   16.5000  3.8113975E-02  2.1104971E-02  4.0246771E-02
   16.7500  3.8403047E-02  2.0845752E-02  4.0481219E-02
   17.0000  3.8659211E-02  2.0658866E-02  4.0655546E-02
   17.2500  3.8874310E-02  2.0537039E-02  4.0757439E-02
   17.5000  3.9042418E-02  2.0473925E-02  4.0778445E-02
   17.7500  3.9160540E-02  2.0463960E-02  4.0714791E-02
   18.0000  3.9229061E-02  2.0502263E-02  4.0567644E-02
   18.2500  3.9251857E-02  2.0584548E-02  4.0342765E-02
   18.5000  3.9236002E-02  2.0707062E-02  4.0049683E-02
   18.7500  3.9191117E-02  2.0866537E-02  3.9700537E-02
   19.0000  3.9128455E-02  2.1060160E-02  3.9308783E-02
   19.2500  3.9059839E-02  2.1285562E-02  3.8887948E-02
   19.5000  3.8996613E-02  2.1540819E-02  3.8450546E-02
   19.7500  3.8948712E-02  2.1824400E-02  3.8007327E-02
   20.0000  3.8924016E-02  2.2134994E-02  3.7567027E-02
   21.0000  3.9136886E-02  2.3615437E-02  3.5958436E-02
   22.0000  3.9798453E-02  2.5400029E-02  3.4723398E-02
   23.0000  4.0500756E-02  2.7391978E-02  3.3795690E-02
   24.0000  4.0653870E-02  2.9463360E-02  3.2999577E-02
   25.0000  3.9781979E-02  3.1435218E-02  3.2174650E-02
   26.0000  3.7776950E-02  3.3092091E-02  3.1224729E-02
   27.0000  3.5005161E-02  3.4242649E-02  3.0146079E-02
   28.0000  3.2097962E-02  3.4807919E-02  2.9024474E-02
   29.0000  2.9513598E-02  3.4865205E-02  2.7965242E-02
   30.0000  2.7435240E-02  3.4570864E-02  2.7056225E-02
   31.0000  2.5862904E-02  3.4075083E-02  2.6347964E-02
   32.0000  2.4709109E-02  3.3484269E-02  2.5843344E-02
   33.0000  2.3864908E-02  3.2856311E-02  2.5506049E-02
   34.0000  2.3231935E-02  3.2211205E-02  2.5278953E-02
   35.0000  2.2732016E-02  3.1545985E-02  2.5100695E-02
   36.0000  2.2306897E-02  3.0850226E-02  2.4916932E-02
   37.0000  2.1916400E-02  3.0121055E-02  2.4689107E-02
   38.0000  2.1539548E-02  2.9376811E-02  2.4403783E-02
   39.0000  2.1180274E-02  2.8668806E-02  2.4082973E-02
   40.0000  2.0871003E-02  2.8081555E-02  2.3786854E-02
