    Energy   (100,001)      (010,001)      (001,110)   
  -25.0000  1.6326608E-04  1.7186822E-04  1.7092094E-04
  -24.0000  1.6936996E-04  1.7874558E-04  1.7730974E-04
  -23.0000  1.7589503E-04  1.8613661E-04  1.8414439E-04
  -22.0000  1.8288468E-04  1.9409893E-04  1.9147156E-04
  -21.0000  1.9038833E-04  2.0269892E-04  1.9934456E-04
  -20.0000  1.9846254E-04  2.1201344E-04  2.0782457E-04
  -19.0000  2.0717232E-04  2.2213196E-04  2.1698209E-04
  -18.0000  2.1659276E-04  2.3315921E-04  2.2689878E-04
  -17.0000  2.2681105E-04  2.4521856E-04  2.3766978E-04
  -16.0000  2.3792899E-04  2.5845627E-04  2.4940653E-04
  -15.0000  2.5006617E-04  2.7304699E-04  2.6224046E-04
  -14.0000  2.6336407E-04  2.8920092E-04  2.7632763E-04
  -13.0000  2.7799116E-04  3.0717318E-04  2.9185477E-04
  -12.0000  2.9414979E-04  3.2727633E-04  3.0904716E-04
  -11.0000  3.1208505E-04  3.4989727E-04  3.2817916E-04
  -10.0000  3.3209675E-04  3.7552039E-04  3.4958832E-04
  -9.00000  3.5455563E-04  4.0475991E-04  3.7369474E-04
  -8.00000  3.7992577E-04  4.3840587E-04  4.0102809E-04
  -7.00000  4.0879627E-04  4.7749099E-04  4.3226616E-04
  -6.00000  4.4192693E-04  5.2339032E-04  4.6829104E-04
  -5.00000  4.8031606E-04  5.7797422E-04  5.1027369E-04
  -4.00000  5.2530444E-04  6.4385089E-04  5.5980517E-04
  -3.00000  5.7874079E-04  7.2476707E-04  6.1910875E-04
  -2.00000  6.4325815E-04  8.2630254E-04  6.9139970E-04
  -1.00000  7.2276355E-04  9.5714917E-04  7.8153334E-04
   0.00000  8.2337582E-04  1.1316566E-03  8.9726594E-04
   1.00000  9.5541964E-04  1.3754549E-03  1.0519725E-03
   2.00000  1.1383501E-03  1.7398380E-03  1.2714055E-03
   3.00000  1.4160225E-03  2.3477104E-03  1.6145065E-03
   4.00000  1.9248396E-03  3.6027249E-03  2.2634713E-03
   5.00000  3.2483757E-03  7.2996172E-03  4.0006710E-03
   5.20000  3.6592390E-03  8.4964434E-03  4.5771493E-03
   5.40000  4.0743501E-03  9.7159080E-03  5.1980685E-03
   5.60000  4.4830165E-03  1.0921068E-02  5.8533075E-03
   5.80000  4.8911701E-03  1.2116569E-02  6.5463069E-03
   6.00000  5.3114786E-03  1.3318235E-02  7.2843249E-03
   6.20000  5.7578738E-03  1.4540609E-02  8.0742466E-03
   6.40000  6.2436258E-03  1.5797365E-02  8.9222347E-03
   6.60000  6.7808805E-03  1.7105243E-02  9.8333740E-03
   6.80000  7.3804946E-03  1.8487166E-02  1.0809134E-02
   7.00000  8.0514471E-03  1.9972999E-02  1.1842018E-02
   7.20000  8.7993675E-03  2.1597624E-02  1.2908605E-02
   7.40000  9.6240078E-03  2.3396681E-02  1.3964927E-02
   7.60000  1.0516078E-02  2.5400911E-02  1.4950573E-02
   7.80000  1.1454985E-02  2.7631071E-02  1.5806195E-02
   8.00000  1.2410311E-02  3.0096524E-02  1.6499400E-02
   8.20000  1.3349582E-02  3.2799987E-02  1.7042786E-02
   8.40000  1.4251137E-02  3.5746098E-02  1.7490252E-02
   8.60000  1.5115121E-02  3.8944151E-02  1.7915290E-02
   8.80000  1.5964640E-02  4.2393745E-02  1.8387438E-02
   9.00000  1.6836087E-02  4.6052340E-02  1.8958332E-02
   9.20000  1.7765534E-02  4.9798795E-02  1.9657982E-02
   9.40000  1.8778717E-02  5.3414199E-02  2.0496969E-02
   9.60000  1.9887067E-02  5.6597982E-02  2.1470906E-02
   9.80000  2.1088013E-02  5.9025764E-02  2.2564993E-02
   10.0000  2.2367058E-02  6.0433782E-02  2.3757556E-02
   10.2500  2.4038869E-02  6.0578546E-02  2.5346477E-02
   10.5000  2.5736018E-02  5.9038135E-02  2.6991533E-02
   10.7500  2.7392740E-02  5.6207563E-02  2.8636267E-02
   11.0000  2.8946055E-02  5.2596155E-02  3.0229844E-02
   11.2500  3.0347875E-02  4.8666469E-02  3.1731291E-02
   11.5000  3.1572486E-02  4.4755694E-02  3.3112987E-02
   11.7500  3.2618427E-02  4.1070752E-02  3.4361029E-02
   12.0000  3.3504975E-02  3.7717820E-02  3.5471793E-02
   12.2500  3.4265209E-02  3.4736785E-02  3.6448829E-02
   12.5000  3.4938517E-02  3.2128671E-02  3.7301589E-02
   12.7500  3.5563480E-02  2.9873632E-02  3.8043834E-02
   13.0000  3.6173004E-02  2.7941724E-02  3.8691672E-02
   13.2500  3.6792183E-02  2.6299272E-02  3.9261955E-02
   13.5000  3.7437490E-02  2.4912591E-02  3.9770659E-02
   13.7500  3.8116277E-02  2.3750004E-02  4.0230981E-02
   14.0000  3.8826589E-02  2.2782819E-02  4.0651935E-02
   14.2500  3.9557445E-02  2.1985786E-02  4.1038390E-02
   14.5000  4.0289587E-02  2.1337233E-02  4.1391893E-02
   14.7500  4.0996745E-02  2.0818883E-02  4.1710897E-02
   15.0000  4.1647534E-02  2.0415490E-02  4.1990679E-02
   15.2500  4.2208091E-02  2.0114414E-02  4.2223733E-02
   15.5000  4.2645282E-02  1.9905229E-02  4.2400813E-02
   15.7500  4.2930174E-02  1.9779333E-02  4.2512325E-02
   16.0000  4.3041292E-02  1.9729591E-02  4.2549770E-02
   16.2500  4.2967174E-02  1.9750012E-02  4.2506980E-02
   16.5000  4.2707764E-02  1.9835458E-02  4.2380969E-02
   16.7500  4.2274406E-02  1.9981404E-02  4.2172313E-02
   17.0000  4.1688467E-02  2.0183744E-02  4.1885081E-02
   17.2500  4.0978879E-02  2.0438630E-02  4.1526376E-02
   17.5000  4.0179088E-02  2.0742366E-02  4.1105624E-02
   17.7500  3.9323953E-02  2.1091315E-02  4.0633739E-02
   18.0000  3.8447018E-02  2.1481847E-02  4.0122277E-02
   18.2500  3.7578456E-02  2.1910292E-02  3.9582689E-02
   18.5000  3.6743775E-02  2.2372926E-02  3.9025703E-02
   18.7500  3.5963218E-02  2.2865962E-02  3.8460887E-02
   19.0000  3.5251740E-02  2.3385590E-02  3.7896351E-02
   19.2500  3.4619346E-02  2.3928042E-02  3.7338574E-02
   19.5000  3.4071642E-02  2.4489693E-02  3.6792328E-02
   19.7500  3.3610499E-02  2.5067072E-02  3.6260739E-02
   20.0000  3.3234780E-02  2.5656619E-02  3.5745589E-02
   21.0000  3.2505530E-02  2.8038535E-02  3.3867485E-02
   22.0000  3.2746195E-02  3.0204265E-02  3.2282982E-02
   23.0000  3.3524388E-02  3.1881073E-02  3.0936556E-02
   24.0000  3.4348244E-02  3.2905732E-02  2.9775978E-02
   25.0000  3.4718353E-02  3.3260029E-02  2.8777606E-02
   26.0000  3.4313826E-02  3.3054836E-02  2.7943149E-02
   27.0000  3.3179226E-02  3.2463498E-02  2.7288101E-02
   28.0000  3.1638963E-02  3.1644213E-02  2.6812257E-02
   29.0000  3.0051482E-02  3.0709810E-02  2.6492376E-02
   30.0000  2.8632384E-02  2.9730299E-02  2.6284330E-02
   31.0000  2.7435894E-02  2.8743328E-02  2.6132332E-02
   32.0000  2.6423747E-02  2.7764746E-02  2.5982348E-02
   33.0000  2.5531798E-02  2.6797282E-02  2.5789841E-02
   34.0000  2.4706028E-02  2.5837919E-02  2.5521287E-02
   35.0000  2.3915165E-02  2.4884169E-02  2.5154783E-02
   36.0000  2.3151150E-02  2.3939441E-02  2.4683546E-02
   37.0000  2.2423579E-02  2.3018042E-02  2.4121667E-02
   38.0000  2.1753231E-02  2.2149742E-02  2.3509057E-02
   39.0000  2.1169658E-02  2.1382614E-02  2.2912838E-02
   40.0000  2.0708670E-02  2.0775654E-02  2.2416951E-02
