    Energy   (100,001)      (010,001)      (001,110)   
  -25.0000  1.7103568E-04  1.8183244E-04  1.7820075E-04
  -24.0000  1.7740568E-04  1.8880195E-04  1.8481028E-04
  -23.0000  1.8421978E-04  1.9627886E-04  1.9188194E-04
  -22.0000  1.9152454E-04  2.0431911E-04  1.9946442E-04
  -21.0000  1.9937311E-04  2.1298701E-04  2.0761338E-04
  -20.0000  2.0782652E-04  2.2235692E-04  2.1639274E-04
  -19.0000  2.1695511E-04  2.3251518E-04  2.2587623E-04
  -18.0000  2.2684040E-04  2.4356268E-04  2.3614937E-04
  -17.0000  2.3757738E-04  2.5561796E-04  2.4731188E-04
  -16.0000  2.4927738E-04  2.6882123E-04  2.5948072E-04
  -15.0000  2.6207173E-04  2.8333945E-04  2.7279400E-04
  -14.0000  2.7611647E-04  2.9937301E-04  2.8741589E-04
  -13.0000  2.9159834E-04  3.1716437E-04  3.0354307E-04
  -12.0000  3.0874279E-04  3.3700955E-04  3.2141316E-04
  -11.0000  3.2782448E-04  3.5927362E-04  3.4131589E-04
  -10.0000  3.4918147E-04  3.8441171E-04  3.6360817E-04
  -9.00000  3.7323465E-04  4.1299827E-04  3.8873473E-04
  -8.00000  4.0051483E-04  4.4576826E-04  4.1725689E-04
  -7.00000  4.3170128E-04  4.8367663E-04  4.4989355E-04
  -6.00000  4.6767787E-04  5.2798603E-04  4.8758093E-04
  -5.00000  5.0961722E-04  5.8039993E-04  5.3156211E-04
  -4.00000  5.5911069E-04  6.4327094E-04  5.8352556E-04
  -3.00000  6.1837735E-04  7.1993935E-04  6.4582801E-04
  -2.00000  6.9061544E-04  8.1530888E-04  7.2186999E-04
  -1.00000  7.8062881E-04  9.3688231E-04  8.1676691E-04
   0.00000  8.9602905E-04  1.0967645E-03  9.3864195E-04
   1.00000  1.0497822E-03  1.3159327E-03  1.1013812E-03
   2.00000  1.2664131E-03  1.6347032E-03  1.3314066E-03
   3.00000  1.6006942E-03  2.1445503E-03  1.6883460E-03
   4.00000  2.2171354E-03  3.1259802E-03  2.3544873E-03
   5.00000  3.7988838E-03  5.7533466E-03  4.1044321E-03
   5.20000  4.3070292E-03  6.5793946E-03  4.6705446E-03
   5.40000  4.8468677E-03  7.4235885E-03  5.2648093E-03
   5.60000  5.4125385E-03  8.2687068E-03  5.8714127E-03
   5.80000  6.0122454E-03  9.1303711E-03  6.4926206E-03
   6.00000  6.6581668E-03  1.0037639E-02  7.1410212E-03
   6.20000  7.3624359E-03  1.1023502E-02  7.8349432E-03
   6.40000  8.1370599E-03  1.2122436E-02  8.5955324E-03
   6.60000  8.9944981E-03  1.3370019E-02  9.4436574E-03
   6.80000  9.9475083E-03  1.4802836E-02  1.0396708E-02
   7.00000  1.1007619E-02  1.6458033E-02  1.1465635E-02
   7.20000  1.2181662E-02  1.8371816E-02  1.2652246E-02
   7.40000  1.3465949E-02  2.0575783E-02  1.3946651E-02
   7.60000  1.4838592E-02  2.3089656E-02  1.5325150E-02
   7.80000  1.6252907E-02  2.5910148E-02  1.6749521E-02
   8.00000  1.7638353E-02  2.8999742E-02  1.8169348E-02
   8.20000  1.8916305E-02  3.2284778E-02  1.9529009E-02
   8.40000  2.0030011E-02  3.5672247E-02  2.0779367E-02
   8.60000  2.0972757E-02  3.9081221E-02  2.1891234E-02
   8.80000  2.1792367E-02  4.2466220E-02  2.2865129E-02
   9.00000  2.2567605E-02  4.5810657E-02  2.3732386E-02
   9.20000  2.3375415E-02  4.9092965E-02  2.4546839E-02
   9.40000  2.4269479E-02  5.2248293E-02  2.5370992E-02
   9.60000  2.5275228E-02  5.5147045E-02  2.6261932E-02
   9.80000  2.6394856E-02  5.7600081E-02  2.7260594E-02
   10.0000  2.7614272E-02  5.9391295E-02  2.8385879E-02
   10.2500  2.9238314E-02  6.0414761E-02  2.9962366E-02
   10.5000  3.0904527E-02  5.9920450E-02  3.1679925E-02
   10.7500  3.2522040E-02  5.7999300E-02  3.3463530E-02
   11.0000  3.3993673E-02  5.4988384E-02  3.5233944E-02
   11.2500  3.5230853E-02  5.1337083E-02  3.6921344E-02
   11.5000  3.6169196E-02  4.7465353E-02  3.8467633E-02
   11.7500  3.6784198E-02  4.3682230E-02  3.9821946E-02
   12.0000  3.7093909E-02  4.0171525E-02  4.0936601E-02
   12.2500  3.7145585E-02  3.7017797E-02  4.1768528E-02
   12.5000  3.7000737E-02  3.4242179E-02  4.2287470E-02
   12.7500  3.6725539E-02  3.1830223E-02  4.2487372E-02
   13.0000  3.6382692E-02  2.9750629E-02  4.2393685E-02
   13.2500  3.6024701E-02  2.7967255E-02  4.2061824E-02
   13.5000  3.5691118E-02  2.6445102E-02  4.1567066E-02
   13.7500  3.5408855E-02  2.5152290E-02  4.0989945E-02
   14.0000  3.5193890E-02  2.4060498E-02  4.0403053E-02
   14.2500  3.5053473E-02  2.3144991E-02  3.9863227E-02
   14.5000  3.4988127E-02  2.2384423E-02  3.9408930E-02
   14.7500  3.4993188E-02  2.1760507E-02  3.9060789E-02
   15.0000  3.5059938E-02  2.1257639E-02  3.8823663E-02
   15.2500  3.5176505E-02  2.0862548E-02  3.8689363E-02
   15.5000  3.5328668E-02  2.0563954E-02  3.8639600E-02
   15.7500  3.5500681E-02  2.0352272E-02  3.8649073E-02
   16.0000  3.5676163E-02  2.0219330E-02  3.8688673E-02
   16.2500  3.5839080E-02  2.0158106E-02  3.8728753E-02
   16.5000  3.5974791E-02  2.0162498E-02  3.8742241E-02
   16.7500  3.6071071E-02  2.0227110E-02  3.8707264E-02
   17.0000  3.6118997E-02  2.0347077E-02  3.8608907E-02
   17.2500  3.6113582E-02  2.0517905E-02  3.8439880E-02
   17.5000  3.6054049E-02  2.0735331E-02  3.8200069E-02
   17.7500  3.5943716E-02  2.0995212E-02  3.7895220E-02
   18.0000  3.5789516E-02  2.1293426E-02  3.7535148E-02
   18.2500  3.5601231E-02  2.1625801E-02  3.7131882E-02
   18.5000  3.5390553E-02  2.1988087E-02  3.6698037E-02
   18.7500  3.5170082E-02  2.2375969E-02  3.6245595E-02
   19.0000  3.4952368E-02  2.2785151E-02  3.5785107E-02
   19.2500  3.4749065E-02  2.3211496E-02  3.5325244E-02
   19.5000  3.4570232E-02  2.3651221E-02  3.4872618E-02
   19.7500  3.4423827E-02  2.4101050E-02  3.4431829E-02
   20.0000  3.4315437E-02  2.4558158E-02  3.4005770E-02
   21.0000  3.4298835E-02  2.6403719E-02  3.2476662E-02
   22.0000  3.4829397E-02  2.8179587E-02  3.1225730E-02
   23.0000  3.5454618E-02  2.9823616E-02  3.0166013E-02
   24.0000  3.5582630E-02  3.1257277E-02  2.9203657E-02
   25.0000  3.4800771E-02  3.2355677E-02  2.8299457E-02
   26.0000  3.3132654E-02  3.2998362E-02  2.7479815E-02
   27.0000  3.1009215E-02  3.3135483E-02  2.6803816E-02
   28.0000  2.8956775E-02  3.2819763E-02  2.6318953E-02
   29.0000  2.7303661E-02  3.2184030E-02  2.6038210E-02
   30.0000  2.6109206E-02  3.1370723E-02  2.5933861E-02
   31.0000  2.5284865E-02  3.0487471E-02  2.5951465E-02
   32.0000  2.4709474E-02  2.9598586E-02  2.6023532E-02
   33.0000  2.4279219E-02  2.8734802E-02  2.6082454E-02
   34.0000  2.3921268E-02  2.7908028E-02  2.6071890E-02
   35.0000  2.3592774E-02  2.7122710E-02  2.5952640E-02
   36.0000  2.3274073E-02  2.6381120E-02  2.5705968E-02
   37.0000  2.2960611E-02  2.5685125E-02  2.5338224E-02
   38.0000  2.2657807E-02  2.5040407E-02  2.4885797E-02
   39.0000  2.2380820E-02  2.4466908E-02  2.4415969E-02
   40.0000  2.2153480E-02  2.4005356E-02  2.4014369E-02
