    Energy   (100,001)      (010,001)      (001,110)   
  -25.0000  1.6319671E-04  1.7820544E-04  1.7887285E-04
  -24.0000  1.6888986E-04  1.8509352E-04  1.8511609E-04
  -23.0000  1.7495092E-04  1.9248378E-04  1.9177311E-04
  -22.0000  1.8141545E-04  2.0043148E-04  1.9888554E-04
  -21.0000  1.8832367E-04  2.0900013E-04  2.0650072E-04
  -20.0000  1.9572122E-04  2.1826314E-04  2.1467273E-04
  -19.0000  2.0366017E-04  2.2830571E-04  2.2346365E-04
  -18.0000  2.1220012E-04  2.3922736E-04  2.3294509E-04
  -17.0000  2.2140962E-04  2.5114495E-04  2.4320007E-04
  -16.0000  2.3136797E-04  2.6419665E-04  2.5432543E-04
  -15.0000  2.4216735E-04  2.7854691E-04  2.6643479E-04
  -14.0000  2.5391559E-04  2.9439300E-04  2.7966246E-04
  -13.0000  2.6673962E-04  3.1197347E-04  2.9416832E-04
  -12.0000  2.8079000E-04  3.3157945E-04  3.1014432E-04
  -11.0000  2.9624668E-04  3.5356978E-04  3.2782303E-04
  -10.0000  3.1332667E-04  3.7839164E-04  3.4748916E-04
  -9.00000  3.3229427E-04  4.0660924E-04  3.6949532E-04
  -8.00000  3.5347505E-04  4.3894427E-04  3.9428398E-04
  -7.00000  3.7727521E-04  4.7633438E-04  4.2241879E-04
  -6.00000  4.0420912E-04  5.2001963E-04  4.5463053E-04
  -5.00000  4.3493971E-04  5.7167408E-04  4.9188627E-04
  -4.00000  4.7033939E-04  6.3361266E-04  5.3549761E-04
  -3.00000  5.1158618E-04  7.0912932E-04  5.8729733E-04
  -2.00000  5.6032300E-04  8.0307709E-04  6.4994300E-04
  -1.00000  6.1893942E-04  9.2292390E-04  7.2747418E-04
   0.00000  6.9111490E-04  1.0808285E-03  8.2642331E-04
   1.00000  7.8299527E-04  1.2981685E-03  9.5828682E-04
   2.00000  9.0619997E-04  1.6169927E-03  1.1459157E-03
   3.00000  1.0876631E-03  2.1362980E-03  1.4441179E-03
   4.00000  1.4167880E-03  3.1768796E-03  2.0331696E-03
   5.00000  2.2920926E-03  6.1442055E-03  3.7273841E-03
   5.20000  2.5494430E-03  7.0793979E-03  4.2995546E-03
   5.40000  2.7906261E-03  8.0156591E-03  4.9146837E-03
   5.60000  3.0077340E-03  8.9274067E-03  5.5630550E-03
   5.80000  3.2074532E-03  9.8275344E-03  6.2460134E-03
   6.00000  3.4009571E-03  1.0740001E-02  6.9611023E-03
   6.20000  3.5988044E-03  1.1687237E-02  7.6935446E-03
   6.40000  3.8091403E-03  1.2688597E-02  8.4135978E-03
   6.60000  4.0369295E-03  1.3762605E-02  9.0790232E-03
   6.80000  4.2839106E-03  1.4929700E-02  9.6437279E-03
   7.00000  4.5495187E-03  1.6213818E-02  1.0071823E-02
   7.20000  4.8325126E-03  1.7641904E-02  1.0351823E-02
   7.40000  5.1324852E-03  1.9241694E-02  1.0503047E-02
   7.60000  5.4506046E-03  2.1038653E-02  1.0570028E-02
   7.80000  5.7895364E-03  2.3052622E-02  1.0608555E-02
   8.00000  6.1528759E-03  2.5294144E-02  1.0671421E-02
   8.20000  6.5444341E-03  2.7760423E-02  1.0799659E-02
   8.40000  6.9676040E-03  3.0431728E-02  1.1020075E-02
   8.60000  7.4249133E-03  3.3269885E-02  1.1346875E-02
   8.80000  7.9177865E-03  3.6220421E-02  1.1785000E-02
   9.00000  8.4465043E-03  3.9218463E-02  1.2333589E-02
   9.20000  9.0103328E-03  4.2196152E-02  1.2988714E-02
   9.40000  9.6077908E-03  4.5087829E-02  1.3744935E-02
   9.60000  1.0237061E-02  4.7830320E-02  1.4595593E-02
   9.80000  1.0896570E-02  5.0358766E-02  1.5532159E-02
   10.0000  1.1585670E-02  5.2601131E-02  1.6543167E-02
   10.2500  1.2490090E-02  5.4875905E-02  1.7887939E-02
   10.5000  1.3447617E-02  5.6403150E-02  1.9287192E-02
   10.7500  1.4467121E-02  5.7034054E-02  2.0699143E-02
   11.0000  1.5557809E-02  5.6691347E-02  2.2083519E-02
   11.2500  1.6724615E-02  5.5400366E-02  2.3405003E-02
   11.5000  1.7964072E-02  5.3288825E-02  2.4636300E-02
   11.7500  1.9262208E-02  5.0562840E-02  2.5762535E-02
   12.0000  2.0594953E-02  4.7464796E-02  2.6783824E-02
   12.2500  2.1931017E-02  4.4226459E-02  2.7713961E-02
   12.5000  2.3236758E-02  4.1035644E-02  2.8575956E-02
   12.7500  2.4481927E-02  3.8023290E-02  2.9395504E-02
   13.0000  2.5645536E-02  3.5266273E-02  3.0194776E-02
   13.2500  2.6720571E-02  3.2798476E-02  3.0989558E-02
   13.5000  2.7714552E-02  3.0624291E-02  3.1789960E-02
   13.7500  2.8645098E-02  2.8730751E-02  3.2602296E-02
   14.0000  2.9534088E-02  2.7096248E-02  3.3430380E-02
   14.2500  3.0403937E-02  2.5695806E-02  3.4276640E-02
   14.5000  3.1275674E-02  2.4504099E-02  3.5143140E-02
   14.7500  3.2167452E-02  2.3497190E-02  3.6031937E-02
   15.0000  3.3093219E-02  2.2653435E-02  3.6944588E-02
   15.2500  3.4061761E-02  2.1953827E-02  3.7880991E-02
   15.5000  3.5076171E-02  2.1381976E-02  3.8837906E-02
   15.7500  3.6133732E-02  2.0923883E-02  3.9807494E-02
   16.0000  3.7226126E-02  2.0567638E-02  4.0776231E-02
   16.2500  3.8339910E-02  2.0303093E-02  4.1724487E-02
   16.5000  3.9457220E-02  2.0121552E-02  4.2627017E-02
   16.7500  4.0556723E-02  2.0015508E-02  4.3454500E-02
   17.0000  4.1614822E-02  1.9978410E-02  4.4176045E-02
   17.2500  4.2607119E-02  2.0004489E-02  4.4762382E-02
   17.5000  4.3510080E-02  2.0088608E-02  4.5189247E-02
   17.7500  4.4302777E-02  2.0226152E-02  4.5440322E-02
   18.0000  4.4968548E-02  2.0412941E-02  4.5509152E-02
   18.2500  4.5496345E-02  2.0645169E-02  4.5399670E-02
   18.5000  4.5881577E-02  2.0919367E-02  4.5125280E-02
   18.7500  4.6126297E-02  2.1232385E-02  4.4706781E-02
   19.0000  4.6238684E-02  2.1581407E-02  4.4169590E-02
   19.2500  4.6231900E-02  2.1963987E-02  4.3540801E-02
   19.5000  4.6122506E-02  2.2378096E-02  4.2846540E-02
   19.7500  4.5928805E-02  2.2822091E-02  4.2110036E-02
   20.0000  4.5669570E-02  2.3294474E-02  4.1350839E-02
   21.0000  4.4337634E-02  2.5422270E-02  3.8380139E-02
   22.0000  4.3136535E-02  2.7793104E-02  3.5902083E-02
   23.0000  4.2277715E-02  3.0172990E-02  3.4006542E-02
   24.0000  4.1441583E-02  3.2239703E-02  3.2581808E-02
   25.0000  4.0139950E-02  3.3676167E-02  3.1485388E-02
   26.0000  3.8138514E-02  3.4319403E-02  3.0598127E-02
   27.0000  3.5641068E-02  3.4222785E-02  2.9844602E-02
   28.0000  3.3099970E-02  3.3596112E-02  2.9200671E-02
   29.0000  3.0892118E-02  3.2687093E-02  2.8676358E-02
   30.0000  2.9142427E-02  3.1674579E-02  2.8272637E-02
   31.0000  2.7811150E-02  3.0653213E-02  2.7970320E-02
   32.0000  2.6808183E-02  2.9660289E-02  2.7738294E-02
   33.0000  2.6042262E-02  2.8702811E-02  2.7543686E-02
   34.0000  2.5435864E-02  2.7776771E-02  2.7359667E-02
   35.0000  2.4926638E-02  2.6877556E-02  2.7168396E-02
   36.0000  2.4465518E-02  2.6004460E-02  2.6960072E-02
   37.0000  2.4017086E-02  2.5163004E-02  2.6730760E-02
   38.0000  2.3565486E-02  2.4368697E-02  2.6482138E-02
   39.0000  2.3125485E-02  2.3655370E-02  2.6227589E-02
   40.0000  2.2746286E-02  2.3079583E-02  2.6001778E-02
