    Energy   (100,001)      (010,001)      (001,110)   
  -25.0000  1.6847513E-04  1.7701941E-04  1.7427907E-04
  -24.0000  1.7466538E-04  1.8392793E-04  1.8044875E-04
  -23.0000  1.8128024E-04  1.9134361E-04  1.8703106E-04
  -22.0000  1.8836346E-04  1.9932256E-04  1.9406767E-04
  -21.0000  1.9596492E-04  2.0792935E-04  2.0160602E-04
  -20.0000  2.0414173E-04  2.1723862E-04  2.0970029E-04
  -19.0000  2.1295960E-04  2.2733707E-04  2.1841266E-04
  -18.0000  2.2249446E-04  2.3832606E-04  2.2781483E-04
  -17.0000  2.3283457E-04  2.5032471E-04  2.3798992E-04
  -16.0000  2.4408313E-04  2.6347395E-04  2.4903482E-04
  -15.0000  2.5636149E-04  2.7794171E-04  2.6106315E-04
  -14.0000  2.6981339E-04  2.9392957E-04  2.7420908E-04
  -13.0000  2.8461033E-04  3.1168158E-04  2.8863215E-04
  -12.0000  3.0095863E-04  3.3149584E-04  3.0452365E-04
  -11.0000  3.1910873E-04  3.5374023E-04  3.2211489E-04
  -10.0000  3.3936772E-04  3.7887367E-04  3.4168842E-04
  -9.00000  3.6211635E-04  4.0747588E-04  3.6359313E-04
  -8.00000  3.8783276E-04  4.4028925E-04  3.8826532E-04
  -7.00000  4.1712604E-04  4.7827951E-04  4.1625836E-04
  -6.00000  4.5078500E-04  5.2272538E-04  4.4828577E-04
  -5.00000  4.8985099E-04  5.7535501E-04  4.8528558E-04
  -4.00000  5.3573020E-04  6.3856044E-04  5.2851973E-04
  -3.00000  5.9037383E-04  7.1574768E-04  5.7973423E-04
  -2.00000  6.5658131E-04  8.1193576E-04  6.4143125E-04
  -1.00000  7.3854231E-04  9.3484288E-04  7.1736258E-04
   0.00000  8.4288465E-04  1.0970084E-03  8.1350580E-04
   1.00000  9.8092667E-04  1.3203762E-03  9.4023557E-04
   2.00000  1.1743083E-03  1.6477172E-03  1.1180244E-03
   3.00000  1.4727112E-03  2.1780487E-03  1.3966084E-03
   4.00000  2.0343805E-03  3.2231971E-03  1.9492450E-03
   5.00000  3.5425850E-03  6.1193073E-03  3.5561718E-03
   5.20000  4.0045616E-03  7.0406165E-03  4.0204020E-03
   5.40000  4.4622070E-03  7.9847674E-03  4.4450885E-03
   5.60000  4.9055625E-03  8.9327470E-03  4.8250300E-03
   5.80000  5.3446657E-03  9.8990609E-03  5.1773920E-03
   6.00000  5.7946648E-03  1.0908306E-02  5.5163950E-03
   6.20000  6.2692813E-03  1.1984644E-02  5.8465714E-03
   6.40000  6.7799600E-03  1.3149878E-02  6.1662106E-03
   6.60000  7.3368068E-03  1.4423674E-02  6.4733450E-03
   6.80000  7.9498893E-03  1.5823723E-02  6.7712450E-03
   7.00000  8.6302967E-03  1.7365590E-02  7.0715683E-03
   7.20000  9.3904160E-03  1.9062626E-02  7.3940427E-03
   7.40000  1.0243011E-02  2.0926415E-02  7.7631771E-03
   7.60000  1.1199065E-02  2.2967972E-02  8.2038299E-03
   7.80000  1.2264670E-02  2.5199306E-02  8.7374627E-03
   8.00000  1.3437427E-02  2.7634321E-02  9.3798019E-03
   8.20000  1.4703052E-02  3.0288070E-02  1.0139579E-02
   8.40000  1.6033448E-02  3.3173602E-02  1.1017808E-02
   8.60000  1.7388061E-02  3.6296031E-02  1.2007520E-02
   8.80000  1.8720044E-02  3.9643722E-02  1.3094351E-02
   9.00000  1.9986744E-02  4.3176951E-02  1.4258241E-02
   9.20000  2.1160756E-02  4.6815285E-02  1.5475859E-02
   9.40000  2.2235944E-02  5.0426772E-02  1.6722822E-02
   9.60000  2.3224994E-02  5.3824756E-02  1.7975104E-02
   9.80000  2.4150558E-02  5.6779716E-02  1.9209839E-02
   10.0000  2.5035405E-02  5.9050725E-02  2.0406217E-02
   10.2500  2.6107801E-02  6.0622264E-02  2.1822026E-02
   10.5000  2.7152520E-02  6.0604010E-02  2.3131647E-02
   10.7500  2.8162670E-02  5.9071580E-02  2.4336720E-02
   11.0000  2.9120749E-02  5.6343297E-02  2.5460705E-02
   11.2500  3.0006865E-02  5.2854127E-02  2.6541712E-02
   11.5000  3.0805151E-02  4.9025146E-02  2.7620637E-02
   11.7500  3.1507257E-02  4.5184488E-02  2.8729342E-02
   12.0000  3.2113290E-02  4.1545799E-02  2.9882494E-02
   12.2500  3.2631524E-02  3.8223457E-02  3.1072867E-02
   12.5000  3.3077088E-02  3.5262087E-02  3.2270869E-02
   12.7500  3.3468231E-02  3.2664429E-02  3.3431571E-02
   13.0000  3.3822139E-02  3.0410646E-02  3.4507953E-02
   13.2500  3.4153769E-02  2.8470205E-02  3.5464396E-02
   13.5000  3.4476018E-02  2.6809188E-02  3.6284932E-02
   13.7500  3.4799098E-02  2.5394471E-02  3.6974085E-02
   14.0000  3.5129559E-02  2.4195771E-02  3.7552188E-02
   14.2500  3.5469786E-02  2.3186405E-02  3.8048368E-02
   14.5000  3.5818099E-02  2.2343355E-02  3.8493694E-02
   14.7500  3.6169286E-02  2.1646976E-02  3.8915767E-02
   15.0000  3.6515352E-02  2.1080570E-02  3.9335198E-02
   15.2500  3.6846354E-02  2.0629942E-02  3.9763802E-02
   15.5000  3.7151233E-02  2.0282987E-02  4.0204179E-02
   15.7500  3.7418657E-02  2.0029332E-02  4.0650320E-02
   16.0000  3.7637863E-02  1.9860030E-02  4.1088996E-02
   16.2500  3.7799512E-02  1.9767296E-02  4.1501762E-02
   16.5000  3.7896511E-02  1.9744295E-02  4.1867385E-02
   16.7500  3.7924717E-02  1.9784963E-02  4.2164507E-02
   17.0000  3.7883442E-02  1.9883863E-02  4.2374232E-02
   17.2500  3.7775656E-02  2.0036071E-02  4.2482334E-02
   17.5000  3.7607856E-02  2.0237101E-02  4.2480744E-02
   17.7500  3.7389609E-02  2.0482848E-02  4.2368139E-02
   18.0000  3.7132820E-02  2.0769556E-02  4.2149601E-02
   18.2500  3.6850833E-02  2.1093799E-02  4.1835518E-02
   18.5000  3.6557482E-02  2.1452484E-02  4.1440012E-02
   18.7500  3.6266201E-02  2.1842856E-02  4.0979223E-02
   19.0000  3.5989260E-02  2.2262523E-02  4.0469703E-02
   19.2500  3.5737178E-02  2.2709498E-02  3.9927086E-02
   19.5000  3.5518317E-02  2.3182222E-02  3.9365114E-02
   19.7500  3.5338647E-02  2.3679508E-02  3.8795093E-02
   20.0000  3.5201725E-02  2.4200240E-02  3.8225939E-02
   21.0000  3.5084611E-02  2.6473740E-02  3.6086325E-02
   22.0000  3.5505405E-02  2.8896773E-02  3.4319331E-02
   23.0000  3.6071721E-02  3.1199139E-02  3.2901241E-02
   24.0000  3.6320033E-02  3.3063721E-02  3.1700651E-02
   25.0000  3.5901709E-02  3.4239192E-02  3.0606703E-02
   26.0000  3.4735833E-02  3.4637819E-02  2.9586865E-02
   27.0000  3.3035401E-02  3.4356393E-02  2.8681182E-02
   28.0000  3.1161834E-02  3.3602086E-02  2.7951824E-02
   29.0000  2.9424841E-02  3.2585769E-02  2.7430441E-02
   30.0000  2.7976817E-02  3.1468257E-02  2.7096456E-02
   31.0000  2.6829057E-02  3.0355076E-02  2.6891161E-02
   32.0000  2.5925201E-02  2.9291081E-02  2.6748583E-02
   33.0000  2.5198354E-02  2.8284323E-02  2.6617711E-02
   34.0000  2.4593404E-02  2.7328301E-02  2.6466197E-02
   35.0000  2.4070714E-02  2.6411505E-02  2.6274692E-02
   36.0000  2.3604290E-02  2.5524073E-02  2.6032579E-02
   37.0000  2.3178816E-02  2.4664461E-02  2.5738757E-02
   38.0000  2.2787998E-02  2.3847031E-02  2.5406763E-02
   39.0000  2.2437652E-02  2.3110201E-02  2.5070824E-02
   40.0000  2.2149785E-02  2.2515577E-02  2.4783338E-02
