    Energy   (100,001)      (010,001)      (001,110)   
  -25.0000  1.7633470E-04  1.7774118E-04  1.8889887E-04
  -24.0000  1.8222373E-04  1.8487429E-04  1.9529369E-04
  -23.0000  1.8848513E-04  1.9254273E-04  2.0210585E-04
  -22.0000  1.9515460E-04  2.0080683E-04  2.0937710E-04
  -21.0000  2.0227256E-04  2.0973619E-04  2.1715495E-04
  -20.0000  2.0988488E-04  2.1941143E-04  2.2549366E-04
  -19.0000  2.1804390E-04  2.2992646E-04  2.3445553E-04
  -18.0000  2.2680959E-04  2.4139129E-04  2.4411244E-04
  -17.0000  2.3625098E-04  2.5393563E-04  2.5454781E-04
  -16.0000  2.4644801E-04  2.6771334E-04  2.6585895E-04
  -15.0000  2.5749373E-04  2.8290835E-04  2.7816018E-04
  -14.0000  2.6949717E-04  2.9974216E-04  2.9158675E-04
  -13.0000  2.8258695E-04  3.1848390E-04  3.0629985E-04
  -12.0000  2.9691601E-04  3.3946359E-04  3.2249336E-04
  -11.0000  3.1266768E-04  3.6309014E-04  3.4040260E-04
  -10.0000  3.3006386E-04  3.8987601E-04  3.6031636E-04
  -9.00000  3.4937601E-04  4.2047170E-04  3.8259335E-04
  -8.00000  3.7094022E-04  4.5571481E-04  4.0768533E-04
  -7.00000  3.9517849E-04  4.9670146E-04  4.3617043E-04
  -6.00000  4.2262927E-04  5.4489276E-04  4.6880244E-04
  -5.00000  4.5399285E-04  6.0227840E-04  5.0658614E-04
  -4.00000  4.9020113E-04  6.7163622E-04  5.5089696E-04
  -3.00000  5.3252940E-04  7.5696128E-04  6.0368029E-04
  -2.00000  5.8278544E-04  8.6420999E-04  6.6780281E-04
  -1.00000  6.4365095E-04  1.0026716E-03  7.4771824E-04
   0.00000  7.1935417E-04  1.1876997E-03  8.5085141E-04
   1.00000  8.1715700E-04  1.4467543E-03  9.9085057E-04
   2.00000  9.5122464E-04  1.8348989E-03  1.1966410E-03
   3.00000  1.1554389E-03  2.4846000E-03  1.5446761E-03
   4.00000  1.5449703E-03  3.8351726E-03  2.3256189E-03
   5.00000  2.6420404E-03  7.8304839E-03  4.9467523E-03
   5.20000  2.9742069E-03  9.0809274E-03  5.7237476E-03
   5.40000  3.2907155E-03  1.0311181E-02  6.3869520E-03
   5.60000  3.5802350E-03  1.1488206E-02  6.8838288E-03
   5.80000  3.8478639E-03  1.2639680E-02  7.2260276E-03
   6.00000  4.1030034E-03  1.3811889E-02  7.4541506E-03
   6.20000  4.3542254E-03  1.5048866E-02  7.6157641E-03
   6.40000  4.6088079E-03  1.6387934E-02  7.7557262E-03
   6.60000  4.8734437E-03  1.7860803E-02  7.9121396E-03
   6.80000  5.1547227E-03  1.9495127E-02  8.1148988E-03
   7.00000  5.4591051E-03  2.1314967E-02  8.3854094E-03
   7.20000  5.7924882E-03  2.3340250E-02  8.7365766E-03
   7.40000  6.1595007E-03  2.5585838E-02  9.1724964E-03
   7.60000  6.5626008E-03  2.8060629E-02  9.6877580E-03
   7.80000  7.0011191E-03  3.0766801E-02  1.0266885E-02
   8.00000  7.4706128E-03  3.3698843E-02  1.0885070E-02
   8.20000  7.9631293E-03  3.6841557E-02  1.1511538E-02
   8.40000  8.4688466E-03  4.0166147E-02  1.2115948E-02
   8.60000  8.9788128E-03  4.3624482E-02  1.2676258E-02
   8.80000  9.4875381E-03  4.7143322E-02  1.3184687E-02
   9.00000  9.9939572E-03  5.0621244E-02  1.3648881E-02
   9.20000  1.0500218E-02  5.3930199E-02  1.4087990E-02
   9.40000  1.1009169E-02  5.6921802E-02  1.4526284E-02
   9.60000  1.1522104E-02  5.9437633E-02  1.4987486E-02
   9.80000  1.2037973E-02  6.1323122E-02  1.5491306E-02
   10.0000  1.2554449E-02  6.2444880E-02  1.6051909E-02
   10.2500  1.3199286E-02  6.2638552E-02  1.6844707E-02
   10.5000  1.3848834E-02  6.1457061E-02  1.7743907E-02
   10.7500  1.4518953E-02  5.9034852E-02  1.8744030E-02
   11.0000  1.5231226E-02  5.5663166E-02  1.9831525E-02
   11.2500  1.6004889E-02  5.1717040E-02  2.0989098E-02
   11.5000  1.6850518E-02  4.7564398E-02  2.2199851E-02
   11.7500  1.7768496E-02  4.3499940E-02  2.3449655E-02
   12.0000  1.8750834E-02  3.9720360E-02  2.4727780E-02
   12.2500  1.9781739E-02  3.6331031E-02  2.6025759E-02
   12.5000  2.0838267E-02  3.3367790E-02  2.7335685E-02
   12.7500  2.1895542E-02  3.0821982E-02  2.8648706E-02
   13.0000  2.2933372E-02  2.8660993E-02  2.9953023E-02
   13.2500  2.3939881E-02  2.6842045E-02  3.1233009E-02
   13.5000  2.4911604E-02  2.5320750E-02  3.2472691E-02
   13.7500  2.5851570E-02  2.4055858E-02  3.3661260E-02
   14.0000  2.6767117E-02  2.3011150E-02  3.4795189E-02
   14.2500  2.7667967E-02  2.2155652E-02  3.5876930E-02
   14.5000  2.8564468E-02  2.1463208E-02  3.6912611E-02
   14.7500  2.9466097E-02  2.0911872E-02  3.7909613E-02
   15.0000  3.0380299E-02  2.0483279E-02  3.8874075E-02
   15.2500  3.1311709E-02  2.0162065E-02  3.9808505E-02
   15.5000  3.2261688E-02  1.9935350E-02  4.0709795E-02
   15.7500  3.3228130E-02  1.9792289E-02  4.1568023E-02
   16.0000  3.4205507E-02  1.9723708E-02  4.2366305E-02
   16.2500  3.5185127E-02  1.9721803E-02  4.3081864E-02
   16.5000  3.6155621E-02  1.9779901E-02  4.3688317E-02
   16.7500  3.7103669E-02  1.9892277E-02  4.4158896E-02
   17.0000  3.8014951E-02  2.0053998E-02  4.4470144E-02
   17.2500  3.8875289E-02  2.0260801E-02  4.4605374E-02
   17.5000  3.9671889E-02  2.0508983E-02  4.4557244E-02
   17.7500  4.0394546E-02  2.0795298E-02  4.4328915E-02
   18.0000  4.1036631E-02  2.1116862E-02  4.3933627E-02
   18.2500  4.1595709E-02  2.1471056E-02  4.3392910E-02
   18.5000  4.2073661E-02  2.1855446E-02  4.2733896E-02
   18.7500  4.2476302E-02  2.2267710E-02  4.1986352E-02
   19.0000  4.2812545E-02  2.2705604E-02  4.1179907E-02
   19.2500  4.3093262E-02  2.3166968E-02  4.0341806E-02
   19.5000  4.3330016E-02  2.3649763E-02  3.9495334E-02
   19.7500  4.3533853E-02  2.4152040E-02  3.8659015E-02
   20.0000  4.3714304E-02  2.4671698E-02  3.7846757E-02
   21.0000  4.4314659E-02  2.6856208E-02  3.5015939E-02
   22.0000  4.4723759E-02  2.9014759E-02  3.3025404E-02
   23.0000  4.4612058E-02  3.0898945E-02  3.1781200E-02
   24.0000  4.3583163E-02  3.2293824E-02  3.1056046E-02
   25.0000  4.1524544E-02  3.3075057E-02  3.0626880E-02
   26.0000  3.8731557E-02  3.3250331E-02  3.0324947E-02
   27.0000  3.5744123E-02  3.2939512E-02  3.0059695E-02
   28.0000  3.3055946E-02  3.2307820E-02  2.9814539E-02
   29.0000  3.0936336E-02  3.1502405E-02  2.9613953E-02
   30.0000  2.9429961E-02  3.0626878E-02  2.9487994E-02
   31.0000  2.8444139E-02  2.9740709E-02  2.9449988E-02
   32.0000  2.7840732E-02  2.8857626E-02  2.9484044E-02
   33.0000  2.7497100E-02  2.7966522E-02  2.9558970E-02
   34.0000  2.7323739E-02  2.7051596E-02  2.9642734E-02
   35.0000  2.7256212E-02  2.6102828E-02  2.9706854E-02
   36.0000  2.7240276E-02  2.5123543E-02  2.9727190E-02
   37.0000  2.7221336E-02  2.4135803E-02  2.9685793E-02
   38.0000  2.7148859E-02  2.3182863E-02  2.9577058E-02
   39.0000  2.7002923E-02  2.2328797E-02  2.9418534E-02
   40.0000  2.6824889E-02  2.1648723E-02  2.9257517E-02
