    Energy   (100,001)      (010,001)      (001,110)   
  -25.0000  1.6574547E-04  1.8080666E-04  1.7987927E-04
  -24.0000  1.7171759E-04  1.8777741E-04  1.8643852E-04
  -23.0000  1.7808799E-04  1.9525618E-04  1.9345000E-04
  -22.0000  1.8489631E-04  2.0329892E-04  2.0096088E-04
  -21.0000  1.9218754E-04  2.1196995E-04  2.0902498E-04
  -20.0000  2.0001289E-04  2.2134362E-04  2.1770410E-04
  -19.0000  2.0843097E-04  2.3150626E-04  2.2706943E-04
  -18.0000  2.1750911E-04  2.4255870E-04  2.3720349E-04
  -17.0000  2.2732506E-04  2.5461940E-04  2.4820242E-04
  -16.0000  2.3796906E-04  2.6782839E-04  2.6017889E-04
  -15.0000  2.4954645E-04  2.8235245E-04  2.7326584E-04
  -14.0000  2.6218092E-04  2.9839161E-04  2.8762123E-04
  -13.0000  2.7601874E-04  3.1618785E-04  3.0343417E-04
  -12.0000  2.9123409E-04  3.3603650E-04  3.2093311E-04
  -11.0000  3.0803607E-04  3.5830162E-04  3.4039652E-04
  -10.0000  3.2667797E-04  3.8343695E-04  3.6216751E-04
  -9.00000  3.4746963E-04  4.1201491E-04  3.8667386E-04
  -8.00000  3.7079432E-04  4.4476761E-04  4.1445605E-04
  -7.00000  3.9713212E-04  4.8264594E-04  4.4620744E-04
  -6.00000  4.2709317E-04  5.2690680E-04  4.8283325E-04
  -5.00000  4.6146595E-04  5.7924554E-04  5.2553990E-04
  -4.00000  5.0128977E-04  6.4200348E-04  5.7597469E-04
  -3.00000  5.4796745E-04  7.1850572E-04  6.3645415E-04
  -2.00000  6.0344860E-04  8.1363736E-04  7.1035617E-04
  -1.00000  6.7054541E-04  9.3488447E-04  8.0283827E-04
   0.00000  7.5351887E-04  1.0943604E-03  9.2226483E-04
   1.00000  8.5928544E-04  1.3131681E-03  1.0833695E-03
   2.00000  1.0003002E-03  1.6322396E-03  1.3154051E-03
   3.00000  1.2032268E-03  2.1459203E-03  1.6883941E-03
   4.00000  1.5467193E-03  3.1507810E-03  2.4328226E-03
   5.00000  2.3556019E-03  5.9137906E-03  4.5915006E-03
   5.20000  2.6005725E-03  6.7831847E-03  5.3149540E-03
   5.40000  2.8502538E-03  7.6660244E-03  6.0815552E-03
   5.60000  3.1000396E-03  8.5449892E-03  6.8726609E-03
   5.80000  3.3538312E-03  9.4367321E-03  7.6855434E-03
   6.00000  3.6177274E-03  1.0367518E-02  8.5156004E-03
   6.20000  3.8971165E-03  1.1362057E-02  9.3466621E-03
   6.40000  4.1964696E-03  1.2441668E-02  1.0148713E-02
   6.60000  4.5202024E-03  1.3625231E-02  1.0881420E-02
   6.80000  4.8736194E-03  1.4930322E-02  1.1504429E-02
   7.00000  5.2631752E-03  1.6374027E-02  1.1993347E-02
   7.20000  5.6956594E-03  1.7973804E-02  1.2354423E-02
   7.40000  6.1766733E-03  1.9748280E-02  1.2628323E-02
   7.60000  6.7093519E-03  2.1717018E-02  1.2879622E-02
   7.80000  7.2941045E-03  2.3899388E-02  1.3178886E-02
   8.00000  7.9293287E-03  2.6313003E-02  1.3587674E-02
   8.20000  8.6125099E-03  2.8971354E-02  1.4151603E-02
   8.40000  9.3412154E-03  3.1879994E-02  1.4900069E-02
   8.60000  1.0113829E-02  3.5030866E-02  1.5848648E-02
   8.80000  1.0930049E-02  3.8395021E-02  1.7001139E-02
   9.00000  1.1791153E-02  4.1914973E-02  1.8350027E-02
   9.20000  1.2699937E-02  4.5499070E-02  1.9875515E-02
   9.40000  1.3660147E-02  4.9020958E-02  2.1544085E-02
   9.60000  1.4675257E-02  5.2326872E-02  2.3307842E-02
   9.80000  1.5746765E-02  5.5251314E-02  2.5105921E-02
   10.0000  1.6872402E-02  5.7638000E-02  2.6868779E-02
   10.2500  1.8343708E-02  5.9675813E-02  2.8915619E-02
   10.5000  1.9860785E-02  6.0530181E-02  3.0683068E-02
   10.7500  2.1385348E-02  6.0181422E-02  3.2113679E-02
   11.0000  2.2874157E-02  5.8727658E-02  3.3217372E-02
   11.2500  2.4289632E-02  5.6354689E-02  3.4053722E-02
   11.5000  2.5608531E-02  5.3306896E-02  3.4707457E-02
   11.7500  2.6824464E-02  4.9854020E-02  3.5265290E-02
   12.0000  2.7944970E-02  4.6251657E-02  3.5796062E-02
   12.2500  2.8986093E-02  4.2709257E-02  3.6339358E-02
   12.5000  2.9966560E-02  3.9374729E-02  3.6905644E-02
   12.7500  3.0903801E-02  3.6335164E-02  3.7484363E-02
   13.0000  3.1813308E-02  3.3627857E-02  3.8053488E-02
   13.2500  3.2709072E-02  3.1255028E-02  3.8587488E-02
   13.5000  3.3603347E-02  2.9197606E-02  3.9063393E-02
   13.7500  3.4506187E-02  2.7425934E-02  3.9464883E-02
   14.0000  3.5424976E-02  2.5906980E-02  3.9784110E-02
   14.2500  3.6363846E-02  2.4608679E-02  4.0021492E-02
   14.5000  3.7323226E-02  2.3502161E-02  4.0183946E-02
   14.7500  3.8299707E-02  2.2562469E-02  4.0282068E-02
   15.0000  3.9286093E-02  2.1768455E-02  4.0327149E-02
   15.2500  4.0271524E-02  2.1102348E-02  4.0328835E-02
   15.5000  4.1241713E-02  2.0549275E-02  4.0293722E-02
   15.7500  4.2179437E-02  2.0096809E-02  4.0224864E-02
   16.0000  4.3065345E-02  1.9734552E-02  4.0122023E-02
   16.2500  4.3879093E-02  1.9453773E-02  3.9982455E-02
   16.5000  4.4600747E-02  1.9247080E-02  3.9802030E-02
   16.7500  4.5212301E-02  1.9108142E-02  3.9576478E-02
   17.0000  4.5699161E-02  1.9031460E-02  3.9302572E-02
   17.2500  4.6051399E-02  1.9012203E-02  3.8979102E-02
   17.5000  4.6264639E-02  1.9046099E-02  3.8607499E-02
   17.7500  4.6340448E-02  1.9129379E-02  3.8192050E-02
   18.0000  4.6286205E-02  1.9258752E-02  3.7739689E-02
   18.2500  4.6114448E-02  1.9431397E-02  3.7259444E-02
   18.5000  4.5841798E-02  1.9644946E-02  3.6761648E-02
   18.7500  4.5487576E-02  1.9897460E-02  3.6257054E-02
   19.0000  4.5072272E-02  2.0187397E-02  3.5755996E-02
   19.2500  4.4616009E-02  2.0513582E-02  3.5267661E-02
   19.5000  4.4137139E-02  2.0875170E-02  3.4799543E-02
   19.7500  4.3651178E-02  2.1271558E-02  3.4357145E-02
   20.0000  4.3170327E-02  2.1702122E-02  3.3944018E-02
   21.0000  4.1445559E-02  2.3735245E-02  3.2611880E-02
   22.0000  4.0100458E-02  2.6160033E-02  3.1757351E-02
   23.0000  3.8841915E-02  2.8790396E-02  3.1222448E-02
   24.0000  3.7274330E-02  3.1348823E-02  3.0844165E-02
   25.0000  3.5213447E-02  3.3490638E-02  3.0509672E-02
   26.0000  3.2834683E-02  3.4904646E-02  3.0151713E-02
   27.0000  3.0543059E-02  3.5457816E-02  2.9741859E-02
   28.0000  2.8643092E-02  3.5263514E-02  2.9283045E-02
   29.0000  2.7231120E-02  3.4566409E-02  2.8809877E-02
   30.0000  2.6253431E-02  3.3604030E-02  2.8371251E-02
   31.0000  2.5592334E-02  3.2540629E-02  2.8002525E-02
   32.0000  2.5127853E-02  3.1462918E-02  2.7710239E-02
   33.0000  2.4763442E-02  3.0403165E-02  2.7474300E-02
   34.0000  2.4430064E-02  2.9364683E-02  2.7258759E-02
   35.0000  2.4083163E-02  2.8340973E-02  2.7022602E-02
   36.0000  2.3699787E-02  2.7328217E-02  2.6728805E-02
   37.0000  2.3277998E-02  2.6333218E-02  2.6353470E-02
   38.0000  2.2837322E-02  2.5380116E-02  2.5897434E-02
   39.0000  2.2417391E-02  2.4518442E-02  2.5401861E-02
   40.0000  2.2069202E-02  2.3823184E-02  2.4955444E-02
