    Energy   (100,001)      (010,001)      (001,110)   
  -25.0000  1.7096327E-04  1.8299694E-04  1.8024568E-04
  -24.0000  1.7703657E-04  1.8995352E-04  1.8664526E-04
  -23.0000  1.8351438E-04  1.9741252E-04  1.9347477E-04
  -22.0000  1.9043734E-04  2.0542896E-04  2.0077790E-04
  -21.0000  1.9785166E-04  2.1406603E-04  2.0860441E-04
  -20.0000  2.0581008E-04  2.2339672E-04  2.1701118E-04
  -19.0000  2.1437312E-04  2.3350576E-04  2.2606354E-04
  -18.0000  2.2361054E-04  2.4449201E-04  2.3583691E-04
  -17.0000  2.3360315E-04  2.5647156E-04  2.4641884E-04
  -16.0000  2.4444513E-04  2.6958159E-04  2.5791146E-04
  -15.0000  2.5624690E-04  2.8398531E-04  2.7043475E-04
  -14.0000  2.6913882E-04  2.9987841E-04  2.8413055E-04
  -13.0000  2.8327589E-04  3.1749743E-04  2.9916780E-04
  -12.0000  2.9884395E-04  3.3713089E-04  3.1574937E-04
  -11.0000  3.1606784E-04  3.5913425E-04  3.3412104E-04
  -10.0000  3.3522230E-04  3.8395022E-04  3.5458358E-04
  -9.00000  3.5664689E-04  4.1213705E-04  3.7750919E-04
  -8.00000  3.8076671E-04  4.4440830E-04  4.0336425E-04
  -7.00000  4.0812182E-04  4.8169038E-04  4.3274163E-04
  -6.00000  4.3941015E-04  5.2520737E-04  4.6640749E-04
  -5.00000  4.7555183E-04  5.7661006E-04  5.0537115E-04
  -4.00000  5.1778942E-04  6.3817821E-04  5.5099285E-04
  -3.00000  5.6785043E-04  7.1315060E-04  6.0515661E-04
  -2.00000  6.2822556E-04  8.0628931E-04  6.7056152E-04
  -1.00000  7.0267761E-04  9.2490310E-04  7.5124333E-04
   0.00000  7.9725597E-04  1.0808505E-03  8.5358573E-04
   1.00000  9.2256687E-04  1.2948864E-03  9.8850206E-04
   2.00000  1.0997447E-03  1.6075908E-03  1.1769154E-03
   3.00000  1.3803998E-03  2.1138065E-03  1.4670919E-03
   4.00000  1.9429280E-03  3.1187115E-03  2.0137967E-03
   5.00000  3.6083218E-03  5.9461240E-03  3.4840432E-03
   5.20000  4.1243292E-03  6.8244627E-03  3.9304312E-03
   5.40000  4.6209037E-03  7.6961763E-03  4.3714782E-03
   5.60000  5.0778145E-03  8.5408371E-03  4.8014860E-03
   5.80000  5.4981263E-03  9.3770073E-03  5.2339451E-03
   6.00000  5.8908657E-03  1.0234031E-02  5.6854469E-03
   6.20000  6.2640353E-03  1.1138961E-02  6.1694051E-03
   6.40000  6.6241672E-03  1.2114286E-02  6.6956947E-03
   6.60000  6.9773452E-03  1.3179017E-02  7.2716305E-03
   6.80000  7.3299959E-03  1.4350196E-02  7.9027593E-03
   7.00000  7.6892300E-03  1.5644264E-02  8.5932292E-03
   7.20000  8.0628153E-03  1.7078457E-02  9.3457217E-03
   7.40000  8.4588596E-03  1.8672141E-02  1.0161029E-02
   7.60000  8.8853541E-03  2.0447774E-02  1.1037596E-02
   7.80000  9.3496957E-03  2.2431430E-02  1.1971257E-02
   8.00000  9.8582648E-03  2.4652622E-02  1.2955204E-02
   8.20000  1.0416153E-02  2.7142588E-02  1.3980111E-02
   8.40000  1.1027111E-02  2.9929798E-02  1.5034300E-02
   8.60000  1.1693709E-02  3.3031343E-02  1.6103974E-02
   8.80000  1.2417658E-02  3.6439568E-02  1.7173743E-02
   9.00000  1.3200142E-02  4.0105272E-02  1.8227712E-02
   9.20000  1.4042064E-02  4.3922274E-02  1.9251105E-02
   9.40000  1.4944092E-02  4.7721972E-02  2.0232049E-02
   9.60000  1.5906450E-02  5.1286706E-02  2.1163175E-02
   9.80000  1.6928403E-02  5.4383492E-02  2.2042767E-02
   10.0000  1.8007263E-02  5.6806746E-02  2.2874395E-02
   10.2500  1.9425930E-02  5.8675385E-02  2.3854798E-02
   10.5000  2.0900641E-02  5.9157183E-02  2.4775111E-02
   10.7500  2.2397334E-02  5.8322567E-02  2.5635877E-02
   11.0000  2.3873802E-02  5.6385351E-02  2.6435431E-02
   11.2500  2.5284714E-02  5.3639995E-02  2.7172496E-02
   11.5000  2.6588311E-02  5.0402891E-02  2.7848970E-02
   11.7500  2.7753315E-02  4.6963111E-02  2.8472436E-02
   12.0000  2.8764371E-02  4.3548581E-02  2.9056819E-02
   12.2500  2.9624847E-02  4.0314771E-02  2.9621126E-02
   12.5000  3.0354773E-02  3.7351567E-02  3.0186704E-02
   12.7500  3.0983577E-02  3.4698626E-02  3.0772717E-02
   13.0000  3.1541682E-02  3.2362272E-02  3.1391557E-02
   13.2500  3.2054801E-02  3.0329562E-02  3.2047920E-02
   13.5000  3.2542023E-02  2.8577557E-02  3.2741499E-02
   13.7500  3.3016347E-02  2.7078892E-02  3.3470360E-02
   14.0000  3.3485946E-02  2.5805239E-02  3.4233285E-02
   14.2500  3.3955412E-02  2.4729429E-02  3.5030785E-02
   14.5000  3.4426692E-02  2.3826585E-02  3.5864997E-02
   14.7500  3.4899694E-02  2.3074590E-02  3.6738661E-02
   15.0000  3.5372580E-02  2.2454170E-02  3.7653493E-02
   15.2500  3.5841829E-02  2.1948743E-02  3.8608222E-02
   15.5000  3.6302159E-02  2.1544162E-02  3.9596613E-02
   15.7500  3.6746442E-02  2.1228405E-02  4.0605817E-02
   16.0000  3.7165755E-02  2.0991262E-02  4.1615376E-02
   16.2500  3.7549641E-02  2.0824042E-02  4.2597260E-02
   16.5000  3.7886677E-02  2.0719314E-02  4.3517176E-02
   16.7500  3.8165334E-02  2.0670696E-02  4.4337272E-02
   17.0000  3.8375069E-02  2.0672690E-02  4.5019995E-02
   17.2500  3.8507527E-02  2.0720559E-02  4.5532557E-02
   17.5000  3.8557664E-02  2.0810241E-02  4.5851124E-02
   17.7500  3.8524618E-02  2.0938289E-02  4.5963824E-02
   18.0000  3.8412144E-02  2.1101822E-02  4.5871904E-02
   18.2500  3.8228547E-02  2.1298478E-02  4.5588874E-02
   18.5000  3.7986104E-02  2.1526361E-02  4.5137985E-02
   18.7500  3.7700071E-02  2.1783991E-02  4.4548748E-02
   19.0000  3.7387437E-02  2.2070254E-02  4.3853275E-02
   19.2500  3.7065577E-02  2.2384357E-02  4.3083018E-02
   19.5000  3.6750981E-02  2.2725794E-02  4.2266295E-02
   19.7500  3.6458243E-02  2.3094240E-02  4.1426818E-02
   20.0000  3.6199534E-02  2.3489306E-02  4.0583458E-02
   21.0000  3.5673945E-02  2.5308600E-02  3.7435204E-02
   22.0000  3.6117722E-02  2.7404359E-02  3.4964537E-02
   23.0000  3.7308998E-02  2.9580872E-02  3.3180354E-02
   24.0000  3.8650330E-02  3.1575213E-02  3.1895017E-02
   25.0000  3.9377057E-02  3.3119080E-02  3.0901916E-02
   26.0000  3.8934597E-02  3.4031957E-02  3.0052559E-02
   27.0000  3.7343722E-02  3.4293997E-02  2.9290501E-02
   28.0000  3.5101394E-02  3.4041578E-02  2.8625505E-02
   29.0000  3.2775888E-02  3.3465038E-02  2.8092977E-02
   30.0000  3.0732583E-02  3.2724696E-02  2.7715641E-02
   31.0000  2.9108312E-02  3.1925182E-02  2.7484430E-02
   32.0000  2.7892198E-02  3.1120485E-02  2.7363158E-02
   33.0000  2.7004052E-02  3.0327548E-02  2.7303220E-02
   34.0000  2.6345244E-02  2.9540544E-02  2.7255825E-02
   35.0000  2.5825470E-02  2.8743974E-02  2.7177715E-02
   36.0000  2.5374637E-02  2.7924071E-02  2.7033522E-02
   37.0000  2.4947579E-02  2.7078809E-02  2.6799695E-02
   38.0000  2.4526390E-02  2.6228015E-02  2.6474023E-02
   39.0000  2.4123390E-02  2.5425070E-02  2.6091545E-02
   40.0000  2.3779916E-02  2.4759301E-02  2.5733387E-02
