    Energy   (100,001)      (010,001)      (001,110)   
  -25.0000  1.6699797E-04  1.8769153E-04  1.8188627E-04
  -24.0000  1.7286823E-04  1.9469255E-04  1.8821214E-04
  -23.0000  1.7912280E-04  2.0219434E-04  1.9495698E-04
  -22.0000  1.8579948E-04  2.1025145E-04  2.0216296E-04
  -21.0000  1.9294111E-04  2.1892653E-04  2.0987803E-04
  -20.0000  2.0059648E-04  2.2829195E-04  2.1815699E-04
  -19.0000  2.0882137E-04  2.3843163E-04  2.2706270E-04
  -18.0000  2.1767986E-04  2.4944351E-04  2.3666770E-04
  -17.0000  2.2724591E-04  2.6144257E-04  2.4705607E-04
  -16.0000  2.3760539E-04  2.7456459E-04  2.5832584E-04
  -15.0000  2.4885856E-04  2.8897114E-04  2.7059206E-04
  -14.0000  2.6112324E-04  3.0485584E-04  2.8399063E-04
  -13.0000  2.7453887E-04  3.2245272E-04  2.9868325E-04
  -12.0000  2.8927177E-04  3.4204721E-04  3.1486397E-04
  -11.0000  3.0552203E-04  3.6399089E-04  3.3276769E-04
  -10.0000  3.2353271E-04  3.8872168E-04  3.5268172E-04
  -9.00000  3.4360230E-04  4.1679181E-04  3.7496139E-04
  -8.00000  3.6610192E-04  4.4890731E-04  4.0005188E-04
  -7.00000  3.9149956E-04  4.8598516E-04  4.2851919E-04
  -6.00000  4.2039524E-04  5.2923769E-04  4.6109524E-04
  -5.00000  4.5357338E-04  5.8030129E-04  4.9874568E-04
  -4.00000  4.9208384E-04  6.4143872E-04  5.4277531E-04
  -3.00000  5.3737262E-04  7.1587046E-04  5.9499945E-04
  -2.00000  5.9150464E-04  8.0834373E-04  6.5803759E-04
  -1.00000  6.5756972E-04  9.2617065E-04  7.3585185E-04
   0.00000  7.4049082E-04  1.0812749E-03  8.3482547E-04
   1.00000  8.4883355E-04  1.2946723E-03  9.6619423E-04
   2.00000  9.9958092E-04  1.6078521E-03  1.1525192E-03
   3.00000  1.2341731E-03  2.1190194E-03  1.4497065E-03
   4.00000  1.6965036E-03  3.1486967E-03  2.0559606E-03
   5.00000  3.0513762E-03  6.1036572E-03  3.8921870E-03
   5.20000  3.4683067E-03  7.0306285E-03  4.4454236E-03
   5.40000  3.8667498E-03  7.9554544E-03  4.9565702E-03
   5.60000  4.2297133E-03  8.8563102E-03  5.4014532E-03
   5.80000  4.5593522E-03  9.7501925E-03  5.7847745E-03
   6.00000  4.8627928E-03  1.0663955E-02  6.1198875E-03
   6.20000  5.1468607E-03  1.1621287E-02  6.4212618E-03
   6.40000  5.4179820E-03  1.2640291E-02  6.7029615E-03
   6.60000  5.6826241E-03  1.3734358E-02  6.9778433E-03
   6.80000  5.9472002E-03  1.4913886E-02  7.2571537E-03
   7.00000  6.2177958E-03  1.6188151E-02  7.5508244E-03
   7.20000  6.4999844E-03  1.7567025E-02  7.8681297E-03
   7.40000  6.7987016E-03  1.9062348E-02  8.2183028E-03
   7.60000  7.1181258E-03  2.0688772E-02  8.6109877E-03
   7.80000  7.4616090E-03  2.2463774E-02  9.0565569E-03
   8.00000  7.8317376E-03  2.4406457E-02  9.5662664E-03
   8.20000  8.2305427E-03  2.6534748E-02  1.0152122E-02
   8.40000  8.6597940E-03  2.8860752E-02  1.0826330E-02
   8.60000  9.1212967E-03  3.1384275E-02  1.1600275E-02
   8.80000  9.6171488E-03  3.4085095E-02  1.2483126E-02
   9.00000  1.0149928E-02  3.6915859E-02  1.3480358E-02
   9.20000  1.0722792E-02  3.9799052E-02  1.4592633E-02
   9.40000  1.1339489E-02  4.2632163E-02  1.5815443E-02
   9.60000  1.2004278E-02  4.5303242E-02  1.7139681E-02
   9.80000  1.2721677E-02  4.7713236E-02  1.8552712E-02
   10.0000  1.3495935E-02  4.9794448E-02  2.0038855E-02
   10.2500  1.4548187E-02  5.1884447E-02  2.1968470E-02
   10.5000  1.5694733E-02  5.3378300E-02  2.3927223E-02
   10.7500  1.6928197E-02  5.4227929E-02  2.5842519E-02
   11.0000  1.8231247E-02  5.4351652E-02  2.7629581E-02
   11.2500  1.9577212E-02  5.3680619E-02  2.9210226E-02
   11.5000  2.0933603E-02  5.2225670E-02  3.0534757E-02
   11.7500  2.2267084E-02  5.0104445E-02  3.1593040E-02
   12.0000  2.3548411E-02  4.7510366E-02  3.2408384E-02
   12.2500  2.4756624E-02  4.4655861E-02  3.3021380E-02
   12.5000  2.5880726E-02  4.1729179E-02  3.3475449E-02
   12.7500  2.6918779E-02  3.8876238E-02  3.3809269E-02
   13.0000  2.7876242E-02  3.6197437E-02  3.4054729E-02
   13.2500  2.8763676E-02  3.3751650E-02  3.4238626E-02
   13.5000  2.9594097E-02  3.1564561E-02  3.4385500E-02
   13.7500  3.0380931E-02  2.9638756E-02  3.4519068E-02
   14.0000  3.1136774E-02  2.7962880E-02  3.4662004E-02
   14.2500  3.1872832E-02  2.6518258E-02  3.4835173E-02
   14.5000  3.2598690E-02  2.5283096E-02  3.5056732E-02
   14.7500  3.3322005E-02  2.4235070E-02  3.5341077E-02
   15.0000  3.4048135E-02  2.3352859E-02  3.5697818E-02
   15.2500  3.4779781E-02  2.2616940E-02  3.6130919E-02
   15.5000  3.5516767E-02  2.2009915E-02  3.6638099E-02
   15.7500  3.6255967E-02  2.1516551E-02  3.7210532E-02
   16.0000  3.6991431E-02  2.1123680E-02  3.7832918E-02
   16.2500  3.7714700E-02  2.0820037E-02  3.8484028E-02
   16.5000  3.8415328E-02  2.0596084E-02  3.9137832E-02
   16.7500  3.9081568E-02  2.0443822E-02  3.9765232E-02
   17.0000  3.9701192E-02  2.0356611E-02  4.0336338E-02
   17.2500  4.0262390E-02  2.0328964E-02  4.0823059E-02
   17.5000  4.0754692E-02  2.0356353E-02  4.1201670E-02
   17.7500  4.1169855E-02  2.0434994E-02  4.1454965E-02
   18.0000  4.1502646E-02  2.0561643E-02  4.1573633E-02
   18.2500  4.1751448E-02  2.0733411E-02  4.1556681E-02
   18.5000  4.1918589E-02  2.0947610E-02  4.1410867E-02
   18.7500  4.2010335E-02  2.1201655E-02  4.1149337E-02
   19.0000  4.2036468E-02  2.1493018E-02  4.0789721E-02
   19.2500  4.2009485E-02  2.1819260E-02  4.0352023E-02
   19.5000  4.1943471E-02  2.2178088E-02  3.9856577E-02
   19.7500  4.1852890E-02  2.2567383E-02  3.9322424E-02
   20.0000  4.1751566E-02  2.2985043E-02  3.8766471E-02
   21.0000  4.1467609E-02  2.4882927E-02  3.6597529E-02
   22.0000  4.1641069E-02  2.7002453E-02  3.4898631E-02
   23.0000  4.2071312E-02  2.9165542E-02  3.3748999E-02
   24.0000  4.2162333E-02  3.1162827E-02  3.2983101E-02
   25.0000  4.1365072E-02  3.2762526E-02  3.2394937E-02
   26.0000  3.9544994E-02  3.3783939E-02  3.1825739E-02
   27.0000  3.7027109E-02  3.4172265E-02  3.1193505E-02
   28.0000  3.4326401E-02  3.4004473E-02  3.0495073E-02
   29.0000  3.1855596E-02  3.3433226E-02  2.9785609E-02
   30.0000  2.9818426E-02  3.2631384E-02  2.9141320E-02
   31.0000  2.8246948E-02  3.1751880E-02  2.8618054E-02
   32.0000  2.7069938E-02  3.0884386E-02  2.8220624E-02
   33.0000  2.6189809E-02  3.0067289E-02  2.7922769E-02
   34.0000  2.5520442E-02  2.9312260E-02  2.7692319E-02
   35.0000  2.4992702E-02  2.8617696E-02  2.7500758E-02
   36.0000  2.4552207E-02  2.7977475E-02  2.7325698E-02
   37.0000  2.4157763E-02  2.7387041E-02  2.7151382E-02
   38.0000  2.3784229E-02  2.6848181E-02  2.6970192E-02
   39.0000  2.3430996E-02  2.6374727E-02  2.6787247E-02
   40.0000  2.3127652E-02  2.5996438E-02  2.6625335E-02
