    Energy   (100,001)      (010,001)      (001,110)   
  -25.0000  1.6426075E-04  1.8550828E-04  1.7737400E-04
  -24.0000  1.7023678E-04  1.9248927E-04  1.8376230E-04
  -23.0000  1.7661419E-04  1.9997189E-04  1.9058510E-04
  -22.0000  1.8343318E-04  2.0801094E-04  1.9788707E-04
  -21.0000  1.9073942E-04  2.1666933E-04  2.0571913E-04
  -20.0000  1.9858494E-04  2.2601974E-04  2.1413960E-04
  -19.0000  2.0702936E-04  2.3614649E-04  2.2321557E-04
  -18.0000  2.1614121E-04  2.4714797E-04  2.3302466E-04
  -17.0000  2.2599975E-04  2.5913971E-04  2.4365707E-04
  -16.0000  2.3669707E-04  2.7225815E-04  2.5521833E-04
  -15.0000  2.4834083E-04  2.8666563E-04  2.6783266E-04
  -14.0000  2.6105767E-04  3.0255672E-04  2.8164729E-04
  -13.0000  2.7499757E-04  3.2016659E-04  2.9683812E-04
  -12.0000  2.9033951E-04  3.3978197E-04  3.1361704E-04
  -11.0000  3.0729887E-04  3.6175603E-04  3.3224174E-04
  -10.0000  3.2613719E-04  3.8652851E-04  3.5302896E-04
  -9.00000  3.4717539E-04  4.1465370E-04  3.7637257E-04
  -8.00000  3.7081183E-04  4.4683983E-04  4.0276913E-04
  -7.00000  3.9754757E-04  4.8400598E-04  4.3285441E-04
  -6.00000  4.2802250E-04  5.2736596E-04  4.6745726E-04
  -5.00000  4.6306843E-04  5.7855572E-04  5.0768158E-04
  -4.00000  5.0378963E-04  6.3983301E-04  5.5503586E-04
  -3.00000  5.5168981E-04  7.1440275E-04  6.1164732E-04
  -2.00000  6.0888237E-04  8.0697268E-04  6.8063678E-04
  -1.00000  6.7845998E-04  9.2475954E-04  7.6682322E-04
   0.00000  7.6519926E-04  1.0794549E-03  8.7817609E-04
   1.00000  8.7705902E-04  1.2914798E-03  1.0292019E-03
   2.00000  1.0289073E-03  1.6006438E-03  1.2503142E-03
   3.00000  1.2542771E-03  2.0995398E-03  1.6211249E-03
   4.00000  1.6592659E-03  3.0835564E-03  2.4429293E-03
   5.00000  2.7053735E-03  5.8322724E-03  5.1357289E-03
   5.20000  3.0248953E-03  6.6980886E-03  5.8990066E-03
   5.40000  3.3423057E-03  7.5709162E-03  6.5457937E-03
   5.60000  3.6485237E-03  8.4285327E-03  7.0549096E-03
   5.80000  3.9460513E-03  9.2825987E-03  7.4545395E-03
   6.00000  4.2397599E-03  1.0155147E-02  7.7761741E-03
   6.20000  4.5340390E-03  1.1068322E-02  8.0425869E-03
   6.40000  4.8335707E-03  1.2043053E-02  8.2719944E-03
   6.60000  5.1441306E-03  1.3099970E-02  8.4823555E-03
   6.80000  5.4725231E-03  1.4260052E-02  8.6915139E-03
   7.00000  5.8262240E-03  1.5544587E-02  8.9145686E-03
   7.20000  6.2132862E-03  1.6974684E-02  9.1616515E-03
   7.40000  6.6425262E-03  1.8570596E-02  9.4385120E-03
   7.60000  7.1236612E-03  2.0350834E-02  9.7499697E-03
   7.80000  7.6670435E-03  2.2330870E-02  1.0104084E-02
   8.00000  8.2828330E-03  2.4521265E-02  1.0514394E-02
   8.20000  8.9796800E-03  2.6925439E-02  1.0999080E-02
   8.40000  9.7630619E-03  2.9537668E-02  1.1577940E-02
   8.60000  1.0633454E-02  3.2342135E-02  1.2269014E-02
   8.80000  1.1584783E-02  3.5313777E-02  1.3086166E-02
   9.00000  1.2603972E-02  3.8420618E-02  1.4037902E-02
   9.20000  1.3672424E-02  4.1625516E-02  1.5126896E-02
   9.40000  1.4769613E-02  4.4883991E-02  1.6349586E-02
   9.60000  1.5877546E-02  4.8135030E-02  1.7695642E-02
   9.80000  1.6983992E-02  5.1285695E-02  1.9147791E-02
   10.0000  1.8082920E-02  5.4197464E-02  2.0682464E-02
   10.2500  1.9443392E-02  5.7219449E-02  2.2673572E-02
   10.5000  2.0789326E-02  5.9191060E-02  2.4691199E-02
   10.7500  2.2123402E-02  5.9814813E-02  2.6683690E-02
   11.0000  2.3452499E-02  5.9007005E-02  2.8610219E-02
   11.2500  2.4781503E-02  5.6932530E-02  3.0437080E-02
   11.5000  2.6102263E-02  5.3935424E-02  3.2134719E-02
   11.7500  2.7393930E-02  5.0415807E-02  3.3678451E-02
   12.0000  2.8631910E-02  4.6726467E-02  3.5048667E-02
   12.2500  2.9795343E-02  4.3122908E-02  3.6230320E-02
   12.5000  3.0870538E-02  3.9759530E-02  3.7213744E-02
   12.7500  3.1851091E-02  3.6711174E-02  3.7997343E-02
   13.0000  3.2736806E-02  3.4000674E-02  3.8590261E-02
   13.2500  3.3533411E-02  3.1620920E-02  3.9012740E-02
   13.5000  3.4252204E-02  2.9549469E-02  3.9294074E-02
   13.7500  3.4908000E-02  2.7757592E-02  3.9469076E-02
   14.0000  3.5516241E-02  2.6215497E-02  3.9574153E-02
   14.2500  3.6091097E-02  2.4894846E-02  3.9643751E-02
   14.5000  3.6644416E-02  2.3769698E-02  3.9707578E-02
   14.7500  3.7184837E-02  2.2816800E-02  3.9788726E-02
   15.0000  3.7717106E-02  2.2015612E-02  3.9902630E-02
   15.2500  3.8241850E-02  2.1348185E-02  4.0056711E-02
   15.5000  3.8755909E-02  2.0798968E-02  4.0250549E-02
   15.7500  3.9253147E-02  2.0354565E-02  4.0476491E-02
   16.0000  3.9725638E-02  2.0003487E-02  4.0720695E-02
   16.2500  4.0165066E-02  1.9735911E-02  4.0964605E-02
   16.5000  4.0564144E-02  1.9543454E-02  4.1186845E-02
   16.7500  4.0917860E-02  1.9418970E-02  4.1365416E-02
   17.0000  4.1224342E-02  1.9356366E-02  4.1479996E-02
   17.2500  4.1485229E-02  1.9350431E-02  4.1514046E-02
   17.5000  4.1705489E-02  1.9396696E-02  4.1456421E-02
   17.7500  4.1892753E-02  1.9491304E-02  4.1302266E-02
   18.0000  4.2056324E-02  1.9630904E-02  4.1053090E-02
   18.2500  4.2206058E-02  1.9812572E-02  4.0716104E-02
   18.5000  4.2351304E-02  2.0033747E-02  4.0302989E-02
   18.7500  4.2500048E-02  2.0292193E-02  3.9828375E-02
   19.0000  4.2658335E-02  2.0585984E-02  3.9308237E-02
   19.2500  4.2829973E-02  2.0913509E-02  3.8758436E-02
   19.5000  4.3016461E-02  2.1273494E-02  3.8193496E-02
   19.7500  4.3217024E-02  2.1664950E-02  3.7625794E-02
   20.0000  4.3428573E-02  2.2086959E-02  3.7065346E-02
   21.0000  4.4242426E-02  2.4047376E-02  3.5040190E-02
   22.0000  4.4527168E-02  2.6339499E-02  3.3524266E-02
   23.0000  4.3673697E-02  2.8785208E-02  3.2464906E-02
   24.0000  4.1454496E-02  3.1125089E-02  3.1678198E-02
   25.0000  3.8205518E-02  3.3061628E-02  3.0987074E-02
   26.0000  3.4593443E-02  3.4360647E-02  3.0280585E-02
   27.0000  3.1256856E-02  3.4940553E-02  2.9535706E-02
   28.0000  2.8582434E-02  3.4886235E-02  2.8801208E-02
   29.0000  2.6618369E-02  3.4378393E-02  2.8135988E-02
   30.0000  2.5242447E-02  3.3601808E-02  2.7578964E-02
   31.0000  2.4306029E-02  3.2697189E-02  2.7142287E-02
   32.0000  2.3678194E-02  3.1753547E-02  2.6815072E-02
   33.0000  2.3254078E-02  3.0818021E-02  2.6572359E-02
   34.0000  2.2952234E-02  2.9910323E-02  2.6381404E-02
   35.0000  2.2709203E-02  2.9036308E-02  2.6205032E-02
   36.0000  2.2475714E-02  2.8198361E-02  2.6005472E-02
   37.0000  2.2217450E-02  2.7401677E-02  2.5751425E-02
   38.0000  2.1920931E-02  2.6658450E-02  2.5430316E-02
   39.0000  2.1602791E-02  2.5995655E-02  2.5065661E-02
   40.0000  2.1312954E-02  2.5462119E-02  2.4726804E-02
