    Energy   (100,001)      (010,001)      (001,110)   
  -25.0000  1.7192297E-04  1.8754274E-04  1.7366537E-04
  -24.0000  1.7842280E-04  1.9436103E-04  1.8022865E-04
  -23.0000  1.8538241E-04  2.0165631E-04  1.8725624E-04
  -22.0000  1.9285061E-04  2.0947956E-04  1.9479741E-04
  -21.0000  2.0088323E-04  2.1788922E-04  2.0290852E-04
  -20.0000  2.0954441E-04  2.2695261E-04  2.1165434E-04
  -19.0000  2.1890822E-04  2.3674763E-04  2.2110962E-04
  -18.0000  2.2906063E-04  2.4736497E-04  2.3136110E-04
  -17.0000  2.4010194E-04  2.5891077E-04  2.4251001E-04
  -16.0000  2.5214990E-04  2.7151006E-04  2.5467513E-04
  -15.0000  2.6534364E-04  2.8531114E-04  2.6799679E-04
  -14.0000  2.7984869E-04  3.0049115E-04  2.8264192E-04
  -13.0000  2.9586355E-04  3.1726346E-04  2.9881062E-04
  -12.0000  3.1362821E-04  3.3588730E-04  3.1674477E-04
  -11.0000  3.3343555E-04  3.5668070E-04  3.3673944E-04
  -10.0000  3.5564667E-04  3.8003804E-04  3.5915832E-04
  -9.00000  3.8071197E-04  4.0645416E-04  3.8445481E-04
  -8.00000  4.0920038E-04  4.3655843E-04  4.1320146E-04
  -7.00000  4.4184122E-04  4.7116331E-04  4.4613184E-04
  -6.00000  4.7958509E-04  5.1133596E-04  4.8420167E-04
  -5.00000  5.2369514E-04  5.5850599E-04  5.2868042E-04
  -4.00000  5.7588830E-04  6.1463360E-04  5.8129307E-04
  -3.00000  6.3856244E-04  6.8248161E-04  6.4444849E-04
  -2.00000  7.1517894E-04  7.6607706E-04  7.2162509E-04
  -1.00000  8.1094633E-04  8.7154163E-04  8.1806289E-04
   0.00000  9.3413799E-04  1.0087039E-03  9.4210686E-04
   1.00000  1.0989070E-03  1.1945707E-03  1.1081088E-03
   2.00000  1.3322475E-03  1.4619951E-03  1.3437281E-03
   3.00000  1.6955230E-03  1.8868353E-03  1.7130761E-03
   4.00000  2.3798788E-03  2.7104836E-03  2.4224560E-03
   5.00000  4.2042038E-03  4.9801576E-03  4.4006658E-03
   5.20000  4.7799934E-03  5.6897357E-03  5.0410508E-03
   5.40000  5.3687814E-03  6.3989393E-03  5.6814872E-03
   5.60000  5.9565095E-03  7.0866810E-03  6.2755899E-03
   5.80000  6.5500482E-03  7.7624874E-03  6.8081299E-03
   6.00000  7.1629416E-03  8.4471242E-03  7.2947062E-03
   6.20000  7.8078946E-03  9.1615478E-03  7.7679877E-03
   6.40000  8.4947230E-03  9.9233316E-03  8.2598421E-03
   6.60000  9.2309801E-03  1.0746835E-02  8.7921150E-03
   6.80000  1.0023853E-02  1.1644603E-02  9.3777835E-03
   7.00000  1.0882164E-02  1.2628719E-02  1.0027296E-02
   7.20000  1.1817545E-02  1.3711910E-02  1.0755388E-02
   7.40000  1.2844330E-02  1.4908469E-02  1.1585280E-02
   7.60000  1.3978224E-02  1.6234802E-02  1.2548749E-02
   7.80000  1.5234139E-02  1.7709249E-02  1.3682691E-02
   8.00000  1.6623716E-02  1.9351032E-02  1.5024043E-02
   8.20000  1.8153094E-02  2.1178648E-02  1.6604603E-02
   8.40000  1.9821631E-02  2.3208529E-02  1.8446043E-02
   8.60000  2.1622158E-02  2.5454270E-02  2.0554732E-02
   8.80000  2.3542443E-02  2.7925701E-02  2.2916064E-02
   9.00000  2.5566124E-02  3.0626686E-02  2.5488763E-02
   9.20000  2.7671003E-02  3.3550823E-02  2.8200940E-02
   9.40000  2.9824396E-02  3.6674929E-02  3.0950901E-02
   9.60000  3.1978168E-02  3.9951326E-02  3.3615445E-02
   9.80000  3.4067598E-02  4.3300442E-02  3.6066323E-02
   10.0000  3.6016814E-02  4.6605319E-02  3.8191737E-02
   10.2500  3.8140525E-02  5.0434529E-02  4.0278994E-02
   10.5000  3.9803021E-02  5.3588012E-02  4.1691009E-02
   10.7500  4.0933457E-02  5.5709044E-02  4.2473144E-02
   11.0000  4.1526804E-02  5.6548740E-02  4.2730801E-02
   11.2500  4.1635926E-02  5.6051823E-02  4.2588199E-02
   11.5000  4.1350803E-02  5.4374265E-02  4.2159098E-02
   11.7500  4.0778394E-02  5.1820827E-02  4.1535686E-02
   12.0000  4.0025740E-02  4.8744533E-02  4.0790363E-02
   12.2500  3.9187199E-02  4.5462523E-02  3.9981306E-02
   12.5000  3.8339025E-02  4.2212998E-02  3.9156554E-02
   12.7500  3.7538229E-02  3.9148628E-02  3.8355555E-02
   13.0000  3.6822624E-02  3.6350884E-02  3.7609547E-02
   13.2500  3.6213009E-02  3.3850942E-02  3.6942694E-02
   13.5000  3.5717704E-02  3.1648773E-02  3.6372670E-02
   13.7500  3.5337248E-02  2.9727347E-02  3.5910318E-02
   14.0000  3.5067335E-02  2.8061875E-02  3.5560062E-02
   14.2500  3.4900237E-02  2.6625277E-02  3.5321088E-02
   14.5000  3.4825655E-02  2.5391193E-02  3.5188402E-02
   14.7500  3.4831284E-02  2.4335464E-02  3.5153604E-02
   15.0000  3.4903148E-02  2.3436711E-02  3.5205549E-02
   15.2500  3.5025825E-02  2.2676396E-02  3.5330976E-02
   15.5000  3.5182718E-02  2.2038615E-02  3.5515175E-02
   15.7500  3.5356546E-02  2.1509780E-02  3.5742633E-02
   16.0000  3.5530105E-02  2.1078274E-02  3.5997682E-02
   16.2500  3.5687269E-02  2.0734141E-02  3.6265111E-02
   16.5000  3.5814109E-02  2.0468820E-02  3.6530743E-02
   16.7500  3.5899927E-02  2.0274931E-02  3.6781955E-02
   17.0000  3.5938027E-02  2.0146091E-02  3.7008120E-02
   17.2500  3.5926063E-02  2.0076758E-02  3.7200929E-02
   17.5000  3.5865916E-02  2.0062080E-02  3.7354564E-02
   17.7500  3.5763124E-02  2.0097778E-02  3.7465673E-02
   18.0000  3.5625977E-02  2.0180025E-02  3.7533170E-02
   18.2500  3.5464439E-02  2.0305363E-02  3.7557873E-02
   18.5000  3.5289047E-02  2.0470626E-02  3.7542047E-02
   18.7500  3.5109937E-02  2.0672910E-02  3.7488905E-02
   19.0000  3.4936067E-02  2.0909553E-02  3.7402125E-02
   19.2500  3.4774682E-02  2.1178160E-02  3.7285430E-02
   19.5000  3.4631014E-02  2.1476644E-02  3.7142240E-02
   19.7500  3.4508169E-02  2.1803213E-02  3.6975456E-02
   20.0000  3.4407184E-02  2.2156213E-02  3.6787409E-02
   21.0000  3.4185917E-02  2.3790664E-02  3.5855597E-02
   22.0000  3.4070344E-02  2.5681154E-02  3.4672462E-02
   23.0000  3.3763573E-02  2.7716535E-02  3.3249816E-02
   24.0000  3.3047076E-02  2.9783955E-02  3.1626449E-02
   25.0000  3.1870696E-02  3.1727571E-02  2.9902192E-02
   26.0000  3.0356003E-02  3.3347582E-02  2.8216452E-02
   27.0000  2.8699749E-02  3.4512876E-02  2.6681508E-02
   28.0000  2.7097971E-02  3.5167420E-02  2.5381036E-02
   29.0000  2.5695611E-02  3.5327574E-02  2.4369611E-02
   30.0000  2.4563184E-02  3.5081078E-02  2.3656637E-02
   31.0000  2.3706271E-02  3.4552662E-02  2.3205259E-02
   32.0000  2.3091538E-02  3.3860150E-02  2.2949065E-02
   33.0000  2.2669785E-02  3.3087311E-02  2.2812913E-02
   34.0000  2.2389158E-02  3.2278884E-02  2.2728390E-02
   35.0000  2.2201378E-02  3.1450640E-02  2.2643395E-02
   36.0000  2.2065595E-02  3.0605120E-02  2.2528813E-02
   37.0000  2.1951769E-02  2.9746950E-02  2.2381583E-02
   38.0000  2.1843002E-02  2.8897442E-02  2.2220026E-02
   39.0000  2.1736319E-02  2.8108030E-02  2.2070887E-02
   40.0000  2.1641025E-02  2.7461739E-02  2.1953716E-02
