    Energy   (100,001)      (010,001)      (001,110)   
  -25.0000  1.6674614E-04  1.8488403E-04  1.8337542E-04
  -24.0000  1.7266905E-04  1.9178178E-04  1.8977530E-04
  -23.0000  1.7898409E-04  1.9917088E-04  1.9660119E-04
  -22.0000  1.8573032E-04  2.0710453E-04  2.0389619E-04
  -21.0000  1.9295205E-04  2.1564380E-04  2.1170934E-04
  -20.0000  2.0069985E-04  2.2485914E-04  2.2009672E-04
  -19.0000  2.0903164E-04  2.3483220E-04  2.2912272E-04
  -18.0000  2.1801409E-04  2.4565817E-04  2.3886168E-04
  -17.0000  2.2772432E-04  2.5744863E-04  2.4939985E-04
  -16.0000  2.3825207E-04  2.7033527E-04  2.6083791E-04
  -15.0000  2.4970241E-04  2.8447454E-04  2.7329409E-04
  -14.0000  2.6219914E-04  3.0005374E-04  2.8690823E-04
  -13.0000  2.7588923E-04  3.1729888E-04  3.0184696E-04
  -12.0000  2.9094856E-04  3.3648523E-04  3.1831051E-04
  -11.0000  3.0758952E-04  3.5795132E-04  3.3654169E-04
  -10.0000  3.2607116E-04  3.8211811E-04  3.5683807E-04
  -9.00000  3.4671301E-04  4.0951545E-04  3.7956859E-04
  -8.00000  3.6991427E-04  4.4081951E-04  4.0519679E-04
  -7.00000  3.9618112E-04  4.7690668E-04  4.3431414E-04
  -6.00000  4.2616632E-04  5.1893330E-04  4.6768893E-04
  -5.00000  4.6072875E-04  5.6845678E-04  5.0634055E-04
  -4.00000  5.0102581E-04  6.2762626E-04  5.5165666E-04
  -3.00000  5.4866316E-04  6.9949458E-04  6.0558675E-04
  -2.00000  6.0595033E-04  7.8855503E-04  6.7098106E-04
  -1.00000  6.7636629E-04  9.0172373E-04  7.5222914E-04
   0.00000  7.6548166E-04  1.0502888E-03  8.5658315E-04
   1.00000  8.8300157E-04  1.2542251E-03  9.9727337E-04
   2.00000  1.0480564E-03  1.5533528E-03  1.2022656E-03
   3.00000  1.3064818E-03  2.0438642E-03  1.5461444E-03
   4.00000  1.8118178E-03  3.0515041E-03  2.3209129E-03
   5.00000  3.2584425E-03  6.0476482E-03  4.9061928E-03
   5.20000  3.7163845E-03  6.9707674E-03  5.5736380E-03
   5.40000  4.1737637E-03  7.8530705E-03  6.0496860E-03
   5.60000  4.6151720E-03  8.6576711E-03  6.3257481E-03
   5.80000  5.0422957E-03  9.3921284E-03  6.4751898E-03
   6.00000  5.4615725E-03  1.0078160E-02  6.5761414E-03
   6.20000  5.8793082E-03  1.0742819E-02  6.6779951E-03
   6.40000  6.3009313E-03  1.1419688E-02  6.8053903E-03
   6.60000  6.7307991E-03  1.2145987E-02  6.9713635E-03
   6.80000  7.1720331E-03  1.2956044E-02  7.1845790E-03
   7.00000  7.6266881E-03  1.3877251E-02  7.4508302E-03
   7.20000  8.0962288E-03  1.4930279E-02  7.7732741E-03
   7.40000  8.5820703E-03  1.6131636E-02  8.1532257E-03
   7.60000  9.0860458E-03  1.7496448E-02  8.5912275E-03
   7.80000  9.6107125E-03  1.9040233E-02  9.0879343E-03
   8.00000  1.0159284E-02  2.0779388E-02  9.6446266E-03
   8.20000  1.0735086E-02  2.2730605E-02  1.0263326E-02
   8.40000  1.1340613E-02  2.4909244E-02  1.0946598E-02
   8.60000  1.1976358E-02  2.7326532E-02  1.1697152E-02
   8.80000  1.2639723E-02  2.9985464E-02  1.2517364E-02
   9.00000  1.3324404E-02  3.2875500E-02  1.3408823E-02
   9.20000  1.4020652E-02  3.5966479E-02  1.4372005E-02
   9.40000  1.4716673E-02  3.9202717E-02  1.5406121E-02
   9.60000  1.5400948E-02  4.2498904E-02  1.6509072E-02
   9.80000  1.6064833E-02  4.5739779E-02  1.7677362E-02
   10.0000  1.6704414E-02  4.8785195E-02  1.8905706E-02
   10.2500  1.7471547E-02  5.2083443E-02  2.0512931E-02
   10.5000  1.8210982E-02  5.4556581E-02  2.2176444E-02
   10.7500  1.8933739E-02  5.6009038E-02  2.3861113E-02
   11.0000  1.9651446E-02  5.6369672E-02  2.5525431E-02
   11.2500  2.0372289E-02  5.5686563E-02  2.7128742E-02
   11.5000  2.1094652E-02  5.4102510E-02  2.8636603E-02
   11.7500  2.1809263E-02  5.1823450E-02  3.0023947E-02
   12.0000  2.2506869E-02  4.9080418E-02  3.1276350E-02
   12.2500  2.3183622E-02  4.6094056E-02  3.2389308E-02
   12.5000  2.3842290E-02  4.3051221E-02  3.3366904E-02
   12.7500  2.4490394E-02  4.0095108E-02  3.4220403E-02
   13.0000  2.5137622E-02  3.7324361E-02  3.4966348E-02
   13.2500  2.5794052E-02  3.4797425E-02  3.5624652E-02
   13.5000  2.6469110E-02  3.2540306E-02  3.6217073E-02
   13.7500  2.7170868E-02  3.0555741E-02  3.6766016E-02
   14.0000  2.7905580E-02  2.8831718E-02  3.7293467E-02
   14.2500  2.8677437E-02  2.7348180E-02  3.7819955E-02
   14.5000  2.9488490E-02  2.6081696E-02  3.8363438E-02
   14.7500  3.0338693E-02  2.5008396E-02  3.8938117E-02
   15.0000  3.1225992E-02  2.4105628E-02  3.9553219E-02
   15.2500  3.2146430E-02  2.3352766E-02  4.0211858E-02
   15.5000  3.3094237E-02  2.2731515E-02  4.0910129E-02
   15.7500  3.4061906E-02  2.2225912E-02  4.1636583E-02
   16.0000  3.5040285E-02  2.1822185E-02  4.2372249E-02
   16.2500  3.6018723E-02  2.1508549E-02  4.3091380E-02
   16.5000  3.6985318E-02  2.1274983E-02  4.3763008E-02
   16.7500  3.7927286E-02  2.1113012E-02  4.4353355E-02
   17.0000  3.8831480E-02  2.1015489E-02  4.4828960E-02
   17.2500  3.9685054E-02  2.0976390E-02  4.5160191E-02
   17.5000  4.0476238E-02  2.0990609E-02  4.5324632E-02
   17.7500  4.1195170E-02  2.1053783E-02  4.5309738E-02
   18.0000  4.1834664E-02  2.1162115E-02  4.5114212E-02
   18.2500  4.2390811E-02  2.1312238E-02  4.4747820E-02
   18.5000  4.2863267E-02  2.1501102E-02  4.4229747E-02
   18.7500  4.3255157E-02  2.1725905E-02  4.3585864E-02
   19.0000  4.3572580E-02  2.1984065E-02  4.2845516E-02
   19.2500  4.3823790E-02  2.2273239E-02  4.2038367E-02
   19.5000  4.4018160E-02  2.2591364E-02  4.1191764E-02
   19.7500  4.4165140E-02  2.2936649E-02  4.0328973E-02
   20.0000  4.4273364E-02  2.3307403E-02  3.9468641E-02
   21.0000  4.4438999E-02  2.4999513E-02  3.6309893E-02
   22.0000  4.4270866E-02  2.6904875E-02  3.3895038E-02
   23.0000  4.3661649E-02  2.8854144E-02  3.2194884E-02
   24.0000  4.2445540E-02  3.0645505E-02  3.1001623E-02
   25.0000  4.0547789E-02  3.2083717E-02  3.0106906E-02
   26.0000  3.8046839E-02  3.3050799E-02  2.9357177E-02
   27.0000  3.5226961E-02  3.3542432E-02  2.8675818E-02
   28.0000  3.2502560E-02  3.3640297E-02  2.8059650E-02
   29.0000  3.0158392E-02  3.3448258E-02  2.7536719E-02
   30.0000  2.8299748E-02  3.3057206E-02  2.7135660E-02
   31.0000  2.6910737E-02  3.2538623E-02  2.6869973E-02
   32.0000  2.5911058E-02  3.1943336E-02  2.6732922E-02
   33.0000  2.5201433E-02  3.1300408E-02  2.6701103E-02
   34.0000  2.4689126E-02  3.0619076E-02  2.6741428E-02
   35.0000  2.4297219E-02  2.9894911E-02  2.6816970E-02
   36.0000  2.3966073E-02  2.9119516E-02  2.6890760E-02
   37.0000  2.3653365E-02  2.8292552E-02  2.6929575E-02
   38.0000  2.3336644E-02  2.7436070E-02  2.6910796E-02
   39.0000  2.3020292E-02  2.6610777E-02  2.6834752E-02
   40.0000  2.2739971E-02  2.5919476E-02  2.6735776E-02
