    Energy   (100,001)      (010,001)      (001,110)   
  -25.0000  1.6423927E-04  1.7483977E-04  1.7080564E-04
  -24.0000  1.7041208E-04  1.8184974E-04  1.7719727E-04
  -23.0000  1.7701348E-04  1.8938509E-04  1.8403497E-04
  -22.0000  1.8408791E-04  1.9750497E-04  1.9136542E-04
  -21.0000  1.9168604E-04  2.0627756E-04  1.9924187E-04
  -20.0000  1.9986589E-04  2.1578184E-04  2.0772542E-04
  -19.0000  2.0869424E-04  2.2610980E-04  2.1688644E-04
  -18.0000  2.1824828E-04  2.3736917E-04  2.2680640E-04
  -17.0000  2.2861775E-04  2.4968692E-04  2.3758014E-04
  -16.0000  2.3990757E-04  2.6321362E-04  2.4931870E-04
  -15.0000  2.5224115E-04  2.7812920E-04  2.6215287E-04
  -14.0000  2.6576468E-04  2.9465027E-04  2.7623780E-04
  -13.0000  2.8065256E-04  3.1303987E-04  2.9175887E-04
  -12.0000  2.9711459E-04  3.3362036E-04  3.0893940E-04
  -11.0000  3.1540539E-04  3.5679092E-04  3.2805082E-04
  -10.0000  3.3583711E-04  3.8305138E-04  3.4942632E-04
  -9.00000  3.5879664E-04  4.1303557E-04  3.7347946E-04
  -8.00000  3.8476961E-04  4.4755866E-04  4.0072991E-04
  -7.00000  4.1437433E-04  4.8768571E-04  4.3183999E-04
  -6.00000  4.4841097E-04  5.3483369E-04  4.6766748E-04
  -5.00000  4.8793494E-04  5.9092725E-04  5.0934429E-04
  -4.00000  5.3436990E-04  6.5864447E-04  5.5839734E-04
  -3.00000  5.8968853E-04  7.4181965E-04  6.1694167E-04
  -2.00000  6.5671597E-04  8.4613434E-04  6.8800393E-04
  -1.00000  7.3966975E-04  9.8037218E-04  7.7609826E-04
   0.00000  8.4519699E-04  1.1588683E-03  8.8833642E-04
   1.00000  9.8458008E-04  1.4067742E-03  1.0368140E-03
   2.00000  1.1791560E-03  1.7730262E-03  1.2446141E-03
   3.00000  1.4768829E-03  2.3696716E-03  1.5650237E-03
   4.00000  2.0243675E-03  3.5395796E-03  2.1715214E-03
   5.00000  3.4404358E-03  6.7165269E-03  3.8291669E-03
   5.20000  3.8900763E-03  7.7477801E-03  4.3251227E-03
   5.40000  4.3579914E-03  8.8391248E-03  4.7918616E-03
   5.60000  4.8353725E-03  9.9786205E-03  5.2076611E-03
   5.80000  5.3287300E-03  1.1186407E-02  5.5798527E-03
   6.00000  5.8508646E-03  1.2492537E-02  5.9293311E-03
   6.20000  6.4166732E-03  1.3926890E-02  6.2812452E-03
   6.40000  7.0421855E-03  1.5517368E-02  6.6608626E-03
   6.60000  7.7441463E-03  1.7289931E-02  7.0918611E-03
   6.80000  8.5390325E-03  1.9268046E-02  7.5960579E-03
   7.00000  9.4408462E-03  2.1471260E-02  8.1938706E-03
   7.20000  1.0456765E-02  2.3913394E-02  8.9046138E-03
   7.40000  1.1579698E-02  2.6600634E-02  9.7456614E-03
   7.60000  1.2778212E-02  2.9529134E-02  1.0729866E-02
   7.80000  1.3988113E-02  3.2681923E-02  1.1861681E-02
   8.00000  1.5115516E-02  3.6025348E-02  1.3134237E-02
   8.20000  1.6061997E-02  3.9505502E-02  1.4531061E-02
   8.40000  1.6768013E-02  4.3045464E-02  1.6033848E-02
   8.60000  1.7246911E-02  4.6545408E-02  1.7630971E-02
   8.80000  1.7580532E-02  4.9888294E-02  1.9318099E-02
   9.00000  1.7880619E-02  5.2952012E-02  2.1089432E-02
   9.20000  1.8247669E-02  5.5624142E-02  2.2927566E-02
   9.40000  1.8750030E-02  5.7812069E-02  2.4800192E-02
   9.60000  1.9422719E-02  5.9443466E-02  2.6664991E-02
   9.80000  2.0275084E-02  6.0459803E-02  2.8478619E-02
   10.0000  2.1299055E-02  6.0811754E-02  3.0204838E-02
   10.2500  2.2789894E-02  6.0266749E-02  3.2203047E-02
   10.5000  2.4464205E-02  5.8632902E-02  3.4004557E-02
   10.7500  2.6256524E-02  5.6029595E-02  3.5611725E-02
   11.0000  2.8093513E-02  5.2695888E-02  3.7043268E-02
   11.2500  2.9899883E-02  4.8938946E-02  3.8325068E-02
   11.5000  3.1604996E-02  4.5059919E-02  3.9478873E-02
   11.7500  3.3150983E-02  4.1296972E-02  4.0510583E-02
   12.0000  3.4500570E-02  3.7805397E-02  4.1405271E-02
   12.2500  3.5639500E-02  3.4666565E-02  4.2131026E-02
   12.5000  3.6573588E-02  3.1907650E-02  4.2648999E-02
   12.7500  3.7323277E-02  2.9520829E-02  4.2926214E-02
   13.0000  3.7917429E-02  2.7478594E-02  4.2946656E-02
   13.2500  3.8387380E-02  2.5745079E-02  4.2718721E-02
   13.5000  3.8762692E-02  2.4283152E-02  4.2278413E-02
   13.7500  3.9068679E-02  2.3057714E-02  4.1684384E-02
   14.0000  3.9325273E-02  2.2036941E-02  4.1005394E-02
   14.2500  3.9547517E-02  2.1192761E-02  4.0307047E-02
   14.5000  3.9746391E-02  2.0500995E-02  3.9642615E-02
   14.7500  3.9928751E-02  1.9941227E-02  3.9048691E-02
   15.0000  4.0096695E-02  1.9496480E-02  3.8544802E-02
   15.2500  4.0247142E-02  1.9152783E-02  3.8135576E-02
   15.5000  4.0372038E-02  1.8898696E-02  3.7814109E-02
   15.7500  4.0459330E-02  1.8724861E-02  3.7565658E-02
   16.0000  4.0494587E-02  1.8623582E-02  3.7371129E-02
   16.2500  4.0463096E-02  1.8588473E-02  3.7210145E-02
   16.5000  4.0352174E-02  1.8614154E-02  3.7063530E-02
   16.7500  4.0153384E-02  1.8696011E-02  3.6915137E-02
   17.0000  3.9864312E-02  1.8830004E-02  3.6752934E-02
   17.2500  3.9489581E-02  1.9012531E-02  3.6569389E-02
   17.5000  3.9040907E-02  1.9240318E-02  3.6361238E-02
   17.7500  3.8536160E-02  1.9510354E-02  3.6128807E-02
   18.0000  3.7997646E-02  1.9819845E-02  3.5875105E-02
   18.2500  3.7449920E-02  2.0166188E-02  3.5604853E-02
   18.5000  3.6917549E-02  2.0546965E-02  3.5323598E-02
   18.7500  3.6423158E-02  2.0959948E-02  3.5036991E-02
   19.0000  3.5985965E-02  2.1403127E-02  3.4750243E-02
   19.2500  3.5620890E-02  2.1874769E-02  3.4467759E-02
   19.5000  3.5338162E-02  2.2373471E-02  3.4192921E-02
   19.7500  3.5143285E-02  2.2898140E-02  3.3928007E-02
   20.0000  3.5037251E-02  2.3447736E-02  3.3674277E-02
   21.0000  3.5394535E-02  2.5853954E-02  3.2775484E-02
   22.0000  3.6488492E-02  2.8453171E-02  3.2024466E-02
   23.0000  3.7381795E-02  3.0998750E-02  3.1320259E-02
   24.0000  3.7207310E-02  3.3146418E-02  3.0578994E-02
   25.0000  3.5702157E-02  3.4550272E-02  2.9793215E-02
   26.0000  3.3355149E-02  3.5032977E-02  2.9030323E-02
   27.0000  3.0887071E-02  3.4680076E-02  2.8363171E-02
   28.0000  2.8773330E-02  3.3739984E-02  2.7829545E-02
   29.0000  2.7159408E-02  3.2479987E-02  2.7429372E-02
   30.0000  2.5991135E-02  3.1106300E-02  2.7132671E-02
   31.0000  2.5148068E-02  2.9746461E-02  2.6888211E-02
   32.0000  2.4513158E-02  2.8463243E-02  2.6636711E-02
   33.0000  2.3994094E-02  2.7275792E-02  2.6326012E-02
   34.0000  2.3523691E-02  2.6178256E-02  2.5921551E-02
   35.0000  2.3056213E-02  2.5154594E-02  2.5411409E-02
   36.0000  2.2565957E-02  2.4190427E-02  2.4807793E-02
   37.0000  2.2048543E-02  2.3282229E-02  2.4144655E-02
   38.0000  2.1522570E-02  2.2443547E-02  2.3472162E-02
   39.0000  2.1028992E-02  2.1708490E-02  2.2852320E-02
   40.0000  2.0622484E-02  2.1126461E-02  2.2352289E-02
