    Energy   (100,001)      (010,001)      (001,110)   
  -25.0000  1.7353713E-04  1.8646296E-04  1.8145180E-04
  -24.0000  1.7972728E-04  1.9348880E-04  1.8801297E-04
  -23.0000  1.8633340E-04  2.0102001E-04  1.9502665E-04
  -22.0000  1.9339764E-04  2.0911187E-04  2.0254026E-04
  -21.0000  2.0096799E-04  2.1782786E-04  2.1060804E-04
  -20.0000  2.0909928E-04  2.2724131E-04  2.1929227E-04
  -19.0000  2.1785444E-04  2.3743734E-04  2.2866482E-04
  -18.0000  2.2730609E-04  2.4851530E-04  2.3880912E-04
  -17.0000  2.3753843E-04  2.6059186E-04  2.4982250E-04
  -16.0000  2.4864965E-04  2.7380489E-04  2.6181925E-04
  -15.0000  2.6075498E-04  2.8831847E-04  2.7493447E-04
  -14.0000  2.7399051E-04  3.0432936E-04  2.8932903E-04
  -13.0000  2.8851817E-04  3.2207545E-04  3.0519602E-04
  -12.0000  3.0453222E-04  3.4184701E-04  3.2276930E-04
  -11.0000  3.2226770E-04  3.6400176E-04  3.4233484E-04
  -10.0000  3.4201188E-04  3.8898542E-04  3.6424624E-04
  -9.00000  3.6411969E-04  4.1736024E-04  3.8894607E-04
  -8.00000  3.8903521E-04  4.4984535E-04  4.1699606E-04
  -7.00000  4.1732197E-04  4.8737485E-04  4.4912063E-04
  -6.00000  4.4970678E-04  5.3118389E-04  4.8627130E-04
  -5.00000  4.8714512E-04  5.8293940E-04  5.2972514E-04
  -4.00000  5.3092161E-04  6.4494544E-04  5.8124058E-04
  -3.00000  5.8281094E-04  7.2047841E-04  6.4331500E-04
  -2.00000  6.4534824E-04  8.1436066E-04  7.1963393E-04
  -1.00000  7.2231241E-04  9.3400125E-04  8.1590799E-04
   0.00000  8.1966116E-04  1.0914333E-03  9.4157205E-04
   1.00000  9.4754658E-04  1.3077305E-03  1.1136524E-03
   2.00000  1.1253799E-03  1.6240841E-03  1.3670950E-03
   3.00000  1.3978944E-03  2.1365203E-03  1.7897325E-03
   4.00000  1.9088734E-03  3.1518675E-03  2.6931442E-03
   5.00000  3.2817682E-03  5.9947971E-03  5.5237222E-03
   5.20000  3.6981706E-03  6.8849599E-03  6.3941172E-03
   5.40000  4.1065084E-03  7.7786843E-03  7.2102677E-03
   5.60000  4.4984858E-03  8.6568676E-03  7.9356038E-03
   5.80000  4.8848405E-03  9.5374417E-03  8.5806092E-03
   6.00000  5.2809495E-03  1.0448670E-02  9.1703524E-03
   6.20000  5.7007242E-03  1.1417103E-02  9.7309784E-03
   6.40000  6.1558641E-03  1.2465681E-02  1.0288826E-02
   6.60000  6.6563993E-03  1.3614759E-02  1.0872242E-02
   6.80000  7.2109985E-03  1.4883408E-02  1.1511644E-02
   7.00000  7.8267013E-03  1.6290655E-02  1.2236477E-02
   7.20000  8.5081032E-03  1.7856381E-02  1.3069291E-02
   7.40000  9.2561639E-03  1.9601074E-02  1.4018290E-02
   7.60000  1.0067023E-02  2.1544361E-02  1.5070804E-02
   7.80000  1.0931453E-02  2.3702648E-02  1.6190740E-02
   8.00000  1.1835672E-02  2.6085921E-02  1.7322843E-02
   8.20000  1.2763853E-02  2.8693989E-02  1.8404691E-02
   8.40000  1.3701739E-02  3.1512723E-02  1.9383522E-02
   8.60000  1.4640017E-02  3.4510618E-02  2.0231581E-02
   8.80000  1.5576030E-02  3.7636451E-02  2.0953247E-02
   9.00000  1.6513244E-02  4.0819154E-02  2.1581363E-02
   9.20000  1.7458999E-02  4.3970469E-02  2.2165742E-02
   9.40000  1.8421678E-02  4.6990072E-02  2.2759137E-02
   9.60000  1.9408202E-02  4.9771653E-02  2.3405377E-02
   9.80000  2.0422281E-02  5.2208245E-02  2.4132482E-02
   10.0000  2.1463394E-02  5.4196822E-02  2.4951191E-02
   10.2500  2.2794016E-02  5.5911997E-02  2.6096183E-02
   10.5000  2.4135753E-02  5.6646678E-02  2.7347494E-02
   10.7500  2.5454918E-02  5.6350811E-02  2.8661594E-02
   11.0000  2.6711002E-02  5.5083836E-02  2.9988092E-02
   11.2500  2.7863051E-02  5.3006688E-02  3.1273413E-02
   11.5000  2.8876005E-02  5.0345122E-02  3.2466186E-02
   11.7500  2.9725187E-02  4.7342181E-02  3.3524431E-02
   12.0000  3.0399201E-02  4.4217872E-02  3.4419397E-02
   12.2500  3.0901949E-02  4.1145062E-02  3.5136387E-02
   12.5000  3.1251756E-02  3.8242203E-02  3.5675766E-02
   12.7500  3.1477843E-02  3.5578393E-02  3.6053910E-02
   13.0000  3.1616552E-02  3.3184723E-02  3.6301175E-02
   13.2500  3.1707358E-02  3.1066361E-02  3.6455687E-02
   13.5000  3.1788641E-02  2.9212495E-02  3.6555955E-02
   13.7500  3.1894337E-02  2.7603710E-02  3.6636050E-02
   14.0000  3.2051907E-02  2.6216998E-02  3.6723256E-02
   14.2500  3.2281410E-02  2.5028817E-02  3.6836776E-02
   14.5000  3.2595446E-02  2.4016771E-02  3.6987090E-02
   14.7500  3.2999728E-02  2.3160425E-02  3.7176032E-02
   15.0000  3.3493961E-02  2.2441589E-02  3.7397550E-02
   15.2500  3.4072818E-02  2.1844332E-02  3.7639034E-02
   15.5000  3.4726842E-02  2.1354835E-02  3.7883129E-02
   15.7500  3.5443263E-02  2.0961188E-02  3.8109899E-02
   16.0000  3.6206744E-02  2.0653168E-02  3.8299190E-02
   16.2500  3.7000129E-02  2.0422017E-02  3.8432930E-02
   16.5000  3.7805239E-02  2.0260248E-02  3.8497086E-02
   16.7500  3.8603727E-02  2.0161466E-02  3.8482992E-02
   17.0000  3.9377978E-02  2.0120202E-02  3.8387887E-02
   17.2500  4.0112000E-02  2.0131777E-02  3.8214648E-02
   17.5000  4.0792219E-02  2.0192176E-02  3.7970858E-02
   17.7500  4.1408086E-02  2.0297938E-02  3.7667469E-02
   18.0000  4.1952430E-02  2.0446067E-02  3.7317332E-02
   18.2500  4.2421500E-02  2.0633959E-02  3.6933849E-02
   18.5000  4.2814704E-02  2.0859345E-02  3.6529877E-02
   18.7500  4.3134085E-02  2.1120244E-02  3.6116950E-02
   19.0000  4.3383602E-02  2.1414945E-02  3.5704812E-02
   19.2500  4.3568322E-02  2.1742003E-02  3.5301185E-02
   19.5000  4.3693609E-02  2.2100242E-02  3.4911721E-02
   19.7500  4.3764404E-02  2.2488705E-02  3.4540106E-02
   20.0000  4.3784665E-02  2.2906423E-02  3.4188381E-02
   21.0000  4.3391769E-02  2.4832768E-02  3.2991084E-02
   22.0000  4.2182145E-02  2.7046981E-02  3.2095101E-02
   23.0000  4.0049983E-02  2.9345185E-02  3.1389662E-02
   24.0000  3.7168182E-02  3.1460070E-02  3.0760061E-02
   25.0000  3.4029638E-02  3.3128621E-02  3.0130289E-02
   26.0000  3.1146267E-02  3.4193345E-02  2.9477286E-02
   27.0000  2.8790074E-02  3.4649320E-02  2.8820089E-02
   28.0000  2.6988904E-02  3.4606067E-02  2.8192334E-02
   29.0000  2.5662328E-02  3.4212911E-02  2.7624074E-02
   30.0000  2.4723336E-02  3.3602357E-02  2.7140101E-02
   31.0000  2.4100555E-02  3.2868369E-02  2.6758198E-02
   32.0000  2.3725533E-02  3.2075421E-02  2.6480737E-02
   33.0000  2.3529731E-02  3.1267965E-02  2.6290803E-02
   34.0000  2.3459902E-02  3.0457156E-02  2.6159794E-02
   35.0000  2.3476596E-02  2.9636303E-02  2.6057462E-02
   36.0000  2.3545003E-02  2.8799637E-02  2.5957866E-02
   37.0000  2.3630280E-02  2.7951307E-02  2.5841472E-02
   38.0000  2.3699739E-02  2.7113628E-02  2.5697825E-02
   39.0000  2.3732674E-02  2.6337070E-02  2.5533420E-02
   40.0000  2.3732888E-02  2.5701337E-02  2.5378529E-02
