    Energy   (100,001)      (010,001)      (001,110)   
  -25.0000  1.6361037E-04  1.7673409E-04  1.7574939E-04
  -24.0000  1.6967309E-04  1.8375237E-04  1.8225038E-04
  -23.0000  1.7614971E-04  1.9129264E-04  1.8920234E-04
  -22.0000  1.8308233E-04  1.9941324E-04  1.9665230E-04
  -21.0000  1.9051886E-04  2.0818139E-04  2.0465396E-04
  -20.0000  1.9851402E-04  2.1767487E-04  2.1326890E-04
  -19.0000  2.0713057E-04  2.2798418E-04  2.2256802E-04
  -18.0000  2.1644089E-04  2.3921517E-04  2.3263346E-04
  -17.0000  2.2652883E-04  2.5149244E-04  2.4356077E-04
  -16.0000  2.3749205E-04  2.6496357E-04  2.5546183E-04
  -15.0000  2.4944503E-04  2.7980465E-04  2.6846844E-04
  -14.0000  2.6252279E-04  2.9622732E-04  2.8273692E-04
  -13.0000  2.7688571E-04  3.1448815E-04  2.9845406E-04
  -12.0000  2.9272577E-04  3.3490096E-04  3.1584486E-04
  -11.0000  3.1027473E-04  3.5785349E-04  3.3518280E-04
  -10.0000  3.2981507E-04  3.8383013E-04  3.5680356E-04
  -9.00000  3.5169469E-04  4.1344349E-04  3.8112375E-04
  -8.00000  3.7634721E-04  4.4747905E-04  4.0866683E-04
  -7.00000  4.0432045E-04  4.8695966E-04  4.4009973E-04
  -6.00000  4.3631735E-04  5.3324091E-04  4.7628586E-04
  -5.00000  4.7325633E-04  5.8815602E-04  5.1836366E-04
  -4.00000  5.1636340E-04  6.5424311E-04  5.6786705E-04
  -3.00000  5.6731792E-04  7.3511511E-04  6.2691652E-04
  -2.00000  6.2849498E-04  8.3608991E-04  6.9853681E-04
  -1.00000  7.0339298E-04  9.6532541E-04  7.8721569E-04
   0.00000  7.9744976E-04  1.1360169E-03  8.9996189E-04
   1.00000  9.1977483E-04  1.3710815E-03  1.0485208E-03
   2.00000  1.0874228E-03  1.7146177E-03  1.2547391E-03
   3.00000  1.3386159E-03  2.2665406E-03  1.5668221E-03
   4.00000  1.7912628E-03  3.3308223E-03  2.1303454E-03
   5.00000  2.9542942E-03  6.1741103E-03  3.5530641E-03
   5.20000  3.3285765E-03  7.0833991E-03  3.9911634E-03
   5.40000  3.7235107E-03  8.0341074E-03  4.4355756E-03
   5.60000  4.1304049E-03  9.0132043E-03  4.8763251E-03
   5.80000  4.5466307E-03  1.0037599E-02  5.3198438E-03
   6.00000  4.9676441E-03  1.1133395E-02  5.7781611E-03
   6.20000  5.3867896E-03  1.2326304E-02  6.2639696E-03
   6.40000  5.7998105E-03  1.3639707E-02  6.7898075E-03
   6.60000  6.2082262E-03  1.5094648E-02  7.3684415E-03
   6.80000  6.6190609E-03  1.6710029E-02  8.0134720E-03
   7.00000  7.0422654E-03  1.8502950E-02  8.7400040E-03
   7.20000  7.4881099E-03  2.0489396E-02  9.5652468E-03
   7.40000  7.9655829E-03  2.2685673E-02  1.0508669E-02
   7.60000  8.4817817E-03  2.5110300E-02  1.1591197E-02
   7.80000  9.0420136E-03  2.7784590E-02  1.2832894E-02
   8.00000  9.6503333E-03  3.0730379E-02  1.4248618E-02
   8.20000  1.0310351E-02  3.3964577E-02  1.5841629E-02
   8.40000  1.1026224E-02  3.7491747E-02  1.7596113E-02
   8.60000  1.1803616E-02  4.1296519E-02  1.9470988E-02
   8.80000  1.2650242E-02  4.5336348E-02  2.1398902E-02
   9.00000  1.3575585E-02  4.9533560E-02  2.3295052E-02
   9.20000  1.4589679E-02  5.3766148E-02  2.5077682E-02
   9.40000  1.5701318E-02  5.7858974E-02  2.6694000E-02
   9.60000  1.6916227E-02  6.1580372E-02  2.8137504E-02
   9.80000  1.8235437E-02  6.4653965E-02  2.9445647E-02
   10.0000  1.9653799E-02  6.6795666E-02  3.0679925E-02
   10.2500  2.1545967E-02  6.7820424E-02  3.2209830E-02
   10.5000  2.3529165E-02  6.6854721E-02  3.3792588E-02
   10.7500  2.5540821E-02  6.4093290E-02  3.5435742E-02
   11.0000  2.7504831E-02  6.0028805E-02  3.7083845E-02
   11.2500  2.9343065E-02  5.5259465E-02  3.8641357E-02
   11.5000  3.0989356E-02  5.0312351E-02  4.0001559E-02
   11.7500  3.2399176E-02  4.5559111E-02  4.1072877E-02
   12.0000  3.3553787E-02  4.1214714E-02  4.1798602E-02
   12.2500  3.4461007E-02  3.7372764E-02  4.2162892E-02
   12.5000  3.5150818E-02  3.4046891E-02  4.2182966E-02
   12.7500  3.5666744E-02  3.1206327E-02  4.1899551E-02
   13.0000  3.6057545E-02  2.8800520E-02  4.1371016E-02
   13.2500  3.6371265E-02  2.6773455E-02  4.0667264E-02
   13.5000  3.6651335E-02  2.5071095E-02  3.9862139E-02
   13.7500  3.6933764E-02  2.3644862E-02  3.9025912E-02
   14.0000  3.7245450E-02  2.2452983E-02  3.8219110E-02
   14.2500  3.7604261E-02  2.1460508E-02  3.7488966E-02
   14.5000  3.8020220E-02  2.0638602E-02  3.6868633E-02
   14.7500  3.8496732E-02  1.9963606E-02  3.6378144E-02
   15.0000  3.9031437E-02  1.9416132E-02  3.6026066E-02
   15.2500  3.9616731E-02  1.8980284E-02  3.5811246E-02
   15.5000  4.0240109E-02  1.8642992E-02  3.5724384E-02
   15.7500  4.0884472E-02  1.8393475E-02  3.5749436E-02
   16.0000  4.1528571E-02  1.8222800E-02  3.5864967E-02
   16.2500  4.2147751E-02  1.8123520E-02  3.6045617E-02
   16.5000  4.2715146E-02  1.8089378E-02  3.6263793E-02
   16.7500  4.3203387E-02  1.8115063E-02  3.6491618E-02
   17.0000  4.3586760E-02  1.8196010E-02  3.6702996E-02
   17.2500  4.3843607E-02  1.8328238E-02  3.6875560E-02
   17.5000  4.3958639E-02  1.8508219E-02  3.6992206E-02
   17.7500  4.3924744E-02  1.8732771E-02  3.7041977E-02
   18.0000  4.3743917E-02  1.8998990E-02  3.7020176E-02
   18.2500  4.3427095E-02  1.9304196E-02  3.6927772E-02
   18.5000  4.2992897E-02  1.9645916E-02  3.6770281E-02
   18.7500  4.2465511E-02  2.0021879E-02  3.6556370E-02
   19.0000  4.1872095E-02  2.0430039E-02  3.6296430E-02
   19.2500  4.1240124E-02  2.0868627E-02  3.6001285E-02
   19.5000  4.0595036E-02  2.1336187E-02  3.5681170E-02
   19.7500  3.9958530E-02  2.1831545E-02  3.5345044E-02
   20.0000  3.9347858E-02  2.2353543E-02  3.5000379E-02
   21.0000  3.7383142E-02  2.4663986E-02  3.3648404E-02
   22.0000  3.6345060E-02  2.7191824E-02  3.2483648E-02
   23.0000  3.5939122E-02  2.9725692E-02  3.1521387E-02
   24.0000  3.5579260E-02  3.2004427E-02  3.0689787E-02
   25.0000  3.4729509E-02  3.3750105E-02  2.9916628E-02
   26.0000  3.3225268E-02  3.4746614E-02  2.9178738E-02
   27.0000  3.1350855E-02  3.4936606E-02  2.8518882E-02
   28.0000  2.9527230E-02  3.4454680E-02  2.8002906E-02
   29.0000  2.8028686E-02  3.3533605E-02  2.7677775E-02
   30.0000  2.6918902E-02  3.2391722E-02  2.7541211E-02
   31.0000  2.6127154E-02  3.1177716E-02  2.7537423E-02
   32.0000  2.5540060E-02  2.9969320E-02  2.7581859E-02
   33.0000  2.5052437E-02  2.8795123E-02  2.7591279E-02
   34.0000  2.4584133E-02  2.7657733E-02  2.7499925E-02
   35.0000  2.4081795E-02  2.6551554E-02  2.7261843E-02
   36.0000  2.3517544E-02  2.5475025E-02  2.6849980E-02
   37.0000  2.2889388E-02  2.4438229E-02  2.6260268E-02
   38.0000  2.2224626E-02  2.3467643E-02  2.5524186E-02
   39.0000  2.1583006E-02  2.2610070E-02  2.4728838E-02
   40.0000  2.1047369E-02  2.1928905E-02  2.4022277E-02
