    Energy   (100,001)      (010,001)      (001,110)   
  -25.0000  1.6874004E-04  1.7996977E-04  1.8133526E-04
  -24.0000  1.7478448E-04  1.8692749E-04  1.8779212E-04
  -23.0000  1.8123227E-04  1.9439326E-04  1.9468440E-04
  -22.0000  1.8812381E-04  2.0242313E-04  2.0205651E-04
  -21.0000  1.9550502E-04  2.1108157E-04  2.0995907E-04
  -20.0000  2.0342830E-04  2.2044307E-04  2.1844998E-04
  -19.0000  2.1195366E-04  2.3059420E-04  2.2759577E-04
  -18.0000  2.2115025E-04  2.4163607E-04  2.3747330E-04
  -17.0000  2.3109804E-04  2.5368749E-04  2.4817179E-04
  -16.0000  2.4189014E-04  2.6688902E-04  2.5979547E-04
  -15.0000  2.5363550E-04  2.8140808E-04  2.7246678E-04
  -14.0000  2.6646253E-04  2.9744559E-04  2.8633058E-04
  -13.0000  2.8052359E-04  3.1524473E-04  3.0155955E-04
  -12.0000  2.9600092E-04  3.3510250E-04  3.1836114E-04
  -11.0000  3.1311434E-04  3.5738524E-04  3.3698688E-04
  -10.0000  3.3213161E-04  3.8254993E-04  3.5774481E-04
  -9.00000  3.5338236E-04  4.1117365E-04  3.8101633E-04
  -8.00000  3.7727740E-04  4.4399533E-04  4.0727976E-04
  -7.00000  4.0433579E-04  4.8197604E-04  4.3714359E-04
  -6.00000  4.3522398E-04  5.2638835E-04  4.7139483E-04
  -5.00000  4.7081377E-04  5.7895239E-04  5.1107117E-04
  -4.00000  5.1227126E-04  6.4205011E-04  5.5757262E-04
  -3.00000  5.6119877E-04  7.1907611E-04  6.1284095E-04
  -2.00000  6.1987308E-04  8.1504054E-04  6.7966346E-04
  -1.00000  6.9167137E-04  9.3766911E-04  7.6222031E-04
   0.00000  7.8189842E-04  1.0995728E-03  8.6715655E-04
   1.00000  8.9958361E-04  1.3230018E-03  1.0059301E-03
   2.00000  1.0620574E-03  1.6519471E-03  1.2008427E-03
   3.00000  1.3097457E-03  2.1908480E-03  1.5047094E-03
   4.00000  1.7755575E-03  3.2828402E-03  2.0939628E-03
   5.00000  3.0534148E-03  6.4442942E-03  3.7650225E-03
   5.20000  3.4463150E-03  7.4320899E-03  4.2798114E-03
   5.40000  3.8287619E-03  8.4054554E-03  4.7756145E-03
   5.60000  4.1853771E-03  9.3339468E-03  5.2298960E-03
   5.80000  4.5191596E-03  1.0231046E-02  5.6454109E-03
   6.00000  4.8404399E-03  1.1123755E-02  6.0351329E-03
   6.20000  5.1611505E-03  1.2038766E-02  6.4144357E-03
   6.40000  5.4927340E-03  1.3000063E-02  6.7985684E-03
   6.60000  5.8451368E-03  1.4029689E-02  7.2018975E-03
   6.80000  6.2262065E-03  1.5148932E-02  7.6377153E-03
   7.00000  6.6414555E-03  1.6379524E-02  8.1183256E-03
   7.20000  7.0942417E-03  1.7744756E-02  8.6552837E-03
   7.40000  7.5863444E-03  1.9270402E-02  9.2594965E-03
   7.60000  8.1187897E-03  2.0985292E-02  9.9408996E-03
   7.80000  8.6926718E-03  2.2921314E-02  1.0707702E-02
   8.00000  9.3096975E-03  2.5112550E-02  1.1565409E-02
   8.20000  9.9722819E-03  2.7593119E-02  1.2515935E-02
   8.40000  1.0683179E-02  3.0393086E-02  1.3557128E-02
   8.60000  1.1444777E-02  3.3531621E-02  1.4682919E-02
   8.80000  1.2258302E-02  3.7006740E-02  1.5884188E-02
   9.00000  1.3123237E-02  4.0781941E-02  1.7150253E-02
   9.20000  1.4037267E-02  4.4771951E-02  1.8470659E-02
   9.40000  1.4996866E-02  4.8832206E-02  1.9836712E-02
   9.60000  1.5998275E-02  5.2757589E-02  2.1241802E-02
   9.80000  1.7038426E-02  5.6295156E-02  2.2679906E-02
   10.0000  1.8115854E-02  5.9175843E-02  2.4143105E-02
   10.2500  1.9516194E-02  6.1502975E-02  2.5987930E-02
   10.5000  2.0978625E-02  6.2189316E-02  2.7813220E-02
   10.7500  2.2499361E-02  6.1279674E-02  2.9563368E-02
   11.0000  2.4058398E-02  5.9072621E-02  3.1172427E-02
   11.2500  2.5614406E-02  5.5985945E-02  3.2576760E-02
   11.5000  2.7109876E-02  5.2423976E-02  3.3730898E-02
   11.7500  2.8484961E-02  4.8703761E-02  3.4619004E-02
   12.0000  2.9691848E-02  4.5041317E-02  3.5255453E-02
   12.2500  3.0705453E-02  4.1569030E-02  3.5677128E-02
   12.5000  3.1528006E-02  3.8359952E-02  3.5932787E-02
   12.7500  3.2185343E-02  3.5449002E-02  3.6073168E-02
   13.0000  3.2717456E-02  3.2847878E-02  3.6144433E-02
   13.2500  3.3169017E-02  3.0553652E-02  3.6185296E-02
   13.5000  3.3582378E-02  2.8553444E-02  3.6226535E-02
   13.7500  3.3993104E-02  2.6827572E-02  3.6291592E-02
   14.0000  3.4427749E-02  2.5352184E-02  3.6397482E-02
   14.2500  3.4903396E-02  2.4101553E-02  3.6555605E-02
   14.5000  3.5428276E-02  2.3049940E-02  3.6772340E-02
   14.7500  3.6002877E-02  2.2172923E-02  3.7049439E-02
   15.0000  3.6621186E-02  2.1448217E-02  3.7384284E-02
   15.2500  3.7271870E-02  2.0856053E-02  3.7770087E-02
   15.5000  3.7939381E-02  2.0379253E-02  3.8196136E-02
   15.7500  3.8605030E-02  2.0003121E-02  3.8648144E-02
   16.0000  3.9248090E-02  1.9715250E-02  3.9108831E-02
   16.2500  3.9846942E-02  1.9505295E-02  3.9558768E-02
   16.5000  4.0380299E-02  1.9364738E-02  3.9977553E-02
   16.7500  4.0828438E-02  1.9286664E-02  4.0345231E-02
   17.0000  4.1174419E-02  1.9265530E-02  4.0643833E-02
   17.2500  4.1405197E-02  1.9296942E-02  4.0858826E-02
   17.5000  4.1512548E-02  1.9377432E-02  4.0980240E-02
   17.7500  4.1493721E-02  1.9504239E-02  4.1003298E-02
   18.0000  4.1351739E-02  1.9675115E-02  4.0928480E-02
   18.2500  4.1095275E-02  1.9888141E-02  4.0761030E-02
   18.5000  4.0738094E-02  2.0141597E-02  4.0510051E-02
   18.7500  4.0298078E-02  2.0433858E-02  4.0187367E-02
   19.0000  3.9795902E-02  2.0763355E-02  3.9806300E-02
   19.2500  3.9253477E-02  2.1128578E-02  3.9380512E-02
   19.5000  3.8692343E-02  2.1528114E-02  3.8923012E-02
   19.7500  3.8132270E-02  2.1960620E-02  3.8445451E-02
   20.0000  3.7590489E-02  2.2424611E-02  3.7957918E-02
   21.0000  3.5872274E-02  2.4542895E-02  3.6073938E-02
   22.0000  3.5187610E-02  2.6919665E-02  3.4536335E-02
   23.0000  3.5405207E-02  2.9311659E-02  3.3389378E-02
   24.0000  3.6021550E-02  3.1443178E-02  3.2500458E-02
   25.0000  3.6450380E-02  3.3074931E-02  3.1702260E-02
   26.0000  3.6276328E-02  3.4076917E-02  3.0888789E-02
   27.0000  3.5431182E-02  3.4450844E-02  3.0060128E-02
   28.0000  3.4126890E-02  3.4305748E-02  2.9288039E-02
   29.0000  3.2667289E-02  3.3792873E-02  2.8657762E-02
   30.0000  3.1282212E-02  3.3056357E-02  2.8215128E-02
   31.0000  3.0073340E-02  3.2206026E-02  2.7948806E-02
   32.0000  2.9045231E-02  3.1306633E-02  2.7808263E-02
   33.0000  2.8155571E-02  3.0383376E-02  2.7730989E-02
   34.0000  2.7351924E-02  2.9436177E-02  2.7659943E-02
   35.0000  2.6591377E-02  2.8455834E-02  2.7549345E-02
   36.0000  2.5848481E-02  2.7438845E-02  2.7365283E-02
   37.0000  2.5117100E-02  2.6399338E-02  2.7087809E-02
   38.0000  2.4411042E-02  2.5377097E-02  2.6718843E-02
   39.0000  2.3766804E-02  2.4442012E-02  2.6297287E-02
   40.0000  2.3241744E-02  2.3686700E-02  2.5908024E-02
