    Energy   (100,001)      (010,001)      (001,110)   
  -25.0000  1.7426739E-04  1.9334727E-04  1.8232554E-04
  -24.0000  1.8064841E-04  2.0036776E-04  1.8904158E-04
  -23.0000  1.8746909E-04  2.0788154E-04  1.9622968E-04
  -22.0000  1.9477510E-04  2.1594175E-04  2.0394027E-04
  -21.0000  2.0261857E-04  2.2460932E-04  2.1223117E-04
  -20.0000  2.1105923E-04  2.3395455E-04  2.2116898E-04
  -19.0000  2.2016593E-04  2.4405892E-04  2.3083078E-04
  -18.0000  2.3001831E-04  2.5501738E-04  2.4130629E-04
  -17.0000  2.4070912E-04  2.6694128E-04  2.5270059E-04
  -16.0000  2.5234692E-04  2.7996197E-04  2.6513750E-04
  -15.0000  2.6505961E-04  2.9423557E-04  2.7876395E-04
  -14.0000  2.7899897E-04  3.0994896E-04  2.9375571E-04
  -13.0000  2.9434640E-04  3.2732773E-04  3.1032475E-04
  -12.0000  3.1132062E-04  3.4664669E-04  3.2872916E-04
  -11.0000  3.3018767E-04  3.6824395E-04  3.4928642E-04
  -10.0000  3.5127454E-04  3.9254010E-04  3.7239164E-04
  -9.00000  3.7498768E-04  4.2006486E-04  3.9854303E-04
  -8.00000  4.0183890E-04  4.5149463E-04  4.2837824E-04
  -7.00000  4.3248204E-04  4.8770682E-04  4.6272741E-04
  -6.00000  4.6776654E-04  5.2986009E-04  5.0269291E-04
  -5.00000  5.0881757E-04  5.7951651E-04  5.4977321E-04
  -4.00000  5.5715997E-04  6.3883391E-04  6.0606262E-04
  -3.00000  6.1491782E-04  7.1088072E-04  6.7458914E-04
  -2.00000  6.8515118E-04  8.0017745E-04  7.5991884E-04
  -1.00000  7.7245978E-04  9.1368617E-04  8.6931724E-04
   0.00000  8.8415302E-04  1.0627669E-03  1.0151942E-03
   1.00000  1.0327687E-03  1.2674795E-03  1.2209143E-03
   2.00000  1.2423711E-03  1.5675817E-03  1.5371268E-03
   3.00000  1.5683192E-03  2.0578765E-03  2.1004242E-03
   4.00000  2.1864927E-03  3.0516760E-03  3.4387212E-03
   5.00000  3.8589442E-03  5.9340139E-03  8.1254088E-03
   5.20000  4.3813840E-03  6.8294655E-03  9.5045039E-03
   5.40000  4.9079096E-03  7.7090927E-03  1.0645726E-02
   5.60000  5.4250062E-03  8.5506312E-03  1.1454714E-02
   5.80000  5.9381706E-03  9.3735050E-03  1.1975374E-02
   6.00000  6.4585026E-03  1.0207661E-02  1.2309972E-02
   6.20000  6.9978254E-03  1.1079193E-02  1.2561244E-02
   6.40000  7.5684986E-03  1.2008104E-02  1.2808913E-02
   6.60000  8.1838251E-03  1.3010110E-02  1.3106024E-02
   6.80000  8.8581002E-03  1.4099057E-02  1.3482738E-02
   7.00000  9.6062920E-03  1.5288595E-02  1.3951550E-02
   7.20000  1.0443246E-02  1.6592483E-02  1.4512186E-02
   7.40000  1.1382180E-02  1.8023272E-02  1.5156077E-02
   7.60000  1.2432305E-02  1.9589532E-02  1.5870806E-02
   7.80000  1.3595720E-02  2.1292294E-02  1.6644675E-02
   8.00000  1.4864304E-02  2.3122266E-02  1.7470852E-02
   8.20000  1.6218222E-02  2.5060273E-02  1.8349853E-02
   8.40000  1.7628117E-02  2.7082582E-02  1.9289263E-02
   8.60000  1.9061811E-02  2.9169604E-02  2.0300672E-02
   8.80000  2.0493191E-02  3.1312845E-02  2.1394743E-02
   9.00000  2.1908201E-02  3.3514441E-02  2.2576009E-02
   9.20000  2.3303689E-02  3.5778092E-02  2.3839051E-02
   9.40000  2.4679976E-02  3.8095999E-02  2.5166790E-02
   9.60000  2.6032172E-02  4.0438540E-02  2.6530841E-02
   9.80000  2.7344794E-02  4.2751520E-02  2.7893867E-02
   10.0000  2.8591752E-02  4.4961330E-02  2.9213401E-02
   10.2500  3.0009029E-02  4.7450288E-02  3.0737106E-02
   10.5000  3.1214416E-02  4.9480746E-02  3.2058784E-02
   10.7500  3.2170726E-02  5.0905835E-02  3.3143727E-02
   11.0000  3.2871189E-02  5.1621951E-02  3.3994955E-02
   11.2500  3.3336347E-02  5.1587024E-02  3.4643999E-02
   11.5000  3.3605132E-02  5.0826192E-02  3.5135468E-02
   11.7500  3.3726388E-02  4.9425321E-02  3.5514214E-02
   12.0000  3.3751555E-02  4.7515594E-02  3.5818492E-02
   12.2500  3.3728588E-02  4.5252799E-02  3.6076332E-02
   12.5000  3.3698264E-02  4.2795607E-02  3.6300957E-02
   12.7500  3.3692555E-02  4.0287102E-02  3.6488538E-02
   13.0000  3.3734639E-02  3.7842258E-02  3.6624100E-02
   13.2500  3.3839058E-02  3.5542213E-02  3.6692928E-02
   13.5000  3.4012421E-02  3.3434937E-02  3.6690007E-02
   13.7500  3.4255534E-02  3.1541137E-02  3.6622798E-02
   14.0000  3.4565573E-02  2.9862371E-02  3.6508500E-02
   14.2500  3.4937101E-02  2.8388470E-02  3.6369231E-02
   14.5000  3.5362114E-02  2.7103123E-02  3.6227357E-02
   14.7500  3.5829746E-02  2.5987631E-02  3.6101930E-02
   15.0000  3.6326062E-02  2.5023195E-02  3.6006503E-02
   15.2500  3.6834178E-02  2.4192179E-02  3.5948191E-02
   15.5000  3.7334804E-02  2.3478712E-02  3.5927678E-02
   15.7500  3.7807216E-02  2.2868898E-02  3.5939924E-02
   16.0000  3.8230602E-02  2.2350824E-02  3.5975326E-02
   16.2500  3.8585618E-02  2.1914460E-02  3.6021183E-02
   16.5000  3.8856003E-02  2.1551514E-02  3.6063350E-02
   16.7500  3.9029996E-02  2.1255256E-02  3.6087918E-02
   17.0000  3.9101381E-02  2.1020321E-02  3.6082762E-02
   17.2500  3.9069953E-02  2.0842497E-02  3.6038778E-02
   17.5000  3.8941357E-02  2.0718484E-02  3.5950647E-02
   17.7500  3.8726303E-02  2.0645672E-02  3.5817051E-02
   18.0000  3.8439308E-02  2.0621914E-02  3.5640374E-02
   18.2500  3.8097168E-02  2.0645339E-02  3.5425980E-02
   18.5000  3.7717417E-02  2.0714212E-02  3.5181271E-02
   18.7500  3.7316949E-02  2.0826838E-02  3.4914675E-02
   19.0000  3.6910940E-02  2.0981529E-02  3.4634730E-02
   19.2500  3.6512125E-02  2.1176617E-02  3.4349343E-02
   19.5000  3.6130395E-02  2.1410492E-02  3.4065248E-02
   19.7500  3.5772708E-02  2.1681608E-02  3.3787713E-02
   20.0000  3.5443346E-02  2.1988353E-02  3.3520541E-02
   21.0000  3.4434728E-02  2.3526181E-02  3.2597022E-02
   22.0000  3.3862917E-02  2.5440542E-02  3.1916945E-02
   23.0000  3.3534404E-02  2.7560328E-02  3.1385343E-02
   24.0000  3.3223977E-02  2.9672762E-02  3.0870053E-02
   25.0000  3.2737807E-02  3.1541660E-02  3.0265688E-02
   26.0000  3.1976961E-02  3.2973680E-02  2.9526233E-02
   27.0000  3.0976347E-02  3.3884314E-02  2.8679542E-02
   28.0000  2.9853898E-02  3.4309771E-02  2.7814206E-02
   29.0000  2.8722144E-02  3.4360437E-02  2.7035501E-02
   30.0000  2.7658234E-02  3.4158011E-02  2.6416925E-02
   31.0000  2.6718628E-02  3.3797447E-02  2.5980431E-02
   32.0000  2.5936436E-02  3.3350860E-02  2.5706806E-02
   33.0000  2.5309555E-02  3.2873976E-02  2.5553807E-02
   34.0000  2.4812240E-02  3.2376979E-02  2.5469872E-02
   35.0000  2.4411485E-02  3.1840879E-02  2.5407701E-02
   36.0000  2.4078524E-02  3.1244699E-02  2.5333438E-02
   37.0000  2.3795779E-02  3.0580714E-02  2.5230887E-02
   38.0000  2.3557842E-02  2.9867667E-02  2.5102141E-02
   39.0000  2.3366696E-02  2.9164021E-02  2.4964719E-02
   40.0000  2.3223625E-02  2.8568638E-02  2.4844491E-02
