    Energy   (100,001)      (010,001)      (001,110)   
  -25.0000  1.7434809E-04  1.8179881E-04  1.8718493E-04
  -24.0000  1.8072975E-04  1.8884857E-04  1.9392765E-04
  -23.0000  1.8755152E-04  1.9641507E-04  2.0113800E-04
  -22.0000  1.9485931E-04  2.0455553E-04  2.0886551E-04
  -21.0000  2.0270555E-04  2.1333580E-04  2.1716692E-04
  -20.0000  2.1115040E-04  2.2283204E-04  2.2610749E-04
  -19.0000  2.2026329E-04  2.3313275E-04  2.3576270E-04
  -18.0000  2.3012467E-04  2.4434137E-04  2.4622030E-04
  -17.0000  2.4082835E-04  2.5657954E-04  2.5758289E-04
  -16.0000  2.5248441E-04  2.6999122E-04  2.6997121E-04
  -15.0000  2.6522283E-04  2.8474796E-04  2.8352832E-04
  -14.0000  2.7919827E-04  3.0105581E-04  2.9842498E-04
  -13.0000  2.9459621E-04  3.1916426E-04  3.1486671E-04
  -12.0000  3.1164106E-04  3.3937818E-04  3.3310305E-04
  -11.0000  3.3060707E-04  3.6207390E-04  3.5344006E-04
  -10.0000  3.5183301E-04  3.8772101E-04  3.7625727E-04
  -9.00000  3.7574261E-04  4.1691286E-04  4.0203117E-04
  -8.00000  4.0287324E-04  4.5040941E-04  4.3136839E-04
  -7.00000  4.3391735E-04  4.8919932E-04  4.6505358E-04
  -6.00000  4.6978373E-04  5.3459159E-04  5.0412046E-04
  -5.00000  5.1169080E-04  5.8835487E-04  5.4996003E-04
  -4.00000  5.6131394E-04  6.5293594E-04  6.0449174E-04
  -3.00000  6.2102755E-04  7.3181554E-04  6.7044533E-04
  -2.00000  6.9432351E-04  8.3011507E-04  7.5184938E-04
  -1.00000  7.8658013E-04  9.5569155E-04  8.5493359E-04
   0.00000  9.0658949E-04  1.1212630E-03  9.8993694E-04
   1.00000  1.0699171E-03  1.3489596E-03  1.1751501E-03
   2.00000  1.3074094E-03  1.6815333E-03  1.4474515E-03
   3.00000  1.6917149E-03  2.2165889E-03  1.8968645E-03
   4.00000  2.4522573E-03  3.2552066E-03  2.8291861E-03
   5.00000  4.5917586E-03  6.0658432E-03  5.6265546E-03
   5.20000  5.3267369E-03  6.9596347E-03  6.5059933E-03
   5.40000  6.1357312E-03  7.8833420E-03  7.3703603E-03
   5.60000  7.0065116E-03  8.8214111E-03  8.1936325E-03
   5.80000  7.9371700E-03  9.7899231E-03  8.9882330E-03
   6.00000  8.9252501E-03  1.0814715E-02  9.7753652E-03
   6.20000  9.9655036E-03  1.1921253E-02  1.0572877E-02
   6.40000  1.1053716E-02  1.3132810E-02  1.1395310E-02
   6.60000  1.2190847E-02  1.4471040E-02  1.2257124E-02
   6.80000  1.3383230E-02  1.5956707E-02  1.3174559E-02
   7.00000  1.4636836E-02  1.7610092E-02  1.4164392E-02
   7.20000  1.5946366E-02  1.9451159E-02  1.5239893E-02
   7.40000  1.7282209E-02  2.1499794E-02  1.6405711E-02
   7.60000  1.8579576E-02  2.3776068E-02  1.7653576E-02
   7.80000  1.9737032E-02  2.6299762E-02  1.8960971E-02
   8.00000  2.0634697E-02  2.9088708E-02  2.0295329E-02
   8.20000  2.1175429E-02  3.2155534E-02  2.1624552E-02
   8.40000  2.1331668E-02  3.5501971E-02  2.2929495E-02
   8.60000  2.1165387E-02  3.9109943E-02  2.4209533E-02
   8.80000  2.0803885E-02  4.2929978E-02  2.5475874E-02
   9.00000  2.0389811E-02  4.6869943E-02  2.6737240E-02
   9.20000  2.0039138E-02  5.0789014E-02  2.7988209E-02
   9.40000  1.9824485E-02  5.4501531E-02  2.9206744E-02
   9.60000  1.9779174E-02  5.7792919E-02  3.0360436E-02
   9.80000  1.9909653E-02  6.0446310E-02  3.1416907E-02
   10.0000  2.0207282E-02  6.2274845E-02  3.2353381E-02
   10.2500  2.0789541E-02  6.3215432E-02  3.3344527E-02
   10.5000  2.1567959E-02  6.2610104E-02  3.4151610E-02
   10.7500  2.2494109E-02  6.0603797E-02  3.4806890E-02
   11.0000  2.3508380E-02  5.7506496E-02  3.5337727E-02
   11.2500  2.4541880E-02  5.3710524E-02  3.5753055E-02
   11.5000  2.5527094E-02  4.9603935E-02  3.6043736E-02
   11.7500  2.6413147E-02  4.5506835E-02  3.6195688E-02
   12.0000  2.7174592E-02  4.1642285E-02  3.6206331E-02
   12.2500  2.7810051E-02  3.8137645E-02  3.6090466E-02
   12.5000  2.8337686E-02  3.5044076E-02  3.5874467E-02
   12.7500  2.8789818E-02  3.2361478E-02  3.5587941E-02
   13.0000  2.9204356E-02  3.0061265E-02  3.5258555E-02
   13.2500  2.9615843E-02  2.8102863E-02  3.4910226E-02
   13.5000  3.0050906E-02  2.6442836E-02  3.4563013E-02
   13.7500  3.0527820E-02  2.5039370E-02  3.4233719E-02
   14.0000  3.1057560E-02  2.3854617E-02  3.3936513E-02
   14.2500  3.1645010E-02  2.2855736E-02  3.3683088E-02
   14.5000  3.2290011E-02  2.2015071E-02  3.3482363E-02
   14.7500  3.2988244E-02  2.1309841E-02  3.3339937E-02
   15.0000  3.3731980E-02  2.0721615E-02  3.3257566E-02
   15.2500  3.4510756E-02  2.0235732E-02  3.3232832E-02
   15.5000  3.5311996E-02  1.9840722E-02  3.3259115E-02
   15.7500  3.6121607E-02  1.9527764E-02  3.3325926E-02
   16.0000  3.6924551E-02  1.9290179E-02  3.3419615E-02
   16.2500  3.7705437E-02  1.9122958E-02  3.3524457E-02
   16.5000  3.8449151E-02  1.9022317E-02  3.3624031E-02
   16.7500  3.9141519E-02  1.8985289E-02  3.3702765E-02
   17.0000  3.9769998E-02  1.9009343E-02  3.3747422E-02
   17.2500  4.0324363E-02  1.9092057E-02  3.3748316E-02
   17.5000  4.0797315E-02  1.9230861E-02  3.3700032E-02
   17.7500  4.1184921E-02  1.9422860E-02  3.3601573E-02
   18.0000  4.1486808E-02  1.9664751E-02  3.3455931E-02
   18.2500  4.1706028E-02  1.9952828E-02  3.3269244E-02
   18.5000  4.1848596E-02  2.0283064E-02  3.3049715E-02
   18.7500  4.1922741E-02  2.0651260E-02  3.2806501E-02
   19.0000  4.1937978E-02  2.1053233E-02  3.2548734E-02
   19.2500  4.1904114E-02  2.1485035E-02  3.2284744E-02
   19.5000  4.1830319E-02  2.1943176E-02  3.2021530E-02
   19.7500  4.1724374E-02  2.2424742E-02  3.1764491E-02
   20.0000  4.1592210E-02  2.2927267E-02  3.1517448E-02
   21.0000  4.0854473E-02  2.5094191E-02  3.0669059E-02
   22.0000  3.9723465E-02  2.7398714E-02  3.0055175E-02
   23.0000  3.7987251E-02  2.9705216E-02  2.9602500E-02
   24.0000  3.5644238E-02  3.1817589E-02  2.9233884E-02
   25.0000  3.3064442E-02  3.3492154E-02  2.8921111E-02
   26.0000  3.0726662E-02  3.4531669E-02  2.8666905E-02
   27.0000  2.8900080E-02  3.4875794E-02  2.8459493E-02
   28.0000  2.7605996E-02  3.4614004E-02  2.8270444E-02
   29.0000  2.6751288E-02  3.3931668E-02  2.8100093E-02
   30.0000  2.6218987E-02  3.3030524E-02  2.7986005E-02
   31.0000  2.5897539E-02  3.2049306E-02  2.7954716E-02
   32.0000  2.5690819E-02  3.1057682E-02  2.7997995E-02
   33.0000  2.5523557E-02  3.0079966E-02  2.8080029E-02
   34.0000  2.5343305E-02  2.9115337E-02  2.8153799E-02
   35.0000  2.5119457E-02  2.8154111E-02  2.8175206E-02
   36.0000  2.4840608E-02  2.7189976E-02  2.8111627E-02
   37.0000  2.4511578E-02  2.6229022E-02  2.7947656E-02
   38.0000  2.4151874E-02  2.5297223E-02  2.7691615E-02
   39.0000  2.3796821E-02  2.4447944E-02  2.7383803E-02
   40.0000  2.3495682E-02  2.3760179E-02  2.7097517E-02
