    Energy   (100,001)      (010,001)      (001,110)   
  -25.0000  1.6343854E-04  1.8170751E-04  1.6819484E-04
  -24.0000  1.6972557E-04  1.8857160E-04  1.7470714E-04
  -23.0000  1.7645705E-04  1.9592775E-04  1.8168585E-04
  -22.0000  1.8367972E-04  2.0382940E-04  1.8918082E-04
  -21.0000  1.9144696E-04  2.1233790E-04  1.9724908E-04
  -20.0000  1.9981998E-04  2.2152402E-04  2.0595622E-04
  -19.0000  2.0886933E-04  2.3146980E-04  2.1537800E-04
  -18.0000  2.1867669E-04  2.4227090E-04  2.2560236E-04
  -17.0000  2.2933719E-04  2.5403943E-04  2.3673200E-04
  -16.0000  2.4096217E-04  2.6690770E-04  2.4888753E-04
  -15.0000  2.5368287E-04  2.8103287E-04  2.6221154E-04
  -14.0000  2.6765494E-04  2.9660303E-04  2.7687375E-04
  -13.0000  2.8306443E-04  3.1384509E-04  2.9307779E-04
  -12.0000  3.0013548E-04  3.3303524E-04  3.1107000E-04
  -11.0000  3.1914057E-04  3.5451293E-04  3.3115121E-04
  -10.0000  3.4041424E-04  3.7869983E-04  3.5369255E-04
  -9.00000  3.6437176E-04  4.0612603E-04  3.7915721E-04
  -8.00000  3.9153508E-04  4.3746689E-04  4.0813083E-04
  -7.00000  4.2256948E-04  4.7359584E-04  4.4136488E-04
  -6.00000  4.5833669E-04  5.1566198E-04  4.7983998E-04
  -5.00000  4.9997395E-04  5.6520718E-04  5.2486121E-04
  -4.00000  5.4901527E-04  6.2434836E-04  5.7820620E-04
  -3.00000  6.0758492E-04  6.9607226E-04  6.4236462E-04
  -2.00000  6.7872056E-04  7.8473441E-04  7.2094477E-04
  -1.00000  7.6694542E-04  8.9695345E-04  8.1940804E-04
   0.00000  8.7936125E-04  1.0433378E-03  9.4650494E-04
   1.00000  1.0279617E-03  1.2421719E-03  1.1174024E-03
   2.00000  1.2353013E-03  1.5285099E-03  1.3616101E-03
   3.00000  1.5518544E-03  1.9821817E-03  1.7482123E-03
   4.00000  2.1319867E-03  2.8513906E-03  2.5007542E-03
   5.00000  3.6363559E-03  5.1967270E-03  4.6196135E-03
   5.20000  4.1203752E-03  5.9396336E-03  5.3135958E-03
   5.40000  4.6271669E-03  6.7004388E-03  6.0343559E-03
   5.60000  5.1423247E-03  7.4602860E-03  6.7565087E-03
   5.80000  5.6639822E-03  8.2251574E-03  7.4687742E-03
   6.00000  6.1947867E-03  9.0078511E-03  8.1584119E-03
   6.20000  6.7384445E-03  9.8205571E-03  8.8083212E-03
   6.40000  7.2991210E-03  1.0675134E-02  9.4051638E-03
   6.60000  7.8816441E-03  1.1585617E-02  9.9506903E-03
   6.80000  8.4921376E-03  1.2569990E-02  1.0467524E-02
   7.00000  9.1387383E-03  1.3649844E-02  1.0994392E-02
   7.20000  9.8318833E-03  1.4848236E-02  1.1574398E-02
   7.40000  1.0583991E-02  1.6187524E-02  1.2245003E-02
   7.60000  1.1408700E-02  1.7688728E-02  1.3034940E-02
   7.80000  1.2319898E-02  1.9372464E-02  1.3966769E-02
   8.00000  1.3330720E-02  2.1260375E-02  1.5060696E-02
   8.20000  1.4452663E-02  2.3376192E-02  1.6335979E-02
   8.40000  1.5695083E-02  2.5746120E-02  1.7808683E-02
   8.60000  1.7065484E-02  2.8398218E-02  1.9487011E-02
   8.80000  1.8570552E-02  3.1360123E-02  2.1366642E-02
   9.00000  2.0216805E-02  3.4653641E-02  2.3428260E-02
   9.20000  2.2009080E-02  3.8284732E-02  2.5638320E-02
   9.40000  2.3946267E-02  4.2228812E-02  2.7952692E-02
   9.60000  2.6015832E-02  4.6413310E-02  3.0321629E-02
   9.80000  2.8189468E-02  5.0701435E-02  3.2694208E-02
   10.0000  3.0421106E-02  5.4882986E-02  3.5020655E-02
   10.2500  3.3194477E-02  5.9532586E-02  3.7788945E-02
   10.5000  3.5807077E-02  6.2969991E-02  4.0309391E-02
   10.7500  3.8094937E-02  6.4675751E-02  4.2478794E-02
   11.0000  3.9906905E-02  6.4406053E-02  4.4199028E-02
   11.2500  4.1136434E-02  6.2286829E-02  4.5396006E-02
   11.5000  4.1752730E-02  5.8756985E-02  4.6037968E-02
   11.7500  4.1811121E-02  5.4396543E-02  4.6145175E-02
   12.0000  4.1433490E-02  4.9747660E-02  4.5786303E-02
   12.2500  4.0770641E-02  4.5211405E-02  4.5063182E-02
   12.5000  3.9967397E-02  4.1028081E-02  4.4091283E-02
   12.7500  3.9141599E-02  3.7307312E-02  4.2982095E-02
   13.0000  3.8376038E-02  3.4072891E-02  4.1830763E-02
   13.2500  3.7719582E-02  3.1301512E-02  4.0710232E-02
   13.5000  3.7194178E-02  2.8948563E-02  3.9671312E-02
   13.7500  3.6803471E-02  2.6962865E-02  3.8746095E-02
   14.0000  3.6539998E-02  2.5294350E-02  3.7952163E-02
   14.2500  3.6390185E-02  2.3897619E-02  3.7296354E-02
   14.5000  3.6337448E-02  2.2733178E-02  3.6777709E-02
   14.7500  3.6363930E-02  2.1767472E-02  3.6389572E-02
   15.0000  3.6451348E-02  2.0972388E-02  3.6121008E-02
   15.2500  3.6581356E-02  2.0324552E-02  3.5957749E-02
   15.5000  3.6735755E-02  1.9804608E-02  3.5882904E-02
   15.7500  3.6896797E-02  1.9396539E-02  3.5877607E-02
   16.0000  3.7047736E-02  1.9087076E-02  3.5921767E-02
   16.2500  3.7173647E-02  1.8865177E-02  3.5994976E-02
   16.5000  3.7262434E-02  1.8721598E-02  3.6077590E-02
   16.7500  3.7305838E-02  1.8648530E-02  3.6151877E-02
   17.0000  3.7300212E-02  1.8639303E-02  3.6203109E-02
   17.2500  3.7246879E-02  1.8688160E-02  3.6220398E-02
   17.5000  3.7151955E-02  1.8790078E-02  3.6197138E-02
   17.7500  3.7025637E-02  1.8940639E-02  3.6130977E-02
   18.0000  3.6881060E-02  1.9135935E-02  3.6023338E-02
   18.2500  3.6732904E-02  1.9372499E-02  3.5878605E-02
   18.5000  3.6595951E-02  1.9647254E-02  3.5703131E-02
   18.7500  3.6483788E-02  1.9957484E-02  3.5504236E-02
   19.0000  3.6407763E-02  2.0300824E-02  3.5289313E-02
   19.2500  3.6376277E-02  2.0675281E-02  3.5065117E-02
   19.5000  3.6394380E-02  2.1079256E-02  3.4837267E-02
   19.7500  3.6463576E-02  2.1511524E-02  3.4609970E-02
   20.0000  3.6581696E-02  2.1971016E-02  3.4386000E-02
   21.0000  3.7380094E-02  2.4047800E-02  3.3542445E-02
   22.0000  3.8095466E-02  2.6415849E-02  3.2743743E-02
   23.0000  3.7909063E-02  2.8913551E-02  3.1867276E-02
   24.0000  3.6460942E-02  3.1282041E-02  3.0826759E-02
   25.0000  3.4047005E-02  3.3286070E-02  2.9630716E-02
   26.0000  3.1306567E-02  3.4747277E-02  2.8371889E-02
   27.0000  2.8791236E-02  3.5572913E-02  2.7180835E-02
   28.0000  2.6770887E-02  3.5778900E-02  2.6173629E-02
   29.0000  2.5278582E-02  3.5471969E-02  2.5415217E-02
   30.0000  2.4226894E-02  3.4802397E-02  2.4905482E-02
   31.0000  2.3492846E-02  3.3913364E-02  2.4588092E-02
   32.0000  2.2959759E-02  3.2910836E-02  2.4375081E-02
   33.0000  2.2532751E-02  3.1857900E-02  2.4174597E-02
   34.0000  2.2141855E-02  3.0784508E-02  2.3911604E-02
   35.0000  2.1740913E-02  2.9702626E-02  2.3538763E-02
   36.0000  2.1306769E-02  2.8620153E-02  2.3040660E-02
   37.0000  2.0839703E-02  2.7551381E-02  2.2435605E-02
   38.0000  2.0363111E-02  2.6526084E-02  2.1776310E-02
   39.0000  1.9919371E-02  2.5599502E-02  2.1144615E-02
   40.0000  1.9557572E-02  2.4853092E-02  2.0629219E-02
