    Energy   (100,001)      (010,001)      (001,110)   
  -25.0000  1.7249056E-04  1.8401101E-04  1.8192888E-04
  -24.0000  1.7835437E-04  1.9099484E-04  1.8802485E-04
  -23.0000  1.8459325E-04  1.9848310E-04  1.9450993E-04
  -22.0000  1.9124343E-04  2.0653106E-04  2.0142189E-04
  -21.0000  1.9834596E-04  2.1520223E-04  2.0880357E-04
  -20.0000  2.0594747E-04  2.2456997E-04  2.1670365E-04
  -19.0000  2.1410117E-04  2.3471945E-04  2.2517781E-04
  -18.0000  2.2286809E-04  2.4575010E-04  2.3428994E-04
  -17.0000  2.3231855E-04  2.5777866E-04  2.4411376E-04
  -16.0000  2.4253400E-04  2.7094317E-04  2.5473482E-04
  -15.0000  2.5360933E-04  2.8540788E-04  2.6625296E-04
  -14.0000  2.6565581E-04  3.0136983E-04  2.7878549E-04
  -13.0000  2.7880482E-04  3.1906729E-04  2.9247123E-04
  -12.0000  2.9321265E-04  3.3879108E-04  3.0747573E-04
  -11.0000  3.0906683E-04  3.6089969E-04  3.2399825E-04
  -10.0000  3.2659452E-04  3.8584001E-04  3.4228095E-04
  -9.00000  3.4607382E-04  4.1417608E-04  3.6262151E-04
  -8.00000  3.6784933E-04  4.4662977E-04  3.8539056E-04
  -7.00000  3.9235409E-04  4.8413966E-04  4.1105651E-04
  -6.00000  4.2014117E-04  5.2794834E-04  4.4022182E-04
  -5.00000  4.5193054E-04  5.7973556E-04  4.7367760E-04
  -4.00000  4.8868132E-04  6.4182849E-04  5.1248944E-04
  -3.00000  5.3170774E-04  7.1754710E-04  5.5813831E-04
  -2.00000  5.8287576E-04  8.1180031E-04  6.1276632E-04
  -1.00000  6.4495935E-04  9.3218042E-04  6.7963787E-04
   0.00000  7.2234539E-04  1.0911395E-03  7.6409108E-04
   1.00000  8.2260115E-04  1.3108091E-03  8.7576338E-04
   2.00000  9.6057815E-04  1.6354366E-03  1.0347762E-03
   3.00000  1.1720731E-03  2.1717959E-03  1.2937779E-03
   4.00000  1.5795488E-03  3.2781612E-03  1.8519888E-03
   5.00000  2.7462552E-03  6.5674161E-03  3.6637175E-03
   5.20000  3.1094848E-03  7.6042268E-03  4.1938347E-03
   5.40000  3.4635000E-03  8.6258381E-03  4.6556119E-03
   5.60000  3.7930976E-03  9.5976724E-03  5.0308204E-03
   5.80000  4.0973728E-03  1.0528219E-02  5.3384292E-03
   6.00000  4.3794485E-03  1.1433459E-02  5.5970451E-03
   6.20000  4.6428736E-03  1.2321365E-02  5.8055251E-03
   6.40000  4.8917477E-03  1.3195196E-02  5.9469560E-03
   6.60000  5.1314912E-03  1.4065881E-02  6.0090485E-03
   6.80000  5.3689768E-03  1.4961372E-02  6.0026238E-03
   7.00000  5.6115480E-03  1.5924048E-02  5.9607954E-03
   7.20000  5.8656112E-03  1.6999940E-02  5.9227402E-03
   7.40000  6.1358791E-03  1.8229932E-02  5.9195029E-03
   7.60000  6.4255561E-03  1.9647237E-02  5.9701471E-03
   7.80000  6.7370317E-03  2.1278934E-02  6.0846751E-03
   8.00000  7.0725604E-03  2.3148454E-02  6.2682642E-03
   8.20000  7.4346169E-03  2.5277142E-02  6.5242752E-03
   8.40000  7.8258928E-03  2.7683911E-02  6.8557320E-03
   8.60000  8.2491052E-03  3.0382433E-02  7.2657417E-03
   8.80000  8.7068397E-03  3.3375985E-02  7.7572586E-03
   9.00000  9.2015524E-03  3.6650244E-02  8.3324191E-03
   9.20000  9.7357133E-03  4.0164417E-02  8.9916058E-03
   9.40000  1.0311956E-02  4.3841556E-02  9.7323719E-03
   9.60000  1.0933027E-02  4.7560164E-02  1.0548398E-02
   9.80000  1.1601474E-02  5.1151096E-02  1.1428851E-02
   10.0000  1.2319078E-02  5.4404742E-02  1.2358633E-02
   10.2500  1.3285352E-02  5.7649559E-02  1.3562649E-02
   10.5000  1.4323839E-02  5.9611907E-02  1.4779966E-02
   10.7500  1.5422927E-02  6.0062400E-02  1.5983326E-02
   11.0000  1.6564432E-02  5.9020904E-02  1.7160629E-02
   11.2500  1.7725678E-02  5.6740506E-02  1.8315165E-02
   11.5000  1.8883200E-02  5.3610186E-02  1.9459754E-02
   11.7500  2.0016941E-02  5.0035613E-02  2.0608889E-02
   12.0000  2.1113171E-02  4.6353069E-02  2.1772297E-02
   12.2500  2.2165477E-02  4.2795563E-02  2.2951634E-02
   12.5000  2.3174455E-02  3.9499452E-02  2.4140764E-02
   12.7500  2.4146455E-02  3.6528719E-02  2.5328740E-02
   13.0000  2.5091669E-02  3.3900329E-02  2.6503699E-02
   13.2500  2.6022135E-02  3.1604040E-02  2.7655901E-02
   13.5000  2.6949868E-02  2.9615780E-02  2.8779372E-02
   13.7500  2.7884924E-02  2.7905855E-02  2.9872306E-02
   14.0000  2.8833908E-02  2.6443633E-02  3.0936656E-02
   14.2500  2.9799629E-02  2.5200039E-02  3.1977780E-02
   14.5000  3.0781429E-02  2.4148715E-02  3.3003963E-02
   14.7500  3.1775480E-02  2.3266392E-02  3.4025358E-02
   15.0000  3.2774915E-02  2.2532846E-02  3.5052524E-02
   15.2500  3.3769948E-02  2.1930662E-02  3.6094923E-02
   15.5000  3.4748149E-02  2.1444931E-02  3.7159556E-02
   15.7500  3.5694948E-02  2.1062931E-02  3.8249820E-02
   16.0000  3.6594425E-02  2.0773812E-02  3.9364541E-02
   16.2500  3.7430347E-02  2.0568297E-02  4.0497200E-02
   16.5000  3.8187381E-02  2.0438417E-02  4.1635348E-02
   16.7500  3.8852388E-02  2.0377273E-02  4.2760319E-02
   17.0000  3.9415608E-02  2.0378842E-02  4.3847432E-02
   17.2500  3.9871595E-02  2.0437817E-02  4.4866888E-02
   17.5000  4.0219743E-02  2.0549479E-02  4.5785581E-02
   17.7500  4.0464360E-02  2.0709587E-02  4.6569826E-02
   18.0000  4.0614294E-02  2.0914292E-02  4.7188796E-02
   18.2500  4.0682191E-02  2.1160067E-02  4.7618121E-02
   18.5000  4.0683483E-02  2.1443649E-02  4.7842959E-02
   18.7500  4.0635258E-02  2.1762010E-02  4.7859827E-02
   19.0000  4.0555095E-02  2.2112349E-02  4.7676737E-02
   19.2500  4.0459965E-02  2.2492129E-02  4.7311612E-02
   19.5000  4.0365283E-02  2.2899117E-02  4.6789393E-02
   19.7500  4.0284161E-02  2.3331369E-02  4.6138697E-02
   20.0000  4.0227002E-02  2.3787012E-02  4.5389171E-02
   21.0000  4.0358113E-02  2.5789679E-02  4.1970093E-02
   22.0000  4.1087696E-02  2.7931879E-02  3.8820965E-02
   23.0000  4.2065903E-02  3.0008082E-02  3.6393799E-02
   24.0000  4.2732607E-02  3.1787242E-02  3.4632108E-02
   25.0000  4.2586458E-02  3.3064444E-02  3.3336806E-02
   26.0000  4.1377623E-02  3.3738629E-02  3.2319808E-02
   27.0000  3.9215270E-02  3.3845324E-02  3.1461159E-02
   28.0000  3.6516903E-02  3.3515717E-02  3.0716057E-02
   29.0000  3.3786366E-02  3.2903860E-02  3.0089277E-02
   30.0000  3.1387177E-02  3.2137046E-02  2.9598669E-02
   31.0000  2.9472536E-02  3.1308814E-02  2.9249977E-02
   32.0000  2.8039598E-02  3.0484862E-02  2.9027983E-02
   33.0000  2.7003083E-02  2.9691569E-02  2.8897396E-02
   34.0000  2.6267726E-02  2.8930572E-02  2.8817010E-02
   35.0000  2.5759900E-02  2.8194772E-02  2.8749983E-02
   36.0000  2.5426837E-02  2.7474215E-02  2.8666229E-02
   37.0000  2.5227328E-02  2.6761039E-02  2.8543643E-02
   38.0000  2.5122021E-02  2.6058430E-02  2.8372596E-02
   39.0000  2.5069581E-02  2.5396630E-02  2.8165807E-02
   40.0000  2.5034774E-02  2.4843625E-02  2.7966848E-02
