    Energy   (100,001)      (010,001)      (001,110)   
  -25.0000  1.6823874E-04  1.8739030E-04  1.7027741E-04
  -24.0000  1.7455662E-04  1.9420032E-04  1.7690895E-04
  -23.0000  1.8131488E-04  2.0148658E-04  1.8401882E-04
  -22.0000  1.8855941E-04  2.0929992E-04  1.9165856E-04
  -21.0000  1.9634255E-04  2.1769865E-04  1.9988721E-04
  -20.0000  2.0472429E-04  2.2674989E-04  2.0877276E-04
  -19.0000  2.1377369E-04  2.3653131E-04  2.1839384E-04
  -18.0000  2.2357061E-04  2.4713329E-04  2.2884189E-04
  -17.0000  2.3420798E-04  2.5866160E-04  2.4022382E-04
  -16.0000  2.4579443E-04  2.7124078E-04  2.5266545E-04
  -15.0000  2.5845785E-04  2.8501846E-04  2.6631576E-04
  -14.0000  2.7234973E-04  3.0017096E-04  2.8135249E-04
  -13.0000  2.8765088E-04  3.1691049E-04  2.9798936E-04
  -12.0000  3.0457878E-04  3.3549472E-04  3.1648552E-04
  -11.0000  3.2339740E-04  3.5623957E-04  3.3715831E-04
  -10.0000  3.4443023E-04  3.7953639E-04  3.6040037E-04
  -9.00000  3.6807800E-04  4.0587583E-04  3.8670331E-04
  -8.00000  3.9484324E-04  4.3588107E-04  4.1669087E-04
  -7.00000  4.2536479E-04  4.7035558E-04  4.5116639E-04
  -6.00000  4.6046769E-04  5.1035281E-04  4.9118246E-04
  -5.00000  5.0123688E-04  5.5728125E-04  5.3814603E-04
  -4.00000  5.4912969E-04  6.1306739E-04  5.9398204E-04
  -3.00000  6.0615381E-04  6.8041844E-04  6.6139845E-04
  -2.00000  6.7516167E-04  7.6326590E-04  7.4433570E-04
  -1.00000  7.6036534E-04  8.6755884E-04  8.4877447E-04
   0.00000  8.6830484E-04  1.0027937E-03  9.8429831E-04
   1.00000  1.0098578E-03  1.1852829E-03  1.1674270E-03
   2.00000  1.2050464E-03  1.4462464E-03  1.4297704E-03
   3.00000  1.4973605E-03  1.8569466E-03  1.8425289E-03
   4.00000  2.0149845E-03  2.6412371E-03  2.6191292E-03
   5.00000  3.2817779E-03  4.7609751E-03  4.6466956E-03
   5.20000  3.6720210E-03  5.4215652E-03  5.3202277E-03
   5.40000  4.0740918E-03  6.0854460E-03  6.0594842E-03
   5.60000  4.4820615E-03  6.7349798E-03  6.8640933E-03
   5.80000  4.9036342E-03  7.3778975E-03  7.7486685E-03
   6.00000  5.3511320E-03  8.0293362E-03  8.7281142E-03
   6.20000  5.8373546E-03  8.7039767E-03  9.8085719E-03
   6.40000  6.3746733E-03  9.4151198E-03  1.0983450E-02
   6.60000  6.9748661E-03  1.0175779E-02  1.2232676E-02
   6.80000  7.6487394E-03  1.1000063E-02  1.3525481E-02
   7.00000  8.4052866E-03  1.1904322E-02  1.4827476E-02
   7.20000  9.2504652E-03  1.2907609E-02  1.6110925E-02
   7.40000  1.0186062E-02  1.4031156E-02  1.7364345E-02
   7.60000  1.1209598E-02  1.5296979E-02  1.8596548E-02
   7.80000  1.2316253E-02  1.6726327E-02  1.9832739E-02
   8.00000  1.3502595E-02  1.8338989E-02  2.1104601E-02
   8.20000  1.4769664E-02  2.0154082E-02  2.2439077E-02
   8.40000  1.6122020E-02  2.2191693E-02  2.3849799E-02
   8.60000  1.7561944E-02  2.4473792E-02  2.5332145E-02
   8.80000  1.9083990E-02  2.7023032E-02  2.6862543E-02
   9.00000  2.0676408E-02  2.9858856E-02  2.8403197E-02
   9.20000  2.2328012E-02  3.2990531E-02  2.9910460E-02
   9.40000  2.4032968E-02  3.6406777E-02  3.1344283E-02
   9.60000  2.5788397E-02  4.0062690E-02  3.2676644E-02
   9.80000  2.7586615E-02  4.3866958E-02  3.3896198E-02
   10.0000  2.9407839E-02  4.7674274E-02  3.5007044E-02
   10.2500  3.1662121E-02  5.2134654E-02  3.6263316E-02
   10.5000  3.3799115E-02  5.5842212E-02  3.7398584E-02
   10.7500  3.5703420E-02  5.8376497E-02  3.8427399E-02
   11.0000  3.7265868E-02  5.9464618E-02  3.9342007E-02
   11.2500  3.8406980E-02  5.9055871E-02  4.0113213E-02
   11.5000  3.9092223E-02  5.7318695E-02  4.0700455E-02
   11.7500  3.9337313E-02  5.4574139E-02  4.1064414E-02
   12.0000  3.9203575E-02  5.1201394E-02  4.1178255E-02
   12.2500  3.8783821E-02  4.7554063E-02  4.1038595E-02
   12.5000  3.8184601E-02  4.3910288E-02  4.0669840E-02
   12.7500  3.7509673E-02  4.0457611E-02  4.0118949E-02
   13.0000  3.6847499E-02  3.7302077E-02  3.9445324E-02
   13.2500  3.6264844E-02  3.4488588E-02  3.8710721E-02
   13.5000  3.5806235E-02  3.2021877E-02  3.7972367E-02
   13.7500  3.5496915E-02  2.9883336E-02  3.7279205E-02
   14.0000  3.5346913E-02  2.8042945E-02  3.6670062E-02
   14.2500  3.5354855E-02  2.6466892E-02  3.6173118E-02
   14.5000  3.5510974E-02  2.5121926E-02  3.5806290E-02
   14.7500  3.5799263E-02  2.3977532E-02  3.5578049E-02
   15.0000  3.6198945E-02  2.3006785E-02  3.5488332E-02
   15.2500  3.6685504E-02  2.2186478E-02  3.5529356E-02
   15.5000  3.7231555E-02  2.1496904E-02  3.5686330E-02
   15.7500  3.7807762E-02  2.0921493E-02  3.5938204E-02
   16.0000  3.8383967E-02  2.0446420E-02  3.6258658E-02
   16.2500  3.8930573E-02  2.0060242E-02  3.6617525E-02
   16.5000  3.9420132E-02  1.9753566E-02  3.6982749E-02
   16.7500  3.9828985E-02  1.9518740E-02  3.7322807E-02
   17.0000  4.0138755E-02  1.9349567E-02  3.7609316E-02
   17.2500  4.0337496E-02  1.9241027E-02  3.7819442E-02
   17.5000  4.0420322E-02  1.9189013E-02  3.7937640E-02
   17.7500  4.0389418E-02  1.9190101E-02  3.7956445E-02
   18.0000  4.0253429E-02  1.9241347E-02  3.7876206E-02
   18.2500  4.0026278E-02  1.9340152E-02  3.7703919E-02
   18.5000  3.9725578E-02  1.9484168E-02  3.7451477E-02
   18.7500  3.9370837E-02  1.9671255E-02  3.7133709E-02
   19.0000  3.8981685E-02  1.9899487E-02  3.6766501E-02
   19.2500  3.8576316E-02  2.0167194E-02  3.6365226E-02
   19.5000  3.8170282E-02  2.0473008E-02  3.5943571E-02
   19.7500  3.7775755E-02  2.0815867E-02  3.5512839E-02
   20.0000  3.7401359E-02  2.1194842E-02  3.5081830E-02
   21.0000  3.6183346E-02  2.3041884E-02  3.3469781E-02
   22.0000  3.5376979E-02  2.5309731E-02  3.2145854E-02
   23.0000  3.4686375E-02  2.7794542E-02  3.1057068E-02
   24.0000  3.3755844E-02  3.0251090E-02  3.0093591E-02
   25.0000  3.2405644E-02  3.2401432E-02  2.9181379E-02
   26.0000  3.0725128E-02  3.4009942E-02  2.8295791E-02
   27.0000  2.8978466E-02  3.4974419E-02  2.7448434E-02
   28.0000  2.7420890E-02  3.5332868E-02  2.6671238E-02
   29.0000  2.6182049E-02  3.5205037E-02  2.6003270E-02
   30.0000  2.5265106E-02  3.4740049E-02  2.5471570E-02
   31.0000  2.4603074E-02  3.4080943E-02  2.5071057E-02
   32.0000  2.4110694E-02  3.3335444E-02  2.4761424E-02
   33.0000  2.3712317E-02  3.2562854E-02  2.4482742E-02
   34.0000  2.3351489E-02  3.1782462E-02  2.4175213E-02
   35.0000  2.2992040E-02  3.0993290E-02  2.3791852E-02
   36.0000  2.2617204E-02  3.0193165E-02  2.3304957E-02
   37.0000  2.2229076E-02  2.9391017E-02  2.2712911E-02
   38.0000  2.1846969E-02  2.8612651E-02  2.2049677E-02
   39.0000  2.1502163E-02  2.7904715E-02  2.1390598E-02
   40.0000  2.1226909E-02  2.7333520E-02  2.0836798E-02
