    Energy   (100,001)      (010,001)      (001,110)   
  -25.0000  1.6835349E-04  1.7570998E-04  1.7403814E-04
  -24.0000  1.7453733E-04  1.8270745E-04  1.8050671E-04
  -23.0000  1.8114317E-04  1.9022705E-04  1.8742536E-04
  -22.0000  1.8821413E-04  1.9832740E-04  1.9484120E-04
  -21.0000  1.9579933E-04  2.0707601E-04  2.0280809E-04
  -20.0000  2.0395493E-04  2.1655112E-04  2.1138779E-04
  -19.0000  2.1274545E-04  2.2684378E-04  2.2065157E-04
  -18.0000  2.2224536E-04  2.3806062E-04  2.3068202E-04
  -17.0000  2.3254106E-04  2.5032724E-04  2.4157542E-04
  -16.0000  2.4373339E-04  2.6379260E-04  2.5344467E-04
  -15.0000  2.5594072E-04  2.7863461E-04  2.6642307E-04
  -14.0000  2.6930296E-04  2.9506743E-04  2.8066910E-04
  -13.0000  2.8398668E-04  3.1335103E-04  2.9637271E-04
  -12.0000  3.0019177E-04  3.3380399E-04  3.1376353E-04
  -11.0000  3.1816026E-04  3.5682069E-04  3.3312189E-04
  -10.0000  3.3818806E-04  3.8289496E-04  3.5479369E-04
  -9.00000  3.6064096E-04  4.1265297E-04  3.7921099E-04
  -8.00000  3.8597681E-04  4.4690010E-04  4.0692100E-04
  -7.00000  4.1477679E-04  4.8668890E-04  4.3862774E-04
  -6.00000  4.4779078E-04  5.3342025E-04  4.7525381E-04
  -5.00000  4.8600493E-04  5.8899834E-04  5.1803451E-04
  -4.00000  5.3074563E-04  6.5607571E-04  5.6866685E-04
  -3.00000  5.8384646E-04  7.3845650E-04  6.2955576E-04
  -2.00000  6.4792956E-04  8.4179203E-04  7.0424346E-04
  -1.00000  7.2691129E-04  9.7485299E-04  7.9820977E-04
   0.00000  8.2698970E-04  1.1520388E-03  9.2049604E-04
   1.00000  9.5880331E-04  1.3988519E-03  1.0873932E-03
   2.00000  1.1429749E-03  1.7656771E-03  1.3322247E-03
   3.00000  1.4282470E-03  2.3708996E-03  1.7379203E-03
   4.00000  1.9780140E-03  3.5927580E-03  2.5910315E-03
   5.00000  3.5222703E-03  7.0693417E-03  5.2324971E-03
   5.20000  3.9828081E-03  8.1848629E-03  6.1148631E-03
   5.40000  4.4158273E-03  9.3285207E-03  7.0222236E-03
   5.60000  4.8077892E-03  1.0475333E-02  7.9172379E-03
   5.80000  5.1707422E-03  1.1641151E-02  8.7869315E-03
   6.00000  5.5232034E-03  1.2854318E-02  9.6216687E-03
   6.20000  5.8811149E-03  1.4142743E-02  1.0405907E-02
   6.40000  6.2560713E-03  1.5531570E-02  1.1119545E-02
   6.60000  6.6560988E-03  1.7043744E-02  1.1743965E-02
   6.80000  7.0870925E-03  1.8700801E-02  1.2268179E-02
   7.00000  7.5542180E-03  2.0523535E-02  1.2692532E-02
   7.20000  8.0629282E-03  2.2533172E-02  1.3030408E-02
   7.40000  8.6194719E-03  2.4753200E-02  1.3308815E-02
   7.60000  9.2309488E-03  2.7210216E-02  1.3566374E-02
   7.80000  9.9050222E-03  2.9931527E-02  1.3847094E-02
   8.00000  1.0649343E-02  3.2938941E-02  1.4191887E-02
   8.20000  1.1470729E-02  3.6239843E-02  1.4631729E-02
   8.40000  1.2374232E-02  3.9816541E-02  1.5184435E-02
   8.60000  1.3362433E-02  4.3614531E-02  1.5854545E-02
   8.80000  1.4435343E-02  4.7530964E-02  1.6635100E-02
   9.00000  1.5591096E-02  5.1406551E-02  1.7510591E-02
   9.20000  1.6826991E-02  5.5026615E-02  1.8460552E-02
   9.40000  1.8139879E-02  5.8137717E-02  1.9463083E-02
   9.60000  1.9525188E-02  6.0483179E-02  2.0497567E-02
   9.80000  2.0975095E-02  6.1852849E-02  2.1546391E-02
   10.0000  2.2477278E-02  6.2131486E-02  2.2596101E-02
   10.2500  2.4401639E-02  6.0967724E-02  2.3896692E-02
   10.5000  2.6332625E-02  5.8382657E-02  2.5177484E-02
   10.7500  2.8205230E-02  5.4819048E-02  2.6437205E-02
   11.0000  2.9945253E-02  5.0759118E-02  2.7678805E-02
   11.2500  3.1483874E-02  4.6613556E-02  2.8906949E-02
   11.5000  3.2769609E-02  4.2668328E-02  3.0124169E-02
   11.7500  3.3776977E-02  3.9083345E-02  3.1327789E-02
   12.0000  3.4510963E-02  3.5920789E-02  3.2509304E-02
   12.2500  3.5005384E-02  3.3182031E-02  3.3655564E-02
   12.5000  3.5314936E-02  3.0838588E-02  3.4751344E-02
   12.7500  3.5503482E-02  2.8850218E-02  3.5783105E-02
   13.0000  3.5633163E-02  2.7173448E-02  3.6742080E-02
   13.2500  3.5756574E-02  2.5765944E-02  3.7625864E-02
   13.5000  3.5911953E-02  2.4588996E-02  3.8439374E-02
   13.7500  3.6121762E-02  2.3608720E-02  3.9194566E-02
   14.0000  3.6394303E-02  2.2796303E-02  3.9907629E-02
   14.2500  3.6726500E-02  2.2127611E-02  4.0594738E-02
   14.5000  3.7106553E-02  2.1582540E-02  4.1268145E-02
   14.7500  3.7516251E-02  2.1144402E-02  4.1933274E-02
   15.0000  3.7933152E-02  2.0799397E-02  4.2586930E-02
   15.2500  3.8332752E-02  2.0536170E-02  4.3216671E-02
   15.5000  3.8690706E-02  2.0345410E-02  4.3801449E-02
   15.7500  3.8984992E-02  2.0219507E-02  4.4313613E-02
   16.0000  3.9197902E-02  2.0152256E-02  4.4722191E-02
   16.2500  3.9317641E-02  2.0138597E-02  4.4997094E-02
   16.5000  3.9339354E-02  2.0174407E-02  4.5113595E-02
   16.7500  3.9265427E-02  2.0256308E-02  4.5056196E-02
   17.0000  3.9105006E-02  2.0381514E-02  4.4821039E-02
   17.2500  3.8872815E-02  2.0547688E-02  4.4416375E-02
   17.5000  3.8587464E-02  2.0752819E-02  4.3861093E-02
   17.7500  3.8269533E-02  2.0995119E-02  4.3181823E-02
   18.0000  3.7939724E-02  2.1272937E-02  4.2409385E-02
   18.2500  3.7617307E-02  2.1584689E-02  4.1575364E-02
   18.5000  3.7318996E-02  2.1928805E-02  4.0709347E-02
   18.7500  3.7058308E-02  2.2303698E-02  3.9837064E-02
   19.0000  3.6845329E-02  2.2707754E-02  3.8979416E-02
   19.2500  3.6686807E-02  2.3139343E-02  3.8152180E-02
   19.5000  3.6586432E-02  2.3596854E-02  3.7366197E-02
   19.7500  3.6545183E-02  2.4078656E-02  3.6627892E-02
   20.0000  3.6561629E-02  2.4582839E-02  3.5940160E-02
   21.0000  3.7108983E-02  2.6755271E-02  3.3693098E-02
   22.0000  3.8073089E-02  2.8966453E-02  3.2152105E-02
   23.0000  3.8846770E-02  3.0923327E-02  3.1093514E-02
   24.0000  3.8803292E-02  3.2361484E-02  3.0298994E-02
   25.0000  3.7590412E-02  3.3134705E-02  2.9608047E-02
   26.0000  3.5408790E-02  3.3267154E-02  2.8952158E-02
   27.0000  3.2891170E-02  3.2917826E-02  2.8358519E-02
   28.0000  3.0588096E-02  3.2277465E-02  2.7883886E-02
   29.0000  2.8744235E-02  3.1495396E-02  2.7557934E-02
   30.0000  2.7371825E-02  3.0659299E-02  2.7361783E-02
   31.0000  2.6378318E-02  2.9804858E-02  2.7239226E-02
   32.0000  2.5649928E-02  2.8935229E-02  2.7123130E-02
   33.0000  2.5086473E-02  2.8039487E-02  2.6955191E-02
   34.0000  2.4610740E-02  2.7106842E-02  2.6693345E-02
   35.0000  2.4168874E-02  2.6136046E-02  2.6313106E-02
   36.0000  2.3728600E-02  2.5140303E-02  2.5808745E-02
   37.0000  2.3277313E-02  2.4148277E-02  2.5195420E-02
   38.0000  2.2821068E-02  2.3203177E-02  2.4512234E-02
   39.0000  2.2386711E-02  2.2363130E-02  2.3828552E-02
   40.0000  2.2021480E-02  2.1696345E-02  2.3245190E-02
