    Energy   (100,001)      (010,001)      (001,110)   
  -25.0000  1.6698546E-04  1.8318591E-04  1.7208314E-04
  -24.0000  1.7332139E-04  1.9006092E-04  1.7871880E-04
  -23.0000  1.8010292E-04  1.9742763E-04  1.8583082E-04
  -22.0000  1.8737685E-04  2.0533946E-04  1.9347041E-04
  -21.0000  1.9519664E-04  2.1385771E-04  2.0169622E-04
  -20.0000  2.0362361E-04  2.2305313E-04  2.1057577E-04
  -19.0000  2.1272843E-04  2.3300773E-04  2.2018715E-04
  -18.0000  2.2259292E-04  2.4381715E-04  2.3062112E-04
  -17.0000  2.3331237E-04  2.5559353E-04  2.4198382E-04
  -16.0000  2.4499838E-04  2.6846923E-04  2.5440013E-04
  -15.0000  2.5778244E-04  2.8260154E-04  2.6801789E-04
  -14.0000  2.7182056E-04  2.9817876E-04  2.8301347E-04
  -13.0000  2.8729920E-04  3.1542815E-04  2.9959891E-04
  -12.0000  3.0444305E-04  3.3462646E-04  3.1803133E-04
  -11.0000  3.2352521E-04  3.5611402E-04  3.3862556E-04
  -10.0000  3.4488102E-04  3.8031385E-04  3.6177115E-04
  -9.00000  3.6892664E-04  4.0775812E-04  3.8795593E-04
  -8.00000  3.9618501E-04  4.3912542E-04  4.1779897E-04
  -7.00000  4.2732234E-04  4.7529417E-04  4.5209796E-04
  -6.00000  4.6320093E-04  5.1742133E-04  4.9189874E-04
  -5.00000  5.0495740E-04  5.6706127E-04  5.3860063E-04
  -4.00000  5.5412226E-04  6.2635124E-04  5.9412091E-04
  -3.00000  6.1280932E-04  6.9831184E-04  6.6116253E-04
  -2.00000  6.8402947E-04  7.8735682E-04  7.4367126E-04
  -1.00000  7.7223985E-04  9.0020896E-04  8.4766444E-04
   0.00000  8.8437651E-04  1.0476730E-03  9.8285416E-04
   1.00000  1.0319953E-03  1.2484310E-03  1.1661694E-03
   2.00000  1.2363771E-03  1.5384316E-03  1.4305768E-03
   3.00000  1.5436603E-03  1.9998942E-03  1.8524457E-03
   4.00000  2.0889827E-03  2.8897925E-03  2.6708502E-03
   5.00000  3.4210283E-03  5.3070945E-03  4.9316306E-03
   5.20000  3.8330577E-03  6.0685854E-03  5.6980605E-03
   5.40000  4.2610428E-03  6.8426530E-03  6.5287416E-03
   5.60000  4.7008026E-03  7.6100799E-03  7.4009154E-03
   5.80000  5.1618540E-03  8.3793746E-03  8.3028920E-03
   6.00000  5.6568867E-03  9.1677403E-03  9.2260082E-03
   6.20000  6.1967585E-03  9.9931462E-03  1.0164519E-02
   6.40000  6.7897940E-03  1.0873653E-02  1.1118879E-02
   6.60000  7.4426361E-03  1.1828071E-02  1.2097009E-02
   6.80000  8.1612959E-03  1.2876016E-02  1.3112188E-02
   7.00000  8.9520080E-03  1.4037386E-02  1.4178194E-02
   7.20000  9.8218731E-03  1.5331690E-02  1.5302990E-02
   7.40000  1.0779285E-02  1.6777685E-02  1.6483379E-02
   7.60000  1.1834080E-02  1.8393785E-02  1.7703715E-02
   7.80000  1.2997256E-02  2.0199330E-02  1.8940331E-02
   8.00000  1.4280091E-02  2.2216117E-02  2.0169996E-02
   8.20000  1.5692505E-02  2.4469287E-02  2.1377918E-02
   8.40000  1.7240788E-02  2.6986664E-02  2.2561246E-02
   8.60000  1.8925074E-02  2.9795918E-02  2.3727078E-02
   8.80000  2.0737167E-02  3.2919136E-02  2.4887155E-02
   9.00000  2.2659296E-02  3.6364178E-02  2.6052843E-02
   9.20000  2.4664087E-02  4.0112116E-02  2.7233344E-02
   9.40000  2.6715629E-02  4.4101258E-02  2.8437698E-02
   9.60000  2.8771230E-02  4.8210512E-02  2.9677733E-02
   9.80000  3.0783344E-02  5.2247820E-02  3.0966897E-02
   10.0000  3.2701581E-02  5.5952128E-02  3.2313858E-02
   10.2500  3.4889988E-02  5.9649348E-02  3.4072954E-02
   10.5000  3.6761542E-02  6.1795460E-02  3.5878716E-02
   10.7500  3.8250458E-02  6.2072769E-02  3.7661409E-02
   11.0000  3.9326046E-02  6.0535671E-02  3.9332994E-02
   11.2500  3.9992318E-02  5.7574493E-02  4.0803680E-02
   11.5000  4.0285095E-02  5.3740821E-02  4.1992526E-02
   11.7500  4.0265150E-02  4.9558782E-02  4.2835187E-02
   12.0000  4.0006957E-02  4.5417563E-02  4.3294724E-02
   12.2500  3.9588274E-02  4.1553275E-02  4.3370500E-02
   12.5000  3.9081944E-02  3.8079804E-02  4.3098866E-02
   12.7500  3.8550206E-02  3.5030820E-02  4.2545730E-02
   13.0000  3.8042349E-02  3.2394298E-02  4.1795037E-02
   13.2500  3.7594057E-02  3.0135580E-02  4.0935434E-02
   13.5000  3.7227439E-02  2.8211433E-02  4.0047264E-02
   13.7500  3.6952664E-02  2.6578232E-02  3.9193441E-02
   14.0000  3.6770755E-02  2.5196119E-02  3.8416588E-02
   14.2500  3.6676133E-02  2.4030352E-02  3.7741628E-02
   14.5000  3.6658375E-02  2.3051230E-02  3.7180268E-02
   14.7500  3.6703432E-02  2.2233601E-02  3.6734806E-02
   15.0000  3.6794525E-02  2.1556298E-02  3.6400731E-02
   15.2500  3.6912940E-02  2.1001597E-02  3.6168469E-02
   15.5000  3.7038833E-02  2.0554710E-02  3.6024636E-02
   15.7500  3.7152209E-02  2.0203318E-02  3.5953073E-02
   16.0000  3.7234121E-02  1.9937156E-02  3.5935869E-02
   16.2500  3.7268108E-02  1.9747645E-02  3.5954480E-02
   16.5000  3.7241717E-02  1.9627563E-02  3.5990963E-02
   16.7500  3.7147884E-02  1.9570765E-02  3.6029216E-02
   17.0000  3.6985822E-02  1.9571941E-02  3.6056061E-02
   17.2500  3.6761180E-02  1.9626416E-02  3.6061950E-02
   17.5000  3.6485338E-02  1.9729986E-02  3.6041192E-02
   17.7500  3.6173986E-02  1.9878806E-02  3.5991661E-02
   18.0000  3.5845235E-02  2.0069316E-02  3.5914119E-02
   18.2500  3.5517658E-02  2.0298205E-02  3.5811335E-02
   18.5000  3.5208568E-02  2.0562394E-02  3.5687186E-02
   18.7500  3.4932728E-02  2.0859055E-02  3.5545888E-02
   19.0000  3.4701582E-02  2.1185636E-02  3.5391416E-02
   19.2500  3.4522946E-02  2.1539912E-02  3.5227131E-02
   19.5000  3.4401044E-02  2.1920034E-02  3.5055576E-02
   19.7500  3.4336738E-02  2.2324514E-02  3.4878412E-02
   20.0000  3.4327800E-02  2.2752028E-02  3.4696507E-02
   21.0000  3.4714721E-02  2.4654419E-02  3.3921873E-02
   22.0000  3.5324208E-02  2.6764119E-02  3.3039564E-02
   23.0000  3.5503887E-02  2.8947461E-02  3.1994228E-02
   24.0000  3.4813260E-02  3.1009490E-02  3.0785833E-02
   25.0000  3.3261148E-02  3.2709392E-02  2.9487888E-02
   26.0000  3.1229107E-02  3.3906791E-02  2.8196919E-02
   27.0000  2.9180097E-02  3.4563230E-02  2.7010410E-02
   28.0000  2.7418976E-02  3.4711992E-02  2.6011725E-02
   29.0000  2.6053345E-02  3.4444189E-02  2.5248573E-02
   30.0000  2.5061137E-02  3.3882184E-02  2.4719110E-02
   31.0000  2.4357824E-02  3.3144104E-02  2.4375562E-02
   32.0000  2.3842876E-02  3.2318242E-02  2.4143696E-02
   33.0000  2.3426998E-02  3.1456031E-02  2.3946427E-02
   34.0000  2.3043567E-02  3.0578397E-02  2.3720930E-02
   35.0000  2.2651654E-02  2.9687564E-02  2.3427029E-02
   36.0000  2.2236635E-02  2.8779877E-02  2.3050717E-02
   37.0000  2.1808232E-02  2.7858417E-02  2.2604922E-02
   38.0000  2.1393354E-02  2.6945974E-02  2.2127091E-02
   39.0000  2.1025186E-02  2.6097819E-02  2.1673003E-02
   40.0000  2.0733519E-02  2.5402455E-02  2.1302637E-02
