    Energy   (100,001)      (010,001)      (001,110)   
  -25.0000  1.6904595E-04  1.8103216E-04  1.8335006E-04
  -24.0000  1.7518861E-04  1.8819486E-04  1.8996873E-04
  -23.0000  1.8174875E-04  1.9589158E-04  1.9704316E-04
  -22.0000  1.8876909E-04  2.0418234E-04  2.0462105E-04
  -21.0000  1.9629828E-04  2.1313630E-04  2.1275692E-04
  -20.0000  2.0439195E-04  2.2283361E-04  2.2151339E-04
  -19.0000  2.1311408E-04  2.3336758E-04  2.3096270E-04
  -18.0000  2.2253857E-04  2.4484750E-04  2.4118867E-04
  -17.0000  2.3275122E-04  2.5740214E-04  2.5228907E-04
  -16.0000  2.4385226E-04  2.7118425E-04  2.6437867E-04
  -15.0000  2.5595948E-04  2.8637631E-04  2.7759306E-04
  -14.0000  2.6921229E-04  3.0319802E-04  2.9209365E-04
  -13.0000  2.8377689E-04  3.2191616E-04  3.0807404E-04
  -12.0000  2.9985306E-04  3.4285767E-04  3.2576858E-04
  -11.0000  3.1768314E-04  3.6642735E-04  3.4546361E-04
  -10.0000  3.3756411E-04  3.9313211E-04  3.6751286E-04
  -9.00000  3.5986398E-04  4.2361472E-04  3.9235860E-04
  -8.00000  3.8504474E-04  4.5870181E-04  4.2056139E-04
  -7.00000  4.1369482E-04  4.9947346E-04  4.5284296E-04
  -6.00000  4.4657642E-04  5.4736658E-04  4.9014933E-04
  -5.00000  4.8469640E-04  6.0433296E-04  5.3374687E-04
  -4.00000  5.2941619E-04  6.7308859E-04  5.8537339E-04
  -3.00000  5.8262899E-04  7.5752240E-04  6.4748614E-04
  -2.00000  6.4706058E-04  8.6339801E-04  7.2369002E-04
  -1.00000  7.2681221E-04  9.9962886E-04  8.1952563E-04
   0.00000  8.2842328E-04  1.1807704E-03  9.4404183E-04
   1.00000  9.6318933E-04  1.4323880E-03  1.1132915E-03
   2.00000  1.1530508E-03  1.8043217E-03  1.3593542E-03
   3.00000  1.4493907E-03  2.4111304E-03  1.7593703E-03
   4.00000  2.0189937E-03  3.6060492E-03  2.5673425E-03
   5.00000  3.6016648E-03  6.8728825E-03  4.9375951E-03
   5.20000  4.1064406E-03  7.9258529E-03  5.7442364E-03
   5.40000  4.6196639E-03  9.0297632E-03  6.6068081E-03
   5.60000  5.1258283E-03  1.0171511E-02  7.4999677E-03
   5.80000  5.6267335E-03  1.1373338E-02  8.4115237E-03
   6.00000  6.1288493E-03  1.2668127E-02  9.3258720E-03
   6.20000  6.6379721E-03  1.4087930E-02  1.0217371E-02
   6.40000  7.1590650E-03  1.5661911E-02  1.1053654E-02
   6.60000  7.6976040E-03  1.7417190E-02  1.1805530E-02
   6.80000  8.2608195E-03  1.9379996E-02  1.2459615E-02
   7.00000  8.8580464E-03  2.1575834E-02  1.3027726E-02
   7.20000  9.4998332E-03  2.4027678E-02  1.3547276E-02
   7.40000  1.0195952E-02  2.6751945E-02  1.4071464E-02
   7.60000  1.0952646E-02  2.9751946E-02  1.4653709E-02
   7.80000  1.1769447E-02  3.3008763E-02  1.5332763E-02
   8.00000  1.2636265E-02  3.6472250E-02  1.6123032E-02
   8.20000  1.3532160E-02  4.0057433E-02  1.7012155E-02
   8.40000  1.4427663E-02  4.3651747E-02  1.7966771E-02
   8.60000  1.5291812E-02  4.7134304E-02  1.8946101E-02
   8.80000  1.6102325E-02  5.0399346E-02  1.9919226E-02
   9.00000  1.6854254E-02  5.3369045E-02  2.0878000E-02
   9.20000  1.7562325E-02  5.5986133E-02  2.1838620E-02
   9.40000  1.8256098E-02  5.8193020E-02  2.2831856E-02
   9.60000  1.8971206E-02  5.9914674E-02  2.3888555E-02
   9.80000  1.9740666E-02  6.1057847E-02  2.5027501E-02
   10.0000  2.0588776E-02  6.1528725E-02  2.6249717E-02
   10.2500  2.1777915E-02  6.1077583E-02  2.7869425E-02
   10.5000  2.3108810E-02  5.9476161E-02  2.9538553E-02
   10.7500  2.4556758E-02  5.6881677E-02  3.1188237E-02
   11.0000  2.6078900E-02  5.3570335E-02  3.2746245E-02
   11.2500  2.7620943E-02  4.9859919E-02  3.4144899E-02
   11.5000  2.9122680E-02  4.6039404E-02  3.5328876E-02
   11.7500  3.0523836E-02  4.2328314E-02  3.6259334E-02
   12.0000  3.1771865E-02  3.8867202E-02  3.6915516E-02
   12.2500  3.2830352E-02  3.5730645E-02  3.7299151E-02
   12.5000  3.3685128E-02  3.2947780E-02  3.7437268E-02
   12.7500  3.4345299E-02  3.0519234E-02  3.7378109E-02
   13.0000  3.4837961E-02  2.8428276E-02  3.7181564E-02
   13.2500  3.5200112E-02  2.6647987E-02  3.6907593E-02
   13.5000  3.5472201E-02  2.5146301E-02  3.6607525E-02
   13.7500  3.5692687E-02  2.3889790E-02  3.6321695E-02
   14.0000  3.5892646E-02  2.2846396E-02  3.6080964E-02
   14.2500  3.6092724E-02  2.1986939E-02  3.5908219E-02
   14.5000  3.6303638E-02  2.1285609E-02  3.5819057E-02
   14.7500  3.6528382E-02  2.0719946E-02  3.5822194E-02
   15.0000  3.6764270E-02  2.0270691E-02  3.5919782E-02
   15.2500  3.7004436E-02  1.9921585E-02  3.6107614E-02
   15.5000  3.7239024E-02  1.9659119E-02  3.6375261E-02
   15.7500  3.7456282E-02  1.9472253E-02  3.6706255E-02
   16.0000  3.7643708E-02  1.9352125E-02  3.7078540E-02
   16.2500  3.7789270E-02  1.9291766E-02  3.7465395E-02
   16.5000  3.7882672E-02  1.9285846E-02  3.7836971E-02
   16.7500  3.7916516E-02  1.9330427E-02  3.8162498E-02
   17.0000  3.7887215E-02  1.9422717E-02  3.8412986E-02
   17.2500  3.7795482E-02  1.9560807E-02  3.8564087E-02
   17.5000  3.7646302E-02  1.9743374E-02  3.8598616E-02
   17.7500  3.7448390E-02  1.9969373E-02  3.8508248E-02
   18.0000  3.7213232E-02  2.0237743E-02  3.8294051E-02
   18.2500  3.6953896E-02  2.0547159E-02  3.7965767E-02
   18.5000  3.6683817E-02  2.0895869E-02  3.7540052E-02
   18.7500  3.6415723E-02  2.1281633E-02  3.7038071E-02
   19.0000  3.6160825E-02  2.1701773E-02  3.6482911E-02
   19.2500  3.5928291E-02  2.2153336E-02  3.5897194E-02
   19.5000  3.5724998E-02  2.2633298E-02  3.5301163E-02
   19.7500  3.5555508E-02  2.3138727E-02  3.4711456E-02
   20.0000  3.5422238E-02  2.3666688E-02  3.4140755E-02
   21.0000  3.5246583E-02  2.5928347E-02  3.2199544E-02
   22.0000  3.5519642E-02  2.8245128E-02  3.0910454E-02
   23.0000  3.5935359E-02  3.0393511E-02  3.0126993E-02
   24.0000  3.6117069E-02  3.2129509E-02  2.9631281E-02
   25.0000  3.5776666E-02  3.3240965E-02  2.9272118E-02
   26.0000  3.4840898E-02  3.3650160E-02  2.8972076E-02
   27.0000  3.3452838E-02  3.3447059E-02  2.8700942E-02
   28.0000  3.1872029E-02  3.2820125E-02  2.8460082E-02
   29.0000  3.0352124E-02  3.1955476E-02  2.8272841E-02
   30.0000  2.9048332E-02  3.0984880E-02  2.8162762E-02
   31.0000  2.7993001E-02  2.9990098E-02  2.8126868E-02
   32.0000  2.7137472E-02  2.9018732E-02  2.8128859E-02
   33.0000  2.6413027E-02  2.8083812E-02  2.8114145E-02
   34.0000  2.5763878E-02  2.7180106E-02  2.8035212E-02
   35.0000  2.5155774E-02  2.6300457E-02  2.7864038E-02
   36.0000  2.4575351E-02  2.5443874E-02  2.7592473E-02
   37.0000  2.4025551E-02  2.4620141E-02  2.7231994E-02
   38.0000  2.3520438E-02  2.3852304E-02  2.6815913E-02
   39.0000  2.3082148E-02  2.3178023E-02  2.6399765E-02
   40.0000  2.2736946E-02  2.2645234E-02  2.6051216E-02
