    Energy   (100,001)      (010,001)      (001,110)   
  -25.0000  1.7516534E-04  1.8362756E-04  1.8403157E-04
  -24.0000  1.8122414E-04  1.9073809E-04  1.9029706E-04
  -23.0000  1.8767996E-04  1.9837156E-04  1.9697063E-04
  -22.0000  1.9457226E-04  2.0658621E-04  2.0409277E-04
  -21.0000  2.0194585E-04  2.1544909E-04  2.1170947E-04
  -20.0000  2.0985186E-04  2.2503782E-04  2.1987319E-04
  -19.0000  2.1834888E-04  2.3544269E-04  2.2864401E-04
  -18.0000  2.2750435E-04  2.4676936E-04  2.3809113E-04
  -17.0000  2.3739632E-04  2.5914219E-04  2.4829457E-04
  -16.0000  2.4811564E-04  2.7270858E-04  2.5934746E-04
  -15.0000  2.5976867E-04  2.8764442E-04  2.7135879E-04
  -14.0000  2.7248082E-04  3.0416127E-04  2.8445696E-04
  -13.0000  2.8640093E-04  3.2251576E-04  2.9879432E-04
  -12.0000  3.0170717E-04  3.4302208E-04  3.1455305E-04
  -11.0000  3.1861468E-04  3.6606884E-04  3.3195285E-04
  -10.0000  3.3738576E-04  3.9214222E-04  3.5126126E-04
  -9.00000  3.5834379E-04  4.2185809E-04  3.7280751E-04
  -8.00000  3.8189245E-04  4.5600781E-04  3.9700159E-04
  -7.00000  4.0854280E-04  4.9562453E-04  4.2436107E-04
  -6.00000  4.3895257E-04  5.4208190E-04  4.5554951E-04
  -5.00000  4.7398450E-04  5.9724504E-04  4.9143305E-04
  -4.00000  5.1479612E-04  6.6370933E-04  5.3316640E-04
  -3.00000  5.6298352E-04  7.4519310E-04  5.8232843E-04
  -2.00000  6.2082290E-04  8.4721513E-04  6.4114570E-04
  -1.00000  6.9170270E-04  9.7833472E-04  7.1288287E-04
   0.00000  7.8096072E-04  1.1526018E-03  8.0257588E-04
   1.00000  8.9769109E-04  1.3949189E-03  9.1855361E-04
   2.00000  1.0592912E-03  1.7546105E-03  1.0760791E-03
   3.00000  1.3058828E-03  2.3482508E-03  1.3082060E-03
   4.00000  1.7662685E-03  3.5525164E-03  1.7121900E-03
   5.00000  3.0053591E-03  7.0134702E-03  2.6818666E-03
   5.20000  3.3904543E-03  8.1183748E-03  2.9760315E-03
   5.40000  3.7742932E-03  9.2397694E-03  3.2780832E-03
   5.60000  4.1447692E-03  1.0349838E-02  3.5862626E-03
   5.80000  4.5056295E-03  1.1462861E-02  3.9095418E-03
   6.00000  4.8659705E-03  1.2605080E-02  4.2597247E-03
   6.20000  5.2353022E-03  1.3801152E-02  4.6481987E-03
   6.40000  5.6227351E-03  1.5072501E-02  5.0855695E-03
   6.60000  6.0375155E-03  1.6439351E-02  5.5818854E-03
   6.80000  6.4897849E-03  1.7923162E-02  6.1465586E-03
   7.00000  6.9909829E-03  1.9548314E-02  6.7876355E-03
   7.20000  7.5533628E-03  2.1342864E-02  7.5102137E-03
   7.40000  8.1882862E-03  2.3338994E-02  8.3140973E-03
   7.60000  8.9033188E-03  2.5572994E-02  9.1913077E-03
   7.80000  9.6986110E-03  2.8082878E-02  1.0124685E-02
   8.00000  1.0563649E-02  3.0901530E-02  1.1089159E-02
   8.20000  1.1475988E-02  3.4044229E-02  1.2056510E-02
   8.40000  1.2403601E-02  3.7492053E-02  1.3002530E-02
   8.60000  1.3311467E-02  4.1176820E-02  1.3913665E-02
   8.80000  1.4170904E-02  4.4975359E-02  1.4789781E-02
   9.00000  1.4968017E-02  4.8718097E-02  1.5641289E-02
   9.20000  1.5707200E-02  5.2210306E-02  1.6481707E-02
   9.40000  1.6408016E-02  5.5258723E-02  1.7319361E-02
   9.60000  1.7097454E-02  5.7695468E-02  1.8152582E-02
   9.80000  1.7801735E-02  5.9394655E-02  1.8970793E-02
   10.0000  1.8540690E-02  6.0281544E-02  1.9760476E-02
   10.2500  1.9528420E-02  6.0222659E-02  2.0694277E-02
   10.5000  2.0585872E-02  5.8946456E-02  2.1572508E-02
   10.7500  2.1692129E-02  5.6647234E-02  2.2420931E-02
   11.0000  2.2808470E-02  5.3598378E-02  2.3276473E-02
   11.2500  2.3881809E-02  5.0100688E-02  2.4170739E-02
   11.5000  2.4855963E-02  4.6432164E-02  2.5120050E-02
   11.7500  2.5689465E-02  4.2815514E-02  2.6124970E-02
   12.0000  2.6368518E-02  3.9406731E-02  2.7174242E-02
   12.2500  2.6907709E-02  3.6299297E-02  2.8250235E-02
   12.5000  2.7341360E-02  3.3536156E-02  2.9333926E-02
   12.7500  2.7713559E-02  3.1123414E-02  3.0408194E-02
   13.0000  2.8069591E-02  2.9043534E-02  3.1460137E-02
   13.2500  2.8447935E-02  2.7266847E-02  3.2480766E-02
   13.5000  2.8875147E-02  2.5759648E-02  3.3462154E-02
   13.7500  2.9365913E-02  2.4488504E-02  3.4396172E-02
   14.0000  2.9925871E-02  2.3422210E-02  3.5275426E-02
   14.2500  3.0553979E-02  2.2532759E-02  3.6094314E-02
   14.5000  3.1243724E-02  2.1795782E-02  3.6849220E-02
   14.7500  3.1983676E-02  2.1190577E-02  3.7537928E-02
   15.0000  3.2757942E-02  2.0699868E-02  3.8158598E-02
   15.2500  3.3546816E-02  2.0309423E-02  3.8708689E-02
   15.5000  3.4327788E-02  2.0007639E-02  3.9184131E-02
   15.7500  3.5076935E-02  1.9785145E-02  3.9579029E-02
   16.0000  3.5770650E-02  1.9634442E-02  3.9886083E-02
   16.2500  3.6387549E-02  1.9549595E-02  4.0097719E-02
   16.5000  3.6910345E-02  1.9525946E-02  4.0207702E-02
   16.7500  3.7327444E-02  1.9559848E-02  4.0212846E-02
   17.0000  3.7634024E-02  1.9648411E-02  4.0114392E-02
   17.2500  3.7832413E-02  1.9789253E-02  3.9918670E-02
   17.5000  3.7931674E-02  1.9980282E-02  3.9636917E-02
   17.7500  3.7946463E-02  2.0219504E-02  3.9284309E-02
   18.0000  3.7895341E-02  2.0504879E-02  3.8878494E-02
   18.2500  3.7798834E-02  2.0834228E-02  3.8437953E-02
   18.5000  3.7677535E-02  2.1205189E-02  3.7980507E-02
   18.7500  3.7550495E-02  2.1615219E-02  3.7522160E-02
   19.0000  3.7434059E-02  2.2061646E-02  3.7076342E-02
   19.2500  3.7341184E-02  2.2541758E-02  3.6653541E-02
   19.5000  3.7281179E-02  2.3052907E-02  3.6261211E-02
   19.7500  3.7259759E-02  2.3592524E-02  3.5903929E-02
   20.0000  3.7279302E-02  2.4157865E-02  3.5583782E-02
   21.0000  3.7725228E-02  2.6592375E-02  3.4663546E-02
   22.0000  3.8504720E-02  2.9057424E-02  3.4198977E-02
   23.0000  3.9171343E-02  3.1212038E-02  3.3948411E-02
   24.0000  3.9300071E-02  3.2752030E-02  3.3689363E-02
   25.0000  3.8618549E-02  3.3531890E-02  3.3279346E-02
   26.0000  3.7116459E-02  3.3609830E-02  3.2670863E-02
   27.0000  3.5070697E-02  3.3172004E-02  3.1915761E-02
   28.0000  3.2902259E-02  3.2426191E-02  3.1138931E-02
   29.0000  3.0963301E-02  3.1541237E-02  3.0469456E-02
   30.0000  2.9427648E-02  3.0631807E-02  2.9977103E-02
   31.0000  2.8312949E-02  2.9761855E-02  2.9661701E-02
   32.0000  2.7553571E-02  2.8954323E-02  2.9481935E-02
   33.0000  2.7059800E-02  2.8207367E-02  2.9386984E-02
   34.0000  2.6748215E-02  2.7509207E-02  2.9331212E-02
   35.0000  2.6549646E-02  2.6842288E-02  2.9271609E-02
   36.0000  2.6404451E-02  2.6193603E-02  2.9168233E-02
   37.0000  2.6258957E-02  2.5560092E-02  2.8992215E-02
   38.0000  2.6073344E-02  2.4949224E-02  2.8738321E-02
   39.0000  2.5842364E-02  2.4386528E-02  2.8437159E-02
   40.0000  2.5611061E-02  2.3923052E-02  2.8156183E-02
