    Energy   (100,001)      (010,001)      (001,110)   
  -25.0000  1.7023502E-04  1.8389801E-04  1.8283140E-04
  -24.0000  1.7620205E-04  1.9083331E-04  1.8919809E-04
  -23.0000  1.8255939E-04  1.9826598E-04  1.9598702E-04
  -22.0000  1.8934537E-04  2.0625008E-04  2.0324072E-04
  -21.0000  1.9660344E-04  2.1484773E-04  2.1100762E-04
  -20.0000  2.0438307E-04  2.2413057E-04  2.1934306E-04
  -19.0000  2.1274076E-04  2.3418167E-04  2.2831057E-04
  -18.0000  2.2174141E-04  2.4509789E-04  2.3798347E-04
  -17.0000  2.3145989E-04  2.5699283E-04  2.4844679E-04
  -16.0000  2.4198304E-04  2.7000054E-04  2.5979974E-04
  -15.0000  2.5341218E-04  2.8428032E-04  2.7215882E-04
  -14.0000  2.6586624E-04  3.0002288E-04  2.8566175E-04
  -13.0000  2.7948583E-04  3.1745838E-04  3.0047259E-04
  -12.0000  2.9443843E-04  3.3686708E-04  3.1678841E-04
  -11.0000  3.1092517E-04  3.5859358E-04  3.3484815E-04
  -10.0000  3.2918991E-04  3.8306621E-04  3.5494451E-04
  -9.00000  3.4953142E-04  4.1082377E-04  3.7744030E-04
  -8.00000  3.7232009E-04  4.4255321E-04  4.0279126E-04
  -7.00000  3.9802144E-04  4.7914378E-04  4.3157874E-04
  -6.00000  4.2722987E-04  5.2176664E-04  4.6455764E-04
  -5.00000  4.6071857E-04  5.7199534E-04  5.0272931E-04
  -4.00000  4.9951610E-04  6.3199386E-04  5.4745618E-04
  -3.00000  5.4502869E-04  7.0482174E-04  6.0065097E-04
  -2.00000  5.9924627E-04  7.9495268E-04  6.6510683E-04
  -1.00000  6.6511374E-04  9.0920909E-04  7.4511623E-04
   0.00000  7.4726081E-04  1.0585789E-03  8.4774279E-04
   1.00000  8.5361696E-04  1.2621296E-03  9.8577553E-04
   2.00000  9.9962984E-04  1.5567807E-03  1.1858534E-03
   3.00000  1.2223444E-03  2.0279041E-03  1.5170129E-03
   4.00000  1.6487854E-03  2.9473489E-03  2.2357102E-03
   5.00000  2.8609172E-03  5.4886736E-03  4.5981473E-03
   5.20000  3.2278086E-03  6.2770448E-03  5.3408903E-03
   5.40000  3.5743045E-03  7.0611530E-03  6.0171851E-03
   5.60000  3.8856966E-03  7.8216882E-03  6.5585457E-03
   5.80000  4.1659503E-03  8.5740006E-03  6.9446602E-03
   6.00000  4.4240689E-03  9.3437592E-03  7.1920344E-03
   6.20000  4.6684821E-03  1.0155184E-02  7.3387217E-03
   6.40000  4.9069312E-03  1.1028458E-02  7.4271820E-03
   6.60000  5.1469545E-03  1.1980150E-02  7.4930396E-03
   6.80000  5.3953194E-03  1.3024482E-02  7.5634167E-03
   7.00000  5.6572218E-03  1.4174958E-02  7.6598555E-03
   7.20000  5.9361935E-03  1.5446068E-02  7.8005626E-03
   7.40000  6.2347079E-03  1.6854675E-02  8.0010121E-03
   7.60000  6.5549738E-03  1.8420669E-02  8.2740235E-03
   7.80000  6.8995231E-03  2.0166832E-02  8.6300107E-03
   8.00000  7.2714938E-03  2.2118050E-02  9.0773449E-03
   8.20000  7.6746866E-03  2.4299903E-02  9.6225436E-03
   8.40000  8.1135170E-03  2.6736658E-02  1.0270112E-02
   8.60000  8.5929241E-03  2.9448401E-02  1.1021996E-02
   8.80000  9.1182477E-03  3.2446747E-02  1.1876729E-02
   9.00000  9.6950663E-03  3.5728626E-02  1.2828531E-02
   9.20000  1.0328983E-02  3.9267998E-02  1.3866688E-02
   9.40000  1.1025341E-02  4.3006152E-02  1.4975552E-02
   9.60000  1.1788857E-02  4.6842955E-02  1.6135453E-02
   9.80000  1.2623187E-02  5.0632760E-02  1.7324705E-02
   10.0000  1.3530509E-02  5.4186847E-02  1.8522536E-02
   10.2500  1.4767752E-02  5.7957382E-02  2.0006807E-02
   10.5000  1.6115805E-02  6.0564257E-02  2.1459055E-02
   10.7500  1.7564417E-02  6.1665358E-02  2.2874088E-02
   11.0000  1.9094792E-02  6.1145415E-02  2.4256707E-02
   11.2500  2.0678792E-02  5.9160588E-02  2.5617853E-02
   11.5000  2.2280883E-02  5.6080998E-02  2.6971597E-02
   11.7500  2.3862566E-02  5.2365178E-02  2.8330292E-02
   12.0000  2.5388180E-02  4.8435721E-02  2.9698475E-02
   12.2500  2.6830231E-02  4.4607025E-02  3.1069410E-02
   12.5000  2.8172096E-02  4.1069759E-02  3.2424956E-02
   12.7500  2.9408022E-02  3.7911234E-02  3.3737407E-02
   13.0000  3.0541045E-02  3.5148677E-02  3.4973147E-02
   13.2500  3.1578672E-02  3.2760044E-02  3.6098445E-02
   13.5000  3.2528454E-02  3.0706168E-02  3.7086188E-02
   13.7500  3.3396750E-02  2.8943820E-02  3.7920844E-02
   14.0000  3.4189700E-02  2.7432223E-02  3.8600573E-02
   14.2500  3.4914071E-02  2.6135764E-02  3.9136674E-02
   14.5000  3.5577399E-02  2.5024613E-02  3.9550726E-02
   14.7500  3.6187711E-02  2.4074308E-02  3.9870260E-02
   15.0000  3.6753087E-02  2.3264909E-02  4.0124034E-02
   15.2500  3.7281166E-02  2.2580100E-02  4.0337911E-02
   15.5000  3.7778668E-02  2.2006397E-02  4.0531874E-02
   15.7500  3.8250928E-02  2.1532511E-02  4.0718348E-02
   16.0000  3.8701513E-02  2.1148868E-02  4.0901717E-02
   16.2500  3.9131982E-02  2.0847239E-02  4.1078850E-02
   16.5000  3.9541896E-02  2.0620474E-02  4.1240448E-02
   16.7500  3.9929138E-02  2.0462293E-02  4.1373005E-02
   17.0000  4.0290531E-02  2.0367130E-02  4.1461167E-02
   17.2500  4.0622689E-02  2.0330010E-02  4.1490206E-02
   17.5000  4.0922936E-02  2.0346449E-02  4.1448275E-02
   17.7500  4.1190118E-02  2.0412373E-02  4.1328133E-02
   18.0000  4.1425140E-02  2.0524047E-02  4.1128082E-02
   18.2500  4.1631103E-02  2.0678009E-02  4.0852038E-02
   18.5000  4.1813041E-02  2.0871027E-02  4.0508800E-02
   18.7500  4.1977326E-02  2.1100057E-02  4.0110754E-02
   19.0000  4.2130881E-02  2.1362237E-02  3.9672283E-02
   19.2500  4.2280370E-02  2.1654914E-02  3.9208178E-02
   19.5000  4.2431472E-02  2.1975680E-02  3.8732249E-02
   19.7500  4.2588311E-02  2.2322373E-02  3.8256343E-02
   20.0000  4.2753020E-02  2.2692908E-02  3.7789981E-02
   21.0000  4.3456724E-02  2.4360312E-02  3.6149364E-02
   22.0000  4.3975092E-02  2.6197647E-02  3.4990893E-02
   23.0000  4.3830739E-02  2.8076532E-02  3.4213364E-02
   24.0000  4.2651890E-02  2.9894861E-02  3.3588867E-02
   25.0000  4.0422357E-02  3.1548446E-02  3.2915877E-02
   26.0000  3.7489474E-02  3.2913544E-02  3.2094734E-02
   27.0000  3.4355294E-02  3.3872088E-02  3.1137679E-02
   28.0000  3.1483891E-02  3.4364830E-02  3.0147296E-02
   29.0000  2.9184429E-02  3.4418201E-02  2.9265280E-02
   30.0000  2.7511712E-02  3.4113458E-02  2.8583512E-02
   31.0000  2.6375499E-02  3.3548356E-02  2.8126754E-02
   32.0000  2.5656318E-02  3.2810359E-02  2.7869446E-02
   33.0000  2.5243528E-02  3.1962288E-02  2.7756137E-02
   34.0000  2.5040158E-02  3.1041196E-02  2.7722380E-02
   35.0000  2.4955982E-02  3.0066670E-02  2.7708159E-02
   36.0000  2.4901113E-02  2.9053060E-02  2.7663917E-02
   37.0000  2.4790818E-02  2.8021551E-02  2.7554477E-02
   38.0000  2.4568928E-02  2.7010672E-02  2.7365910E-02
   39.0000  2.4243658E-02  2.6085608E-02  2.7117835E-02
   40.0000  2.3903132E-02  2.5337007E-02  2.6871892E-02
