    Energy   (100,001)      (010,001)      (001,110)   
  -25.0000  1.6737302E-04  1.8204304E-04  1.7444375E-04
  -24.0000  1.7360177E-04  1.8899769E-04  1.8107679E-04
  -23.0000  1.8026025E-04  1.9645659E-04  1.8818170E-04
  -22.0000  1.8739276E-04  2.0447512E-04  1.9580886E-04
  -21.0000  1.9504977E-04  2.1311694E-04  2.0401599E-04
  -20.0000  2.0328904E-04  2.2245558E-04  2.1286943E-04
  -19.0000  2.1217699E-04  2.3257644E-04  2.2244589E-04
  -18.0000  2.2179033E-04  2.4357924E-04  2.3283447E-04
  -17.0000  2.3221814E-04  2.5558108E-04  2.4413926E-04
  -16.0000  2.4356444E-04  2.6872042E-04  2.5648264E-04
  -15.0000  2.5595149E-04  2.8316209E-04  2.7000938E-04
  -14.0000  2.6952388E-04  2.9910380E-04  2.8489202E-04
  -13.0000  2.8445391E-04  3.1678469E-04  3.0133779E-04
  -12.0000  3.0094853E-04  3.3649661E-04  3.1959777E-04
  -11.0000  3.1925852E-04  3.5859937E-04  3.3997900E-04
  -10.0000  3.3969082E-04  3.8354140E-04  3.6286101E-04
  -9.00000  3.6262520E-04  4.1188859E-04  3.8871849E-04
  -8.00000  3.8853750E-04  4.4436487E-04  4.1815303E-04
  -7.00000  4.1803247E-04  4.8191093E-04  4.5193870E-04
  -6.00000  4.5189136E-04  5.2577099E-04  4.9108889E-04
  -5.00000  4.9114315E-04  5.7762469E-04  5.3695723E-04
  -4.00000  5.3717441E-04  6.3979443E-04  5.9139515E-04
  -3.00000  5.9190641E-04  7.1558366E-04  6.5700797E-04
  -2.00000  6.5809550E-04  8.0985594E-04  7.3759136E-04
  -1.00000  7.3987724E-04  9.3008560E-04  8.3892213E-04
   0.00000  8.4384102E-04  1.0884133E-03  9.7030618E-04
   1.00000  9.8141731E-04  1.3060972E-03  1.1479398E-03
   2.00000  1.1751454E-03  1.6246495E-03  1.4033541E-03
   3.00000  1.4798026E-03  2.1405607E-03  1.8098268E-03
   4.00000  2.0869909E-03  3.1598557E-03  2.5995654E-03
   5.00000  3.8743446E-03  6.0022957E-03  4.7801376E-03
   5.20000  4.3915256E-03  6.9053919E-03  5.4869193E-03
   5.40000  4.8456684E-03  7.8257776E-03  6.2249799E-03
   5.60000  5.2148061E-03  8.7427559E-03  6.9814540E-03
   5.80000  5.5168827E-03  9.6704982E-03  7.7669513E-03
   6.00000  5.7831774E-03  1.0634506E-02  8.5984802E-03
   6.20000  6.0433756E-03  1.1660302E-02  9.4899463E-03
   6.40000  6.3212823E-03  1.2770858E-02  1.0447762E-02
   6.60000  6.6349245E-03  1.3986535E-02  1.1467948E-02
   6.80000  6.9977138E-03  1.5325226E-02  1.2535079E-02
   7.00000  7.4195566E-03  1.6802143E-02  1.3625528E-02
   7.20000  7.9078773E-03  1.8429253E-02  1.4716372E-02
   7.40000  8.4687773E-03  2.0214659E-02  1.5796673E-02
   7.60000  9.1081944E-03  2.2161925E-02  1.6873604E-02
   7.80000  9.8324792E-03  2.4269180E-02  1.7968258E-02
   8.00000  1.0647959E-02  2.6528595E-02  1.9104027E-02
   8.20000  1.1559682E-02  2.8927579E-02  2.0295525E-02
   8.40000  1.2570029E-02  3.1452649E-02  2.1543970E-02
   8.60000  1.3677957E-02  3.4094791E-02  2.2839562E-02
   8.80000  1.4879256E-02  3.6851918E-02  2.4167398E-02
   9.00000  1.6167624E-02  3.9722974E-02  2.5512370E-02
   9.20000  1.7535830E-02  4.2692602E-02  2.6860283E-02
   9.40000  1.8976183E-02  4.5712432E-02  2.8195974E-02
   9.60000  2.0480029E-02  4.8688407E-02  2.9501594E-02
   9.80000  2.2036548E-02  5.1480919E-02  3.0757483E-02
   10.0000  2.3631242E-02  5.3919726E-02  3.1944731E-02
   10.2500  2.5647770E-02  5.6208731E-02  3.3306755E-02
   10.5000  2.7642373E-02  5.7410841E-02  3.4508889E-02
   10.7500  2.9555304E-02  5.7414698E-02  3.5540400E-02
   11.0000  3.1323260E-02  5.6287650E-02  3.6413609E-02
   11.2500  3.2884781E-02  5.4235682E-02  3.7159998E-02
   11.5000  3.4187203E-02  5.1529801E-02  3.7818464E-02
   11.7500  3.5196141E-02  4.8441256E-02  3.8424322E-02
   12.0000  3.5903671E-02  4.5202554E-02  3.9002272E-02
   12.2500  3.6332505E-02  4.1991812E-02  3.9563020E-02
   12.5000  3.6534001E-02  3.8933535E-02  4.0103363E-02
   12.7500  3.6578781E-02  3.6107021E-02  4.0608013E-02
   13.0000  3.6543460E-02  3.3555979E-02  4.1052709E-02
   13.2500  3.6499169E-02  3.1297129E-02  4.1410051E-02
   13.5000  3.6504181E-02  2.9327789E-02  4.1657919E-02
   13.7500  3.6600322E-02  2.7632495E-02  4.1786681E-02
   14.0000  3.6812321E-02  2.6188346E-02  4.1801084E-02
   14.2500  3.7149170E-02  2.4968993E-02  4.1717035E-02
   14.5000  3.7606597E-02  2.3947462E-02  4.1556037E-02
   14.7500  3.8169852E-02  2.3098008E-02  4.1339656E-02
   15.0000  3.8816370E-02  2.2397237E-02  4.1085451E-02
   15.2500  3.9518184E-02  2.1824671E-02  4.0804880E-02
   15.5000  4.0244115E-02  2.1362949E-02  4.0503080E-02
   15.7500  4.0961860E-02  2.0997757E-02  4.0180007E-02
   16.0000  4.1640009E-02  2.0717583E-02  3.9832342E-02
   16.2500  4.2249983E-02  2.0513331E-02  3.9455582E-02
   16.5000  4.2767783E-02  2.0377868E-02  3.9045882E-02
   16.7500  4.3175454E-02  2.0305542E-02  3.8601356E-02
   17.0000  4.3462119E-02  2.0291733E-02  3.8122733E-02
   17.2500  4.3624465E-02  2.0332471E-02  3.7613438E-02
   17.5000  4.3666600E-02  2.0424158E-02  3.7079226E-02
   17.7500  4.3599224E-02  2.0563382E-02  3.6527571E-02
   18.0000  4.3438177E-02  2.0746820E-02  3.5966947E-02
   18.2500  4.3202542E-02  2.0971203E-02  3.5406141E-02
   18.5000  4.2912569E-02  2.1233325E-02  3.4853646E-02
   18.7500  4.2587708E-02  2.1530074E-02  3.4317186E-02
   19.0000  4.2245007E-02  2.1858490E-02  3.3803356E-02
   19.2500  4.1898009E-02  2.2215834E-02  3.3317383E-02
   19.5000  4.1556182E-02  2.2599665E-02  3.2862975E-02
   19.7500  4.1224847E-02  2.3007838E-02  3.2442284E-02
   20.0000  4.0905519E-02  2.3438308E-02  3.2056064E-02
   21.0000  3.9687839E-02  2.5327551E-02  3.0843432E-02
   22.0000  3.8296015E-02  2.7336524E-02  3.0071719E-02
   23.0000  3.6421001E-02  2.9274072E-02  2.9549087E-02
   24.0000  3.4053227E-02  3.0948909E-02  2.9094316E-02
   25.0000  3.1500691E-02  3.2200675E-02  2.8598762E-02
   26.0000  2.9169590E-02  3.2949330E-02  2.8036005E-02
   27.0000  2.7290037E-02  3.3232187E-02  2.7435594E-02
   28.0000  2.5898520E-02  3.3149094E-02  2.6858180E-02
   29.0000  2.4932548E-02  3.2811139E-02  2.6367984E-02
   30.0000  2.4301487E-02  3.2316496E-02  2.6003034E-02
   31.0000  2.3915534E-02  3.1736016E-02  2.5759819E-02
   32.0000  2.3690555E-02  3.1107912E-02  2.5600539E-02
   33.0000  2.3548861E-02  3.0441639E-02  2.5471771E-02
   34.0000  2.3421225E-02  2.9727646E-02  2.5319808E-02
   35.0000  2.3250364E-02  2.8949667E-02  2.5098358E-02
   36.0000  2.2997578E-02  2.8097256E-02  2.4772414E-02
   37.0000  2.2652368E-02  2.7177873E-02  2.4324266E-02
   38.0000  2.2239436E-02  2.6228346E-02  2.3766255E-02
   39.0000  2.1815766E-02  2.5324886E-02  2.3159474E-02
   40.0000  2.1453814E-02  2.4577899E-02  2.2617347E-02
