    Energy   (100,001)      (010,001)      (001,110)   
  -25.0000  1.6779078E-04  1.8711197E-04  1.8091515E-04
  -24.0000  1.7380301E-04  1.9411331E-04  1.8733492E-04
  -23.0000  1.8021470E-04  2.0161499E-04  1.9418734E-04
  -22.0000  1.8706552E-04  2.0967135E-04  2.0151660E-04
  -21.0000  1.9440046E-04  2.1834475E-04  2.0937305E-04
  -20.0000  2.0227075E-04  2.2770717E-04  2.1781432E-04
  -19.0000  2.1073501E-04  2.3784202E-04  2.2690662E-04
  -18.0000  2.1986058E-04  2.4884657E-04  2.3672648E-04
  -17.0000  2.2972517E-04  2.6083486E-04  2.4736279E-04
  -16.0000  2.4041901E-04  2.7394147E-04  2.5891936E-04
  -15.0000  2.5204740E-04  2.8832628E-04  2.7151824E-04
  -14.0000  2.6473399E-04  3.0418065E-04  2.8530389E-04
  -13.0000  2.7862496E-04  3.2173546E-04  3.0044856E-04
  -12.0000  2.9389442E-04  3.4127179E-04  3.1715933E-04
  -11.0000  3.1075138E-04  3.6313507E-04  3.3568743E-04
  -10.0000  3.2944905E-04  3.8775447E-04  3.5634072E-04
  -9.00000  3.5029721E-04  4.1566954E-04  3.7950076E-04
  -8.00000  3.7367916E-04  4.4756770E-04  4.0564657E-04
  -7.00000  4.0007519E-04  4.8433795E-04  4.3538833E-04
  -6.00000  4.3009603E-04  5.2714982E-04  4.6951658E-04
  -5.00000  4.6453144E-04  5.7757238E-04  5.0907613E-04
  -4.00000  5.0442345E-04  6.3775941E-04  5.5548097E-04
  -3.00000  5.5118046E-04  7.1074877E-04  6.1070103E-04
  -2.00000  6.0676361E-04  8.0096857E-04  6.7758229E-04
  -1.00000  6.7400958E-04  9.1514389E-04  7.6043424E-04
   0.00000  7.5723444E-04  1.0640462E-03  8.6620895E-04
   1.00000  8.6348950E-04  1.2662277E-03  1.0071709E-03
   2.00000  1.0056045E-03  1.5572454E-03  1.2080579E-03
   3.00000  1.2115055E-03  2.0181990E-03  1.5307202E-03
   4.00000  1.5656370E-03  2.9030539E-03  2.1976908E-03
   5.00000  2.4260315E-03  5.2957045E-03  4.2684173E-03
   5.20000  2.6895564E-03  6.0353771E-03  4.9017400E-03
   5.40000  2.9563395E-03  6.7722814E-03  5.4784276E-03
   5.60000  3.2185304E-03  7.4870739E-03  5.9511072E-03
   5.80000  3.4777459E-03  8.1928278E-03  6.3068197E-03
   6.00000  3.7391810E-03  8.9140450E-03  6.5533789E-03
   6.20000  4.0086542E-03  9.6760268E-03  6.7160208E-03
   6.40000  4.2917455E-03  1.0501924E-02  6.8340965E-03
   6.60000  4.5935718E-03  1.1412711E-02  6.9514332E-03
   6.80000  4.9188207E-03  1.2428331E-02  7.1054980E-03
   7.00000  5.2719640E-03  1.3569211E-02  7.3218884E-03
   7.20000  5.6574934E-03  1.4857591E-02  7.6149795E-03
   7.40000  6.0800542E-03  1.6318408E-02  7.9916744E-03
   7.60000  6.5444588E-03  1.7979556E-02  8.4553856E-03
   7.80000  7.0556023E-03  1.9871242E-02  9.0089339E-03
   8.00000  7.6183152E-03  2.2024170E-02  9.6561330E-03
   8.20000  8.2371976E-03  2.4466326E-02  1.0402231E-02
   8.40000  8.9164125E-03  2.7217865E-02  1.1253522E-02
   8.60000  9.6593647E-03  3.0283597E-02  1.2216479E-02
   8.80000  1.0468285E-02  3.3643763E-02  1.3296731E-02
   9.00000  1.1343826E-02  3.7245680E-02  1.4498106E-02
   9.20000  1.2284790E-02  4.1000577E-02  1.5821899E-02
   9.40000  1.3288164E-02  4.4789927E-02  1.7266453E-02
   9.60000  1.4349626E-02  4.8481456E-02  1.8827152E-02
   9.80000  1.5464580E-02  5.1947658E-02  2.0496864E-02
   10.0000  1.6629411E-02  5.5075577E-02  2.2266634E-02
   10.2500  1.8153042E-02  5.8354128E-02  2.4603850E-02
   10.5000  1.9752031E-02  6.0746990E-02  2.7059479E-02
   10.7500  2.1426543E-02  6.2064575E-02  2.9608859E-02
   11.0000  2.3170070E-02  6.2172585E-02  3.2216569E-02
   11.2500  2.4963349E-02  6.1056168E-02  3.4822104E-02
   11.5000  2.6769375E-02  5.8847837E-02  3.7330809E-02
   11.7500  2.8531485E-02  5.5795555E-02  3.9618154E-02
   12.0000  3.0179546E-02  5.2199254E-02  4.1548741E-02
   12.2500  3.1642968E-02  4.8351214E-02  4.3006767E-02
   12.5000  3.2863563E-02  4.4496441E-02  4.3922706E-02
   12.7500  3.3805783E-02  4.0815223E-02  4.4286482E-02
   13.0000  3.4464944E-02  3.7422655E-02  4.4145975E-02
   13.2500  3.4869365E-02  3.4378317E-02  4.3592663E-02
   13.5000  3.5073931E-02  3.1700229E-02  4.2740364E-02
   13.7500  3.5148162E-02  2.9378762E-02  4.1704797E-02
   14.0000  3.5163657E-02  2.7388165E-02  4.0589046E-02
   14.2500  3.5184406E-02  2.5695009E-02  3.9476126E-02
   14.5000  3.5261208E-02  2.4263771E-02  3.8427267E-02
   14.7500  3.5429781E-02  2.3060189E-02  3.7483733E-02
   15.0000  3.5711395E-02  2.2053038E-02  3.6670178E-02
   15.2500  3.6114819E-02  2.1214908E-02  3.5998269E-02
   15.5000  3.6638665E-02  2.0522363E-02  3.5469884E-02
   15.7500  3.7273577E-02  1.9955751E-02  3.5079640E-02
   16.0000  3.8004012E-02  1.9498825E-02  3.4816816E-02
   16.2500  3.8809603E-02  1.9138273E-02  3.4666779E-02
   16.5000  3.9666218E-02  1.8863229E-02  3.4612130E-02
   16.7500  4.0546903E-02  1.8664810E-02  3.4633702E-02
   17.0000  4.1422944E-02  1.8535704E-02  3.4711519E-02
   17.2500  4.2265200E-02  1.8469833E-02  3.4825770E-02
   17.5000  4.3045773E-02  1.8462078E-02  3.4957759E-02
   17.7500  4.3739918E-02  1.8508074E-02  3.5090787E-02
   18.0000  4.4327962E-02  1.8604054E-02  3.5210871E-02
   18.2500  4.4796875E-02  1.8746727E-02  3.5307233E-02
   18.5000  4.5141162E-02  1.8933191E-02  3.5372495E-02
   18.7500  4.5362841E-02  1.9160873E-02  3.5402587E-02
   19.0000  4.5470485E-02  1.9427493E-02  3.5396388E-02
   19.2500  4.5477494E-02  1.9731068E-02  3.5355175E-02
   19.5000  4.5399963E-02  2.0069920E-02  3.5281965E-02
   19.7500  4.5254579E-02  2.0442638E-02  3.5180868E-02
   20.0000  4.5057048E-02  2.0847878E-02  3.5056594E-02
   21.0000  4.3993148E-02  2.2753532E-02  3.4428147E-02
   22.0000  4.2784311E-02  2.5006614E-02  3.3766760E-02
   23.0000  4.1399149E-02  2.7464632E-02  3.3143797E-02
   24.0000  3.9640964E-02  2.9949579E-02  3.2501338E-02
   25.0000  3.7398937E-02  3.2232935E-02  3.1764416E-02
   26.0000  3.4748405E-02  3.4062624E-02  3.0911802E-02
   27.0000  3.1983791E-02  3.5235863E-02  3.0002641E-02
   28.0000  2.9499702E-02  3.5687859E-02  2.9159256E-02
   29.0000  2.7522685E-02  3.5524462E-02  2.8492309E-02
   30.0000  2.6097132E-02  3.4939696E-02  2.8066320E-02
   31.0000  2.5166851E-02  3.4123964E-02  2.7886872E-02
   32.0000  2.4624527E-02  3.3215758E-02  2.7901643E-02
   33.0000  2.4345483E-02  3.2290991E-02  2.8021188E-02
   34.0000  2.4210946E-02  3.1375928E-02  2.8146856E-02
   35.0000  2.4119282E-02  3.0468093E-02  2.8191992E-02
   36.0000  2.3989831E-02  2.9556279E-02  2.8093712E-02
   37.0000  2.3768117E-02  2.8637056E-02  2.7820731E-02
   38.0000  2.3437990E-02  2.7728246E-02  2.7383334E-02
   39.0000  2.3037096E-02  2.6881863E-02  2.6848608E-02
   40.0000  2.2656295E-02  2.6186217E-02  2.6344944E-02
