    Energy   (100,001)      (010,001)      (001,110)   
  -25.0000  1.7014618E-04  1.7918719E-04  1.8485282E-04
  -24.0000  1.7605678E-04  1.8625273E-04  1.9139037E-04
  -23.0000  1.8235265E-04  1.9384206E-04  1.9837128E-04
  -22.0000  1.8907159E-04  2.0201370E-04  2.0584139E-04
  -21.0000  1.9625644E-04  2.1083501E-04  2.1385302E-04
  -20.0000  2.0395595E-04  2.2038395E-04  2.2246617E-04
  -19.0000  2.1222582E-04  2.3075125E-04  2.3174998E-04
  -18.0000  2.2112999E-04  2.4204302E-04  2.4178450E-04
  -17.0000  2.3074223E-04  2.5438420E-04  2.5266295E-04
  -16.0000  2.4114804E-04  2.6792277E-04  2.6449455E-04
  -15.0000  2.5244718E-04  2.8283533E-04  2.7740806E-04
  -14.0000  2.6475669E-04  2.9933422E-04  2.9155636E-04
  -13.0000  2.7821483E-04  3.1767688E-04  3.0712241E-04
  -12.0000  2.9298616E-04  3.3817834E-04  3.2432697E-04
  -11.0000  3.0926815E-04  3.6122802E-04  3.4343892E-04
  -10.0000  3.2729990E-04  3.8731264E-04  3.6478915E-04
  -9.00000  3.4737387E-04  4.1704823E-04  3.8878959E-04
  -8.00000  3.6985193E-04  4.5122531E-04  4.1595969E-04
  -7.00000  3.9518766E-04  4.9087439E-04  4.4696425E-04
  -6.00000  4.2395823E-04  5.3736306E-04  4.8266838E-04
  -5.00000  4.5691109E-04  5.9254393E-04  5.2422001E-04
  -4.00000  4.9503449E-04  6.5898760E-04  5.7317733E-04
  -3.00000  5.3966859E-04  7.4036375E-04  6.3171358E-04
  -2.00000  5.9268873E-04  8.4209440E-04  7.0296141E-04
  -1.00000  6.5682717E-04  9.7254050E-04  7.9162600E-04
   0.00000  7.3628500E-04  1.1453243E-03  9.0515990E-04
   1.00000  8.3803106E-04  1.3843539E-03  1.0562464E-03
   2.00000  9.7502482E-04  1.7363619E-03  1.2688323E-03
   3.00000  1.1763440E-03  2.3098080E-03  1.5962518E-03
   4.00000  1.5333671E-03  3.4466031E-03  2.1982420E-03
   5.00000  2.4401420E-03  6.6234047E-03  3.7349196E-03
   5.20000  2.7150974E-03  7.6513986E-03  4.2258728E-03
   5.40000  2.9881325E-03  8.7169391E-03  4.7473349E-03
   5.60000  3.2530279E-03  9.7908486E-03  5.2941575E-03
   5.80000  3.5150623E-03  1.0872180E-02  5.8710384E-03
   6.00000  3.7825945E-03  1.1968717E-02  6.4823640E-03
   6.20000  4.0632315E-03  1.3094199E-02  7.1320841E-03
   6.40000  4.3630684E-03  1.4272756E-02  7.8288686E-03
   6.60000  4.6867847E-03  1.5539126E-02  8.5897438E-03
   6.80000  5.0378504E-03  1.6933290E-02  9.4397623E-03
   7.00000  5.4186195E-03  1.8494436E-02  1.0408961E-02
   7.20000  5.8301853E-03  2.0257860E-02  1.1528232E-02
   7.40000  6.2719872E-03  2.2254760E-02  1.2824117E-02
   7.60000  6.7413159E-03  2.4513220E-02  1.4311542E-02
   7.80000  7.2330204E-03  2.7058867E-02  1.5983995E-02
   8.00000  7.7397975E-03  2.9914096E-02  1.7802695E-02
   8.20000  8.2533817E-03  3.3094977E-02  1.9688993E-02
   8.40000  8.7666878E-03  3.6605149E-02  2.1526530E-02
   8.60000  9.2765227E-03  4.0426597E-02  2.3179094E-02
   8.80000  9.7860413E-03  4.4508316E-02  2.4524397E-02
   9.00000  1.0305936E-02  4.8754384E-02  2.5493548E-02
   9.20000  1.0853652E-02  5.3013234E-02  2.6097314E-02
   9.40000  1.1450515E-02  5.7074499E-02  2.6422740E-02
   9.60000  1.2117543E-02  6.0682869E-02  2.6600847E-02
   9.80000  1.2871548E-02  6.3571494E-02  2.6764447E-02
   10.0000  1.3722728E-02  6.5508693E-02  2.7016399E-02
   10.2500  1.4926777E-02  6.6373107E-02  2.7541772E-02
   10.5000  1.6276052E-02  6.5470877E-02  2.8318641E-02
   10.7500  1.7745953E-02  6.3009377E-02  2.9292790E-02
   11.0000  1.9301942E-02  5.9379815E-02  3.0366272E-02
   11.2500  2.0904298E-02  5.5045029E-02  3.1432554E-02
   11.5000  2.2512745E-02  5.0437065E-02  3.2404729E-02
   11.7500  2.4090489E-02  4.5895660E-02  3.3229715E-02
   12.0000  2.5606650E-02  4.1649016E-02  3.3886388E-02
   12.2500  2.7037014E-02  3.7822995E-02  3.4374571E-02
   12.5000  2.8364510E-02  3.4465144E-02  3.4705406E-02
   12.7500  2.9579729E-02  3.1571474E-02  3.4895802E-02
   13.0000  3.0681032E-02  2.9108403E-02  3.4965773E-02
   13.2500  3.1674024E-02  2.7028338E-02  3.4937701E-02
   13.5000  3.2570267E-02  2.5280366E-02  3.4836070E-02
   13.7500  3.3385444E-02  2.3816758E-02  3.4686808E-02
   14.0000  3.4137555E-02  2.2595696E-02  3.4516202E-02
   14.2500  3.4845263E-02  2.1581657E-02  3.4349398E-02
   14.5000  3.5526237E-02  2.0744884E-02  3.4208648E-02
   14.7500  3.6195553E-02  2.0060616E-02  3.4111640E-02
   15.0000  3.6864297E-02  1.9508308E-02  3.4070193E-02
   15.2500  3.7538482E-02  1.9070927E-02  3.4089476E-02
   15.5000  3.8218364E-02  1.8734350E-02  3.4167794E-02
   15.7500  3.8898237E-02  1.8486876E-02  3.4296953E-02
   16.0000  3.9566762E-02  1.8318818E-02  3.4463196E-02
   16.2500  4.0207910E-02  1.8222160E-02  3.4648710E-02
   16.5000  4.0802526E-02  1.8190264E-02  3.4833614E-02
   16.7500  4.1330459E-02  1.8217613E-02  3.4998249E-02
   17.0000  4.1773076E-02  1.8299584E-02  3.5125464E-02
   17.2500  4.2115813E-02  1.8432265E-02  3.5202506E-02
   17.5000  4.2350357E-02  1.8612289E-02  3.5222194E-02
   17.7500  4.2476001E-02  1.8836717E-02  3.5183205E-02
   18.0000  4.2499893E-02  1.9102939E-02  3.5089484E-02
   18.2500  4.2436096E-02  1.9408617E-02  3.4949035E-02
   18.5000  4.2303684E-02  1.9751637E-02  3.4772394E-02
   18.7500  4.2124281E-02  2.0130094E-02  3.4571109E-02
   19.0000  4.1919518E-02  2.0542300E-02  3.4356446E-02
   19.2500  4.1708837E-02  2.0986811E-02  3.4138424E-02
   19.5000  4.1507890E-02  2.1462472E-02  3.3925209E-02
   19.7500  4.1327625E-02  2.1968376E-02  3.3722825E-02
   20.0000  4.1174036E-02  2.2503613E-02  3.3535195E-02
   21.0000  4.0804922E-02  2.4898013E-02  3.2957625E-02
   22.0000  4.0518451E-02  2.7561874E-02  3.2609022E-02
   23.0000  3.9797887E-02  3.0254620E-02  3.2335939E-02
   24.0000  3.8359008E-02  3.2638132E-02  3.1999168E-02
   25.0000  3.6286316E-02  3.4362688E-02  3.1528168E-02
   26.0000  3.3920676E-02  3.5215887E-02  3.0919795E-02
   27.0000  3.1643984E-02  3.5208614E-02  3.0223850E-02
   28.0000  2.9716034E-02  3.4534043E-02  2.9524153E-02
   29.0000  2.8240984E-02  3.3459361E-02  2.8915038E-02
   30.0000  2.7208435E-02  3.2227853E-02  2.8467325E-02
   31.0000  2.6536303E-02  3.0992967E-02  2.8192368E-02
   32.0000  2.6123100E-02  2.9825136E-02  2.8053597E-02
   33.0000  2.5877047E-02  2.8741142E-02  2.7996778E-02
   34.0000  2.5722044E-02  2.7727376E-02  2.7971706E-02
   35.0000  2.5596801E-02  2.6759243E-02  2.7940854E-02
   36.0000  2.5452965E-02  2.5816727E-02  2.7876712E-02
   37.0000  2.5256314E-02  2.4895273E-02  2.7756610E-02
   38.0000  2.4994498E-02  2.4012864E-02  2.7566795E-02
   39.0000  2.4690325E-02  2.3215103E-02  2.7319424E-02
   40.0000  2.4405739E-02  2.2571166E-02  2.7070978E-02
