    Energy   (100,001)      (010,001)      (001,110)   
  -25.0000  1.7317725E-04  1.8186981E-04  1.8707662E-04
  -24.0000  1.7902028E-04  1.8887771E-04  1.9353015E-04
  -23.0000  1.8523625E-04  1.9639676E-04  2.0041331E-04
  -22.0000  1.9186119E-04  2.0448335E-04  2.0776999E-04
  -21.0000  1.9893588E-04  2.1320233E-04  2.1565024E-04
  -20.0000  2.0650669E-04  2.2262867E-04  2.2411140E-04
  -19.0000  2.1462650E-04  2.3284945E-04  2.3321949E-04
  -18.0000  2.2335595E-04  2.4396640E-04  2.4305095E-04
  -17.0000  2.3276491E-04  2.5609912E-04  2.5369472E-04
  -16.0000  2.4293429E-04  2.6938905E-04  2.6525496E-04
  -15.0000  2.5395832E-04  2.8400472E-04  2.7785449E-04
  -14.0000  2.6594746E-04  3.0014843E-04  2.9163915E-04
  -13.0000  2.7903208E-04  3.1806508E-04  3.0678350E-04
  -12.0000  2.9336720E-04  3.3805384E-04  3.2349837E-04
  -11.0000  3.0913870E-04  3.6048387E-04  3.4204083E-04
  -10.0000  3.2657154E-04  3.8581586E-04  3.6272782E-04
  -9.00000  3.4594090E-04  4.1463190E-04  3.8595485E-04
  -8.00000  3.6758740E-04  4.4767780E-04  4.1222239E-04
  -7.00000  3.9193846E-04  4.8592440E-04  4.4217379E-04
  -6.00000  4.1953908E-04  5.3065852E-04  4.7665132E-04
  -5.00000  4.5109743E-04  5.8362181E-04  5.1678140E-04
  -4.00000  4.8755475E-04  6.4723005E-04  5.6410898E-04
  -3.00000  5.3019761E-04  7.2493350E-04  6.2081854E-04
  -2.00000  5.8084762E-04  8.2183873E-04  6.9011670E-04
  -1.00000  6.4220544E-04  9.4584948E-04  7.7693866E-04
   0.00000  7.1853255E-04  1.1099320E-03  8.8936513E-04
   1.00000  8.1717566E-04  1.3371202E-03  1.0417968E-03
   2.00000  9.5260090E-04  1.6733876E-03  1.2632662E-03
   3.00000  1.1600698E-03  2.2293267E-03  1.6249477E-03
   4.00000  1.5631919E-03  3.3746443E-03  2.3718502E-03
   5.00000  2.7364134E-03  6.7599651E-03  4.6011286E-03
   5.20000  3.0886686E-03  7.8124554E-03  5.2611705E-03
   5.40000  3.4127821E-03  8.8367176E-03  5.8682877E-03
   5.60000  3.6913980E-03  9.7991202E-03  6.4125410E-03
   5.80000  3.9290364E-03  1.0716101E-02  6.9325011E-03
   6.00000  4.1386985E-03  1.1618788E-02  7.4761438E-03
   6.20000  4.3337936E-03  1.2537072E-02  8.0803393E-03
   6.40000  4.5251104E-03  1.3497271E-02  8.7683295E-03
   6.60000  4.7202773E-03  1.4523652E-02  9.5539270E-03
   6.80000  4.9242616E-03  1.5640224E-02  1.0445637E-02
   7.00000  5.1402018E-03  1.6871986E-02  1.1448447E-02
   7.20000  5.3702999E-03  1.8245645E-02  1.2562852E-02
   7.40000  5.6166425E-03  1.9789616E-02  1.3781055E-02
   7.60000  5.8818117E-03  2.1532702E-02  1.5080936E-02
   7.80000  6.1692057E-03  2.3501504E-02  1.6420210E-02
   8.00000  6.4830745E-03  2.5717135E-02  1.7735032E-02
   8.20000  6.8283526E-03  2.8192064E-02  1.8947357E-02
   8.40000  7.2104162E-03  3.0927684E-02  1.9981786E-02
   8.60000  7.6348588E-03  3.3912253E-02  2.0786327E-02
   8.80000  8.1072748E-03  3.7117693E-02  2.1346831E-02
   9.00000  8.6329724E-03  4.0493729E-02  2.1686890E-02
   9.20000  9.2165532E-03  4.3959907E-02  2.1854869E-02
   9.40000  9.8613229E-03  4.7399120E-02  2.1907622E-02
   9.60000  1.0568542E-02  5.0658252E-02  2.1898004E-02
   9.80000  1.1336777E-02  5.3560504E-02  2.1868326E-02
   10.0000  1.2161791E-02  5.5929763E-02  2.1849231E-02
   10.2500  1.3262476E-02  5.7928080E-02  2.1871158E-02
   10.5000  1.4424165E-02  5.8729989E-02  2.1966417E-02
   10.7500  1.5628835E-02  5.8363604E-02  2.2151368E-02
   11.0000  1.6861097E-02  5.6984212E-02  2.2442648E-02
   11.2500  1.8108354E-02  5.4812449E-02  2.2856162E-02
   11.5000  1.9358914E-02  5.2083859E-02  2.3399935E-02
   11.7500  2.0600717E-02  4.9017088E-02  2.4068735E-02
   12.0000  2.1821561E-02  4.5802555E-02  2.4843201E-02
   12.2500  2.3010280E-02  4.2599417E-02  2.5692470E-02
   12.5000  2.4158102E-02  3.9531702E-02  2.6578681E-02
   12.7500  2.5259719E-02  3.6684920E-02  2.7462460E-02
   13.0000  2.6313767E-02  3.4107152E-02  2.8308492E-02
   13.2500  2.7322528E-02  3.1815951E-02  2.9090296E-02
   13.5000  2.8291344E-02  2.9808047E-02  2.9793579E-02
   13.7500  2.9227763E-02  2.8067754E-02  3.0417342E-02
   14.0000  3.0139652E-02  2.6572930E-02  3.0971832E-02
   14.2500  3.1033153E-02  2.5298990E-02  3.1474505E-02
   14.5000  3.1912119E-02  2.4221459E-02  3.1946209E-02
   14.7500  3.2778583E-02  2.3317419E-02  3.2408077E-02
   15.0000  3.3633130E-02  2.2566176E-02  3.2878838E-02
   15.2500  3.4474923E-02  2.1949453E-02  3.3372668E-02
   15.5000  3.5301538E-02  2.1451321E-02  3.3897764E-02
   15.7500  3.6108797E-02  2.1058004E-02  3.4455669E-02
   16.0000  3.6890724E-02  2.0757626E-02  3.5041260E-02
   16.2500  3.7639718E-02  2.0539963E-02  3.5643314E-02
   16.5000  3.8347025E-02  2.0396199E-02  3.6245578E-02
   16.7500  3.9003483E-02  2.0318709E-02  3.6828284E-02
   17.0000  3.9600467E-02  2.0300876E-02  3.7370011E-02
   17.2500  4.0130878E-02  2.0336943E-02  3.7849756E-02
   17.5000  4.0590016E-02  2.0421888E-02  3.8248982E-02
   17.7500  4.0976168E-02  2.0551332E-02  3.8553383E-02
   18.0000  4.1290838E-02  2.0721473E-02  3.8754135E-02
   18.2500  4.1538583E-02  2.0929022E-02  3.8848439E-02
   18.5000  4.1726521E-02  2.1171159E-02  3.8839338E-02
   18.7500  4.1863608E-02  2.1445492E-02  3.8734888E-02
   19.0000  4.1959796E-02  2.1750036E-02  3.8546880E-02
   19.2500  4.2025184E-02  2.2083201E-02  3.8289322E-02
   19.5000  4.2069252E-02  2.2443791E-02  3.7976937E-02
   19.7500  4.2100224E-02  2.2830940E-02  3.7623929E-02
   20.0000  4.2124640E-02  2.3243877E-02  3.7243311E-02
   21.0000  4.2223927E-02  2.5123344E-02  3.5666203E-02
   22.0000  4.2281410E-02  2.7264179E-02  3.4340527E-02
   23.0000  4.1957376E-02  2.9473641E-02  3.3391347E-02
   24.0000  4.0840029E-02  3.1467923E-02  3.2735519E-02
   25.0000  3.8799969E-02  3.2955918E-02  3.2231254E-02
   26.0000  3.6141834E-02  3.3775426E-02  3.1755966E-02
   27.0000  3.3419154E-02  3.3950602E-02  3.1244525E-02
   28.0000  3.1092850E-02  3.3635612E-02  3.0697536E-02
   29.0000  2.9334296E-02  3.3017080E-02  3.0160984E-02
   30.0000  2.8079161E-02  3.2246106E-02  2.9689572E-02
   31.0000  2.7188106E-02  3.1416851E-02  2.9317288E-02
   32.0000  2.6548223E-02  3.0574080E-02  2.9048440E-02
   33.0000  2.6088819E-02  2.9734268E-02  2.8865259E-02
   34.0000  2.5767247E-02  2.8901280E-02  2.8741246E-02
   35.0000  2.5560298E-02  2.8064214E-02  2.8650595E-02
   36.0000  2.5452750E-02  2.7210050E-02  2.8572917E-02
   37.0000  2.5427182E-02  2.6338418E-02  2.8494062E-02
   38.0000  2.5458804E-02  2.5471422E-02  2.8405264E-02
   39.0000  2.5515948E-02  2.4663356E-02  2.8305614E-02
   40.0000  2.5567721E-02  2.3999730E-02  2.8209944E-02
