    Energy   (100,001)      (010,001)      (001,110)   
  -25.0000  1.6841442E-04  1.8543921E-04  1.7378747E-04
  -24.0000  1.7459208E-04  1.9231805E-04  1.8010785E-04
  -23.0000  1.8119111E-04  1.9968578E-04  1.8685910E-04
  -22.0000  1.8825462E-04  2.0759531E-04  1.9408538E-04
  -21.0000  1.9583171E-04  2.1610739E-04  2.0183701E-04
  -20.0000  2.0397852E-04  2.2529209E-04  2.1017155E-04
  -19.0000  2.1275959E-04  2.3523061E-04  2.1915518E-04
  -18.0000  2.2224941E-04  2.4601763E-04  2.2886431E-04
  -17.0000  2.3253447E-04  2.5776416E-04  2.3938767E-04
  -16.0000  2.4371574E-04  2.7060118E-04  2.5082886E-04
  -15.0000  2.5591179E-04  2.8468432E-04  2.6330962E-04
  -14.0000  2.6926289E-04  3.0019988E-04  2.7697391E-04
  -13.0000  2.8393609E-04  3.1737270E-04  2.9199327E-04
  -12.0000  3.0013205E-04  3.3647656E-04  3.0857374E-04
  -11.0000  3.1809389E-04  3.5784813E-04  3.2696497E-04
  -10.0000  3.3811915E-04  3.8190596E-04  3.4747248E-04
  -9.00000  3.6057603E-04  4.0917674E-04  3.7047429E-04
  -8.00000  3.8592591E-04  4.4033229E-04  3.9644399E-04
  -7.00000  4.1475526E-04  4.7624284E-04  4.2598332E-04
  -6.00000  4.4782192E-04  5.1805553E-04  4.5986939E-04
  -5.00000  4.8612415E-04  5.6731351E-04  4.9912507E-04
  -4.00000  5.3100722E-04  6.2614240E-04  5.4512730E-04
  -3.00000  5.8433459E-04  6.9755407E-04  5.9978071E-04
  -2.00000  6.4877706E-04  7.8596569E-04  6.6580998E-04
  -1.00000  7.2833280E-04  8.9814119E-04  7.4728376E-04
   0.00000  8.2934255E-04  1.0450374E-03  8.5063296E-04
   1.00000  9.6270527E-04  1.2458263E-03  9.8685975E-04
   2.00000  1.1495406E-03  1.5380841E-03  1.1771347E-03
   3.00000  1.4395433E-03  2.0102708E-03  1.4706929E-03
   4.00000  1.9972643E-03  2.9510755E-03  2.0271491E-03
   5.00000  3.5579710E-03  5.6348743E-03  3.5619548E-03
   5.20000  4.0367563E-03  6.4729005E-03  4.0553533E-03
   5.40000  4.5009853E-03  7.2990893E-03  4.5584725E-03
   5.60000  4.9342711E-03  8.0843783E-03  5.0503063E-03
   5.80000  5.3427465E-03  8.8358562E-03  5.5230226E-03
   6.00000  5.7392173E-03  9.5733109E-03  5.9726255E-03
   6.20000  6.1357150E-03  1.0319386E-02  6.3971761E-03
   6.40000  6.5421411E-03  1.1098194E-02  6.7994874E-03
   6.60000  6.9668671E-03  1.1935071E-02  7.1893984E-03
   6.80000  7.4176108E-03  1.2855347E-02  7.5833123E-03
   7.00000  7.9021021E-03  1.3882632E-02  8.0011190E-03
   7.20000  8.4284708E-03  1.5037709E-02  8.4621953E-03
   7.40000  9.0053854E-03  1.6338664E-02  8.9823054E-03
   7.60000  9.6419419E-03  1.7802080E-02  9.5722754E-03
   7.80000  1.0347273E-02  1.9444626E-02  1.0238336E-02
   8.00000  1.1129863E-02  2.1284324E-02  1.0983573E-02
   8.20000  1.1996595E-02  2.3340913E-02  1.1809848E-02
   8.40000  1.2951633E-02  2.5634824E-02  1.2719440E-02
   8.60000  1.3995366E-02  2.8184354E-02  1.3715614E-02
   8.80000  1.5123750E-02  3.1000838E-02  1.4802171E-02
   9.00000  1.6328474E-02  3.4081702E-02  1.5983322E-02
   9.20000  1.7598311E-02  3.7402310E-02  1.7263888E-02
   9.40000  1.8921420E-02  4.0908304E-02  1.8648191E-02
   9.60000  2.0287421E-02  4.4509383E-02  2.0137794E-02
   9.80000  2.1687617E-02  4.8075323E-02  2.1728980E-02
   10.0000  2.3112605E-02  5.1436163E-02  2.3410110E-02
   10.2500  2.4907214E-02  5.5041107E-02  2.5603141E-02
   10.5000  2.6678761E-02  5.7610300E-02  2.7833057E-02
   10.7500  2.8378080E-02  5.8841864E-02  3.0011850E-02
   11.0000  2.9955361E-02  5.8638315E-02  3.2047418E-02
   11.2500  3.1364642E-02  5.7131764E-02  3.3857470E-02
   11.5000  3.2565565E-02  5.4617674E-02  3.5376813E-02
   11.7500  3.3528365E-02  5.1452719E-02  3.6561652E-02
   12.0000  3.4242452E-02  4.7970902E-02  3.7393380E-02
   12.2500  3.4721085E-02  4.4437261E-02  3.7880377E-02
   12.5000  3.4998439E-02  4.1035444E-02  3.8056691E-02
   12.7500  3.5121723E-02  3.7876457E-02  3.7977226E-02
   13.0000  3.5142194E-02  3.5016003E-02  3.7710097E-02
   13.2500  3.5107440E-02  3.2472387E-02  3.7328066E-02
   13.5000  3.5056592E-02  3.0240999E-02  3.6900688E-02
   13.7500  3.5019305E-02  2.8304203E-02  3.6488408E-02
   14.0000  3.5016952E-02  2.6637642E-02  3.6139377E-02
   14.2500  3.5064113E-02  2.5214322E-02  3.5888818E-02
   14.5000  3.5169682E-02  2.4007230E-02  3.5760024E-02
   14.7500  3.5337557E-02  2.2990897E-02  3.5766035E-02
   15.0000  3.5567066E-02  2.2142197E-02  3.5911317E-02
   15.2500  3.5853262E-02  2.1440658E-02  3.6193104E-02
   15.5000  3.6187182E-02  2.0868441E-02  3.6602290E-02
   15.7500  3.6556197E-02  2.0410151E-02  3.7123952E-02
   16.0000  3.6944529E-02  2.0052568E-02  3.7737680E-02
   16.2500  3.7334011E-02  1.9784360E-02  3.8417972E-02
   16.5000  3.7705116E-02  1.9595804E-02  3.9134930E-02
   16.7500  3.8038251E-02  1.9478546E-02  3.9855490E-02
   17.0000  3.8315250E-02  1.9425383E-02  4.0545238E-02
   17.2500  3.8520940E-02  1.9430093E-02  4.1170758E-02
   17.5000  3.8644565E-02  1.9487292E-02  4.1702214E-02
   17.7500  3.8680849E-02  1.9592315E-02  4.2115762E-02
   18.0000  3.8630487E-02  1.9741132E-02  4.2395358E-02
   18.2500  3.8499970E-02  1.9930261E-02  4.2533628E-02
   18.5000  3.8300761E-02  2.0156714E-02  4.2531683E-02
   18.7500  3.8047976E-02  2.0417938E-02  4.2398003E-02
   19.0000  3.7758786E-02  2.0711788E-02  4.2146639E-02
   19.2500  3.7450775E-02  2.1036521E-02  4.1795090E-02
   19.5000  3.7140463E-02  2.1390793E-02  4.1362189E-02
   19.7500  3.6842176E-02  2.1773614E-02  4.0866364E-02
   20.0000  3.6567473E-02  2.2184128E-02  4.0324673E-02
   21.0000  3.5850491E-02  2.4074014E-02  3.7992855E-02
   22.0000  3.5837026E-02  2.6273961E-02  3.5850449E-02
   23.0000  3.6283551E-02  2.8643578E-02  3.4081421E-02
   24.0000  3.6726545E-02  3.0969714E-02  3.2618442E-02
   25.0000  3.6695073E-02  3.2978942E-02  3.1333684E-02
   26.0000  3.5907597E-02  3.4412238E-02  3.0126359E-02
   27.0000  3.4433365E-02  3.5124006E-02  2.8976117E-02
   28.0000  3.2634170E-02  3.5141196E-02  2.7947295E-02
   29.0000  3.0867617E-02  3.4633224E-02  2.7112946E-02
   30.0000  2.9334056E-02  3.3809163E-02  2.6508557E-02
   31.0000  2.8090839E-02  3.2844715E-02  2.6119426E-02
   32.0000  2.7111774E-02  3.1858600E-02  2.5892128E-02
   33.0000  2.6335432E-02  3.0915011E-02  2.5757779E-02
   34.0000  2.5691573E-02  3.0037048E-02  2.5649354E-02
   35.0000  2.5114460E-02  2.9223085E-02  2.5509870E-02
   36.0000  2.4551866E-02  2.8461917E-02  2.5296177E-02
   37.0000  2.3973411E-02  2.7744904E-02  2.4983645E-02
   38.0000  2.3378755E-02  2.7075146E-02  2.4575333E-02
   39.0000  2.2804335E-02  2.6475733E-02  2.4115852E-02
   40.0000  2.2318965E-02  2.5992576E-02  2.3695840E-02
