    Energy   (100,001)      (010,001)      (001,110)   
  -25.0000  1.6101468E-04  1.8724051E-04  1.7788104E-04
  -24.0000  1.6695136E-04  1.9422083E-04  1.8437852E-04
  -23.0000  1.7328906E-04  2.0170027E-04  1.9132374E-04
  -22.0000  1.8006804E-04  2.0973320E-04  1.9876328E-04
  -21.0000  1.8733400E-04  2.1838209E-04  2.0675029E-04
  -20.0000  1.9513904E-04  2.2771904E-04  2.1534574E-04
  -19.0000  2.0354283E-04  2.3782773E-04  2.2461986E-04
  -18.0000  2.1261401E-04  2.4880578E-04  2.3465395E-04
  -17.0000  2.2243190E-04  2.6076778E-04  2.4554268E-04
  -16.0000  2.3308870E-04  2.7384910E-04  2.5739693E-04
  -15.0000  2.4469220E-04  2.8821077E-04  2.7034734E-04
  -14.0000  2.5736915E-04  3.0404579E-04  2.8454900E-04
  -13.0000  2.7126970E-04  3.2158740E-04  3.0018733E-04
  -12.0000  2.8657303E-04  3.4112006E-04  3.1748595E-04
  -11.0000  3.0349472E-04  3.6299411E-04  3.3671698E-04
  -10.0000  3.2229663E-04  3.8764583E-04  3.5821503E-04
  -9.00000  3.4330008E-04  4.1562524E-04  3.8239620E-04
  -8.00000  3.6690406E-04  4.4763535E-04  4.0978474E-04
  -7.00000  3.9361064E-04  4.8458873E-04  4.4105084E-04
  -6.00000  4.2406145E-04  5.2769119E-04  4.7706592E-04
  -5.00000  4.5909156E-04  5.7856895E-04  5.1898554E-04
  -4.00000  4.9981151E-04  6.3946826E-04  5.6837819E-04
  -3.00000  5.4773781E-04  7.1358135E-04  6.2743357E-04
  -2.00000  6.0501101E-04  8.0560445E-04  6.9931679E-04
  -1.00000  6.7478487E-04  9.2275147E-04  7.8880992E-04
   0.00000  7.6198281E-04  1.0767417E-03  9.0357437E-04
   1.00000  8.7495057E-04  1.2881211E-03  1.0569288E-03
   2.00000  1.0297189E-03  1.5971419E-03  1.2750179E-03
   3.00000  1.2640957E-03  2.0980091E-03  1.6203271E-03
   4.00000  1.7059337E-03  3.0932076E-03  2.3039321E-03
   5.00000  2.9319481E-03  5.9005820E-03  4.2715956E-03
   5.20000  3.2932820E-03  6.7897371E-03  4.8629542E-03
   5.40000  3.6273161E-03  7.6881161E-03  5.4216395E-03
   5.60000  3.9211794E-03  8.5727641E-03  5.9287776E-03
   5.80000  4.1830357E-03  9.4559881E-03  6.3945987E-03
   6.00000  4.4269237E-03  1.0361256E-02  6.8375235E-03
   6.20000  4.6656880E-03  1.1311992E-02  7.2770569E-03
   6.40000  4.9096594E-03  1.2329309E-02  7.7329700E-03
   6.60000  5.1670906E-03  1.3432103E-02  8.2245842E-03
   6.80000  5.4448119E-03  1.4637156E-02  8.7696676E-03
   7.00000  5.7487498E-03  1.5958752E-02  9.3836202E-03
   7.20000  6.0842844E-03  1.7407899E-02  1.0079017E-02
   7.40000  6.4564944E-03  1.8991441E-02  1.0865231E-02
   7.60000  6.8703323E-03  2.0711490E-02  1.1747963E-02
   7.80000  7.3307532E-03  2.2565560E-02  1.2728741E-02
   8.00000  7.8428047E-03  2.4547676E-02  1.3804663E-02
   8.20000  8.4116711E-03  2.6650437E-02  1.4968718E-02
   8.40000  9.0426531E-03  2.8867681E-02  1.6210948E-02
   8.60000  9.7410592E-03  3.1197050E-02  1.7520390E-02
   8.80000  1.0511985E-02  3.3641415E-02  1.8887343E-02
   9.00000  1.1359948E-02  3.6207776E-02  2.0305174E-02
   9.20000  1.2288347E-02  3.8902296E-02  2.1770842E-02
   9.40000  1.3298767E-02  4.1721138E-02  2.3283644E-02
   9.60000  1.4390185E-02  4.4638968E-02  2.4842455E-02
   9.80000  1.5558143E-02  4.7598632E-02  2.6442369E-02
   10.0000  1.6793854E-02  5.0503685E-02  2.8071321E-02
   10.2500  1.8411859E-02  5.3840539E-02  3.0113232E-02
   10.5000  2.0074163E-02  5.6520586E-02  3.2098484E-02
   10.7500  2.1732552E-02  5.8191611E-02  3.3948451E-02
   11.0000  2.3338905E-02  5.8609468E-02  3.5589401E-02
   11.2500  2.4855109E-02  5.7716200E-02  3.6964240E-02
   11.5000  2.6257397E-02  5.5652730E-02  3.8039710E-02
   11.7500  2.7535901E-02  5.2706282E-02  3.8809011E-02
   12.0000  2.8693360E-02  4.9225043E-02  3.9288801E-02
   12.2500  2.9742489E-02  4.5537858E-02  3.9512509E-02
   12.5000  3.0702069E-02  4.1903120E-02  3.9522831E-02
   12.7500  3.1593814E-02  3.8492028E-02  3.9365232E-02
   13.0000  3.2440138E-02  3.5397088E-02  3.9083731E-02
   13.2500  3.3260889E-02  3.2652888E-02  3.8719778E-02
   13.5000  3.4070170E-02  3.0257898E-02  3.8312398E-02
   13.7500  3.4876101E-02  2.8190861E-02  3.7897161E-02
   14.0000  3.5682584E-02  2.6421291E-02  3.7504487E-02
   14.2500  3.6490910E-02  2.4915872E-02  3.7158562E-02
   14.5000  3.7300673E-02  2.3642137E-02  3.6877018E-02
   14.7500  3.8110205E-02  2.2570326E-02  3.6671038E-02
   15.0000  3.8916715E-02  2.1674129E-02  3.6545647E-02
   15.2500  3.9716240E-02  2.0930787E-02  3.6500104E-02
   15.5000  4.0503463E-02  2.0320876E-02  3.6528352E-02
   15.7500  4.1271482E-02  1.9827953E-02  3.6619578E-02
   16.0000  4.2011639E-02  1.9438165E-02  3.6758922E-02
   16.2500  4.2713536E-02  1.9139881E-02  3.6928415E-02
   16.5000  4.3365308E-02  1.8923355E-02  3.7108185E-02
   16.7500  4.3954219E-02  1.8780442E-02  3.7277907E-02
   17.0000  4.4467540E-02  1.8704342E-02  3.7418399E-02
   17.2500  4.4893653E-02  1.8689380E-02  3.7513180E-02
   17.5000  4.5223231E-02  1.8730816E-02  3.7549792E-02
   17.7500  4.5450329E-02  1.8824679E-02  3.7520674E-02
   18.0000  4.5573206E-02  1.8967615E-02  3.7423469E-02
   18.2500  4.5594730E-02  1.9156775E-02  3.7260734E-02
   18.5000  4.5522299E-02  1.9389704E-02  3.7039136E-02
   18.7500  4.5367261E-02  1.9664267E-02  3.6768311E-02
   19.0000  4.5143908E-02  1.9978601E-02  3.6459561E-02
   19.2500  4.4868167E-02  2.0331091E-02  3.6124591E-02
   19.5000  4.4556150E-02  2.0720367E-02  3.5774404E-02
   19.7500  4.4222824E-02  2.1145240E-02  3.5418517E-02
   20.0000  4.3881112E-02  2.1604443E-02  3.5064639E-02
   21.0000  4.2609785E-02  2.3737858E-02  3.3774424E-02
   22.0000  4.1605033E-02  2.6198281E-02  3.2788736E-02
   23.0000  4.0555968E-02  2.8753277E-02  3.2055820E-02
   24.0000  3.9025129E-02  3.1121422E-02  3.1452430E-02
   25.0000  3.6880153E-02  3.3010743E-02  3.0875824E-02
   26.0000  3.4388534E-02  3.4209376E-02  3.0271327E-02
   27.0000  3.1925688E-02  3.4708410E-02  2.9631993E-02
   28.0000  2.9756285E-02  3.4640761E-02  2.8990521E-02
   29.0000  2.7982661E-02  3.4184054E-02  2.8398334E-02
   30.0000  2.6591331E-02  3.3501883E-02  2.7896739E-02
   31.0000  2.5516752E-02  3.2715377E-02  2.7498643E-02
   32.0000  2.4679716E-02  3.1898420E-02  2.7188313E-02
   33.0000  2.4004397E-02  3.1085932E-02  2.6932621E-02
   34.0000  2.3425376E-02  3.0287864E-02  2.6693300E-02
   35.0000  2.2890588E-02  2.9504122E-02  2.6434654E-02
   36.0000  2.2363772E-02  2.8736408E-02  2.6128087E-02
   37.0000  2.1827557E-02  2.7994258E-02  2.5756722E-02
   38.0000  2.1287364E-02  2.7296709E-02  2.5323414E-02
   39.0000  2.0775398E-02  2.6675348E-02  2.4863983E-02
   40.0000  2.0346883E-02  2.6177614E-02  2.4454596E-02
