    Energy   (100,001)      (010,001)      (001,110)   
  -25.0000  1.7564774E-04  1.7893272E-04  1.8286373E-04
  -24.0000  1.8170228E-04  1.8590273E-04  1.8917907E-04
  -23.0000  1.8815166E-04  1.9338377E-04  1.9591179E-04
  -22.0000  1.9503493E-04  2.0143233E-04  2.0310397E-04
  -21.0000  2.0239642E-04  2.1011336E-04  2.1080355E-04
  -20.0000  2.1028668E-04  2.1950195E-04  2.1906531E-04
  -19.0000  2.1876361E-04  2.2968533E-04  2.2795219E-04
  -18.0000  2.2789381E-04  2.4076541E-04  2.3753688E-04
  -17.0000  2.3775433E-04  2.5286192E-04  2.4790377E-04
  -16.0000  2.4843480E-04  2.6611652E-04  2.5915139E-04
  -15.0000  2.6004010E-04  2.8069789E-04  2.7139558E-04
  -14.0000  2.7269382E-04  2.9680850E-04  2.8477345E-04
  -13.0000  2.8654260E-04  3.1469334E-04  2.9944854E-04
  -12.0000  3.0176189E-04  3.3465154E-04  3.1561763E-04
  -11.0000  3.1856344E-04  3.5705204E-04  3.3351970E-04
  -10.0000  3.3720540E-04  3.8235492E-04  3.5344807E-04
  -9.00000  3.5800602E-04  4.1114096E-04  3.7576708E-04
  -8.00000  3.8136261E-04  4.4415352E-04  4.0093540E-04
  -7.00000  4.0777844E-04  4.8235896E-04  4.2953941E-04
  -6.00000  4.3790186E-04  5.2703606E-04  4.6234233E-04
  -5.00000  4.7258476E-04  5.7991204E-04  5.0035838E-04
  -4.00000  5.1297321E-04  6.4337643E-04  5.4496923E-04
  -3.00000  5.6065419E-04  7.2083073E-04  5.9811424E-04
  -2.00000  6.1790567E-04  8.1728798E-04  6.6261761E-04
  -1.00000  6.8815258E-04  9.4046396E-04  7.4278739E-04
   0.00000  7.7687323E-04  1.1029227E-03  8.4560338E-04
   1.00000  8.9362454E-04  1.3267584E-03  9.8333286E-04
   2.00000  1.0573751E-03  1.6554508E-03  1.1801849E-03
   3.00000  1.3144285E-03  2.1915221E-03  1.4932461E-03
   4.00000  1.8260930E-03  3.2684041E-03  2.1045281E-03
   5.00000  3.3327227E-03  6.3520035E-03  3.8093854E-03
   5.20000  3.7840158E-03  7.3231570E-03  4.3826989E-03
   5.40000  4.2016060E-03  8.2935911E-03  5.0070758E-03
   5.60000  4.5680865E-03  9.2362428E-03  5.6814613E-03
   5.80000  4.8918091E-03  1.0162700E-02  6.4188265E-03
   6.00000  5.1882908E-03  1.1093394E-02  7.2314295E-03
   6.20000  5.4718775E-03  1.2044016E-02  8.1203532E-03
   6.40000  5.7543706E-03  1.3024356E-02  9.0677904E-03
   6.60000  6.0456421E-03  1.4042704E-02  1.0031914E-02
   6.80000  6.3544292E-03  1.5112946E-02  1.0949117E-02
   7.00000  6.6889066E-03  1.6261473E-02  1.1748701E-02
   7.20000  7.0570502E-03  1.7529727E-02  1.2377573E-02
   7.40000  7.4668571E-03  1.8969857E-02  1.2821971E-02
   7.60000  7.9264087E-03  2.0635726E-02  1.3111800E-02
   7.80000  8.4437288E-03  2.2574781E-02  1.3305718E-02
   8.00000  9.0264362E-03  2.4824426E-02  1.3468655E-02
   8.20000  9.6811797E-03  2.7411956E-02  1.3654555E-02
   8.40000  1.0412723E-02  3.0354439E-02  1.3899011E-02
   8.60000  1.1222456E-02  3.3655513E-02  1.4219348E-02
   8.80000  1.2106297E-02  3.7298413E-02  1.4617831E-02
   9.00000  1.3052456E-02  4.1236664E-02  1.5085205E-02
   9.20000  1.4040000E-02  4.5383805E-02  1.5604012E-02
   9.40000  1.5039520E-02  4.9603033E-02  1.6152515E-02
   9.60000  1.6017399E-02  5.3702470E-02  1.6709703E-02
   9.80000  1.6943840E-02  5.7444598E-02  1.7260433E-02
   10.0000  1.7801483E-02  6.0570647E-02  1.7798930E-02
   10.2500  1.8777813E-02  6.3243132E-02  1.8461547E-02
   10.5000  1.9678807E-02  6.4232106E-02  1.9133021E-02
   10.7500  2.0554202E-02  6.3455178E-02  1.9837968E-02
   11.0000  2.1450098E-02  6.1127502E-02  2.0594161E-02
   11.2500  2.2393056E-02  5.7682061E-02  2.1408278E-02
   11.5000  2.3384472E-02  5.3620468E-02  2.2276502E-02
   11.7500  2.4404016E-02  4.9380470E-02  2.3187452E-02
   12.0000  2.5418182E-02  4.5271877E-02  2.4125267E-02
   12.2500  2.6390598E-02  4.1475283E-02  2.5072436E-02
   12.5000  2.7291077E-02  3.8072069E-02  2.6012734E-02
   12.7500  2.8100646E-02  3.5079801E-02  2.6934293E-02
   13.0000  2.8812998E-02  3.2480736E-02  2.7831915E-02
   13.2500  2.9434612E-02  3.0240650E-02  2.8707481E-02
   13.5000  2.9982999E-02  2.8319792E-02  2.9568209E-02
   13.7500  3.0481873E-02  2.6678703E-02  3.0423445E-02
   14.0000  3.0955138E-02  2.5281172E-02  3.1282139E-02
   14.2500  3.1422941E-02  2.4095586E-02  3.2152253E-02
   14.5000  3.1900251E-02  2.3095138E-02  3.3040715E-02
   14.7500  3.2396652E-02  2.2257335E-02  3.3952926E-02
   15.0000  3.2916543E-02  2.1563310E-02  3.4891990E-02
   15.2500  3.3459617E-02  2.0997151E-02  3.5857991E-02
   15.5000  3.4021564E-02  2.0545335E-02  3.6847357E-02
   15.7500  3.4594873E-02  2.0196263E-02  3.7852341E-02
   16.0000  3.5169676E-02  1.9939880E-02  3.8860656E-02
   16.2500  3.5734559E-02  1.9767384E-02  3.9855382E-02
   16.5000  3.6277362E-02  1.9670997E-02  4.0815236E-02
   16.7500  3.6785953E-02  1.9643796E-02  4.1715361E-02
   17.0000  3.7249004E-02  1.9679582E-02  4.2528676E-02
   17.2500  3.7656743E-02  1.9772789E-02  4.3227826E-02
   17.5000  3.8001632E-02  1.9918424E-02  4.3787552E-02
   17.7500  3.8278928E-02  2.0112015E-02  4.4187236E-02
   18.0000  3.8487029E-02  2.0349582E-02  4.4413175E-02
   18.2500  3.8627577E-02  2.0627606E-02  4.4460193E-02
   18.5000  3.8705262E-02  2.0943002E-02  4.4332237E-02
   18.7500  3.8727378E-02  2.1293081E-02  4.4041837E-02
   19.0000  3.8703154E-02  2.1675531E-02  4.3608513E-02
   19.2500  3.8642958E-02  2.2088396E-02  4.3056414E-02
   19.5000  3.8557458E-02  2.2530063E-02  4.2411632E-02
   19.7500  3.8456860E-02  2.2999177E-02  4.1699767E-02
   20.0000  3.8350405E-02  2.3494345E-02  4.0944440E-02
   21.0000  3.8011882E-02  2.5684326E-02  3.7887046E-02
   22.0000  3.7983747E-02  2.8045170E-02  3.5354649E-02
   23.0000  3.8175925E-02  3.0325211E-02  3.3520270E-02
   24.0000  3.8280623E-02  3.2241484E-02  3.2240282E-02
   25.0000  3.7988839E-02  3.3553681E-02  3.1333474E-02
   26.0000  3.7155344E-02  3.4157205E-02  3.0658707E-02
   27.0000  3.5853506E-02  3.4114360E-02  3.0122636E-02
   28.0000  3.4305460E-02  3.3595365E-02  2.9675532E-02
   29.0000  3.2757458E-02  3.2789220E-02  2.9300801E-02
   30.0000  3.1388724E-02  3.1846912E-02  2.8998101E-02
   31.0000  3.0283547E-02  3.0865673E-02  2.8767868E-02
   32.0000  2.9445773E-02  2.9895179E-02  2.8602357E-02
   33.0000  2.8824630E-02  2.8955226E-02  2.8484161E-02
   34.0000  2.8343741E-02  2.8048898E-02  2.8390078E-02
   35.0000  2.7934533E-02  2.7160062E-02  2.8295525E-02
   36.0000  2.7546332E-02  2.6269180E-02  2.8177901E-02
   37.0000  2.7147184E-02  2.5371212E-02  2.8019168E-02
   38.0000  2.6727366E-02  2.4486432E-02  2.7811453E-02
   39.0000  2.6307091E-02  2.3668490E-02  2.7569412E-02
   40.0000  2.5941112E-02  2.3000287E-02  2.7341052E-02
