    Energy   (100,001)      (010,001)      (001,110)   
  -25.0000  1.7391841E-04  1.8898740E-04  1.7403006E-04
  -24.0000  1.8050223E-04  1.9578910E-04  1.8063706E-04
  -23.0000  1.8755255E-04  2.0306347E-04  1.8771274E-04
  -22.0000  1.9511905E-04  2.1086074E-04  1.9530692E-04
  -21.0000  2.0325859E-04  2.1923848E-04  2.0347659E-04
  -20.0000  2.1203656E-04  2.2826293E-04  2.1228725E-04
  -19.0000  2.2152850E-04  2.3801074E-04  2.2181450E-04
  -18.0000  2.3182217E-04  2.4857100E-04  2.3214608E-04
  -17.0000  2.4302008E-04  2.6004793E-04  2.4338436E-04
  -16.0000  2.5524270E-04  2.7256418E-04  2.5564950E-04
  -15.0000  2.6863255E-04  2.8626504E-04  2.6908344E-04
  -14.0000  2.8335949E-04  3.0132388E-04  2.8385498E-04
  -13.0000  2.9962747E-04  3.1794926E-04  3.0016648E-04
  -12.0000  3.1768359E-04  3.3639417E-04  3.1826245E-04
  -11.0000  3.3783009E-04  3.5696854E-04  3.3844113E-04
  -10.0000  3.6044050E-04  3.8005596E-04  3.6106990E-04
  -9.00000  3.8598209E-04  4.0613685E-04  3.8660653E-04
  -8.00000  4.1504712E-04  4.3582076E-04  4.1562857E-04
  -7.00000  4.4839776E-04  4.6989263E-04  4.4887525E-04
  -6.00000  4.8703198E-04  5.0938029E-04  4.8730826E-04
  -5.00000  5.3228302E-04  5.5565597E-04  5.3220249E-04
  -4.00000  5.8597462E-04  6.1059352E-04  5.8528581E-04
  -3.00000  6.5067283E-04  6.7682126E-04  6.4896246E-04
  -2.00000  7.3011474E-04  7.5814773E-04  7.2668684E-04
  -1.00000  8.2998254E-04  8.6032073E-04  8.2362582E-04
   0.00000  9.5941246E-04  9.9248480E-04  9.4792234E-04
   1.00000  1.1342509E-03  1.1702779E-03  1.1133608E-03
   2.00000  1.3851696E-03  1.4234414E-03  1.3458579E-03
   3.00000  1.7828167E-03  1.8192254E-03  1.7031712E-03
   4.00000  2.5486042E-03  2.5660009E-03  2.3605367E-03
   5.00000  4.6295631E-03  4.5482278E-03  4.0519690E-03
   5.20000  5.2933101E-03  5.1644480E-03  4.5828301E-03
   5.40000  5.9792209E-03  5.7869130E-03  5.1310326E-03
   5.60000  6.6755813E-03  6.4014880E-03  5.6868629E-03
   5.80000  7.3946996E-03  7.0178813E-03  6.2581773E-03
   6.00000  8.1565207E-03  7.6530076E-03  6.8579989E-03
   6.20000  8.9807488E-03  8.3235085E-03  7.4990695E-03
   6.40000  9.8849165E-03  9.0446504E-03  8.1928841E-03
   6.60000  1.0884006E-02  9.8310074E-03  8.9497244E-03
   6.80000  1.1990088E-02  1.0697205E-02  9.7786463E-03
   7.00000  1.3211786E-02  1.1658383E-02  1.0687492E-02
   7.20000  1.4553453E-02  1.2730388E-02  1.1683214E-02
   7.40000  1.6013672E-02  1.3929638E-02  1.2772599E-02
   7.60000  1.7582518E-02  1.5272467E-02  1.3963075E-02
   7.80000  1.9237133E-02  1.6773658E-02  1.5262919E-02
   8.00000  2.0936298E-02  1.8444024E-02  1.6680265E-02
   8.20000  2.2617339E-02  2.0287499E-02  1.8221004E-02
   8.40000  2.4201389E-02  2.2299424E-02  1.9886347E-02
   8.60000  2.5611586E-02  2.4468488E-02  2.1671103E-02
   8.80000  2.6799847E-02  2.6783256E-02  2.3563379E-02
   9.00000  2.7766622E-02  2.9240096E-02  2.5545608E-02
   9.20000  2.8558711E-02  3.1846238E-02  2.7596184E-02
   9.40000  2.9246343E-02  3.4614072E-02  2.9690654E-02
   9.60000  2.9895577E-02  3.7548567E-02  3.1801701E-02
   9.80000  3.0551373E-02  4.0632768E-02  3.3897502E-02
   10.0000  3.1235464E-02  4.3814815E-02  3.5938638E-02
   10.2500  3.2135988E-02  4.7778020E-02  3.8336417E-02
   10.5000  3.3067176E-02  5.1445691E-02  4.0455696E-02
   10.7500  3.3982499E-02  5.4439933E-02  4.2187323E-02
   11.0000  3.4825449E-02  5.6388160E-02  4.3462198E-02
   11.2500  3.5549337E-02  5.7042412E-02  4.4271522E-02
   11.5000  3.6125995E-02  5.6365229E-02  4.4659173E-02
   11.7500  3.6546194E-02  5.4532319E-02  4.4695747E-02
   12.0000  3.6818413E-02  5.1857852E-02  4.4454091E-02
   12.2500  3.6965234E-02  4.8692469E-02  4.3994643E-02
   12.5000  3.7016496E-02  4.5343793E-02  4.3362804E-02
   12.7500  3.7001940E-02  4.2040077E-02  4.2597038E-02
   13.0000  3.6946342E-02  3.8928787E-02  4.1737307E-02
   13.2500  3.6869032E-02  3.6091325E-02  4.0825690E-02
   13.5000  3.6785581E-02  3.3561302E-02  3.9902608E-02
   13.7500  3.6708764E-02  3.1341271E-02  3.9005186E-02
   14.0000  3.6648601E-02  2.9415818E-02  3.8166875E-02
   14.2500  3.6612195E-02  2.7760632E-02  3.7415417E-02
   14.5000  3.6603658E-02  2.6348201E-02  3.6770515E-02
   14.7500  3.6624213E-02  2.5151014E-02  3.6243605E-02
   15.0000  3.6672332E-02  2.4143159E-02  3.5839182E-02
   15.2500  3.6743847E-02  2.3301055E-02  3.5556162E-02
   15.5000  3.6832062E-02  2.2603705E-02  3.5388792E-02
   15.7500  3.6927944E-02  2.2032692E-02  3.5327277E-02
   16.0000  3.7020479E-02  2.1572033E-02  3.5358277E-02
   16.2500  3.7097228E-02  2.1207968E-02  3.5465452E-02
   16.5000  3.7145112E-02  2.0928717E-02  3.5630125E-02
   16.7500  3.7151453E-02  2.0724233E-02  3.5832158E-02
   17.0000  3.7105164E-02  2.0585974E-02  3.6051006E-02
   17.2500  3.6997994E-02  2.0506676E-02  3.6266887E-02
   17.5000  3.6825598E-02  2.0480155E-02  3.6461934E-02
   17.7500  3.6588266E-02  2.0501126E-02  3.6621162E-02
   18.0000  3.6291108E-02  2.0565040E-02  3.6733146E-02
   18.2500  3.5943649E-02  2.0667951E-02  3.6790313E-02
   18.5000  3.5558885E-02  2.0806397E-02  3.6788868E-02
   18.7500  3.5151955E-02  2.0977318E-02  3.6728382E-02
   19.0000  3.4738666E-02  2.1177999E-02  3.6611159E-02
   19.2500  3.4334076E-02  2.1406047E-02  3.6441469E-02
   19.5000  3.3951320E-02  2.1659388E-02  3.6224756E-02
   19.7500  3.3600813E-02  2.1936240E-02  3.5966978E-02
   20.0000  3.3289958E-02  2.2234959E-02  3.5674223E-02
   21.0000  3.2507141E-02  2.3608599E-02  3.4276479E-02
   22.0000  3.2409251E-02  2.5180399E-02  3.2743154E-02
   23.0000  3.2681230E-02  2.6875304E-02  3.1228982E-02
   24.0000  3.2906929E-02  2.8636558E-02  2.9792254E-02
   25.0000  3.2744775E-02  3.0358580E-02  2.8474596E-02
   26.0000  3.2053538E-02  3.1873925E-02  2.7330588E-02
   27.0000  3.0904651E-02  3.3065725E-02  2.6393013E-02
   28.0000  2.9506396E-02  3.3874640E-02  2.5659750E-02
   29.0000  2.8085877E-02  3.4285846E-02  2.5106183E-02
   30.0000  2.6805435E-02  3.4331169E-02  2.4707813E-02
   31.0000  2.5741510E-02  3.4078617E-02  2.4443639E-02
   32.0000  2.4902756E-02  3.3610189E-02  2.4283280E-02
   33.0000  2.4259055E-02  3.3000241E-02  2.4181906E-02
   34.0000  2.3764825E-02  3.2304271E-02  2.4086835E-02
   35.0000  2.3373001E-02  3.1558966E-02  2.3947995E-02
   36.0000  2.3043411E-02  3.0789034E-02  2.3728236E-02
   37.0000  2.2748202E-02  3.0016277E-02  2.3413153E-02
   38.0000  2.2474655E-02  2.9268922E-02  2.3020150E-02
   39.0000  2.2226101E-02  2.8591219E-02  2.2603057E-02
   40.0000  2.2020029E-02  2.8046159E-02  2.2240334E-02
