    Energy   (100,001)      (010,001)      (001,110)   
  -25.0000  1.5765423E-04  1.7802170E-04  1.7070679E-04
  -24.0000  1.6271227E-04  1.8434892E-04  1.7609960E-04
  -23.0000  1.6807921E-04  1.9110773E-04  1.8182379E-04
  -22.0000  1.7378384E-04  1.9834310E-04  1.8791093E-04
  -21.0000  1.7985860E-04  2.0610641E-04  1.9439676E-04
  -20.0000  1.8634022E-04  2.1445663E-04  2.0132195E-04
  -19.0000  1.9327050E-04  2.2346181E-04  2.0873296E-04
  -18.0000  2.0069714E-04  2.3320083E-04  2.1668311E-04
  -17.0000  2.0867491E-04  2.4376568E-04  2.2523402E-04
  -16.0000  2.1726697E-04  2.5526425E-04  2.3445718E-04
  -15.0000  2.2654660E-04  2.6782395E-04  2.4443620E-04
  -14.0000  2.3659934E-04  2.8159626E-04  2.5526946E-04
  -13.0000  2.4752571E-04  2.9676273E-04  2.6707366E-04
  -12.0000  2.5944473E-04  3.1354276E-04  2.7998844E-04
  -11.0000  2.7249849E-04  3.3220395E-04  2.9418251E-04
  -10.0000  2.8685824E-04  3.5307616E-04  3.0986191E-04
  -9.00000  3.0273250E-04  3.7657057E-04  3.2728146E-04
  -8.00000  3.2037828E-04  4.0320647E-04  3.4676077E-04
  -7.00000  3.4011675E-04  4.3364922E-04  3.6870739E-04
  -6.00000  3.6235573E-04  4.6876566E-04  3.9365120E-04
  -5.00000  3.8762314E-04  5.0970703E-04  4.2229706E-04
  -4.00000  4.1661820E-04  5.5803704E-04  4.5560901E-04
  -3.00000  4.5029372E-04  6.1593753E-04  4.9495139E-04
  -2.00000  4.8999537E-04  6.8655433E-04  5.4233937E-04
  -1.00000  5.3771418E-04  7.7461398E-04  6.0091768E-04
   0.00000  5.9658692E-04  8.8761042E-04  6.7596356E-04
   1.00000  6.7201222E-04  1.0383360E-03  7.7725781E-04
   2.00000  7.7458887E-04  1.2511326E-03  9.2569269E-04
   3.00000  9.2998649E-04  1.5811927E-03  1.1765928E-03
   4.00000  1.2271232E-03  2.1997422E-03  1.7370576E-03
   5.00000  2.0724904E-03  3.8438501E-03  3.6492225E-03
   5.20000  2.3246354E-03  4.3718385E-03  4.3015141E-03
   5.40000  2.5599003E-03  4.9210904E-03  4.9482855E-03
   5.60000  2.7708381E-03  5.4775722E-03  5.5197358E-03
   5.80000  2.9651312E-03  6.0421987E-03  5.9511180E-03
   6.00000  3.1538523E-03  6.6196426E-03  6.1934168E-03
   6.20000  3.3446571E-03  7.2139826E-03  6.2401328E-03
   6.40000  3.5402039E-03  7.8292476E-03  6.1381031E-03
   6.60000  3.7398884E-03  8.4707332E-03  5.9649139E-03
   6.80000  3.9420644E-03  9.1454847E-03  5.7954736E-03
   7.00000  4.1449770E-03  9.8620519E-03  5.6840673E-03
   7.20000  4.3475862E-03  1.0629539E-02  5.6607137E-03
   7.40000  4.5507704E-03  1.1456423E-02  5.7332233E-03
   7.60000  4.7571568E-03  1.2350284E-02  5.8952603E-03
   7.80000  4.9698960E-03  1.3318173E-02  6.1351981E-03
   8.00000  5.1917996E-03  1.4366703E-02  6.4404829E-03
   8.20000  5.4254862E-03  1.5501632E-02  6.7987828E-03
   8.40000  5.6740941E-03  1.6727182E-02  7.1985002E-03
   8.60000  5.9415396E-03  1.8045555E-02  7.6297941E-03
   8.80000  6.2322032E-03  1.9456876E-02  8.0858080E-03
   9.00000  6.5504719E-03  2.0959689E-02  8.5632582E-03
   9.20000  6.9003639E-03  2.2552062E-02  9.0619826E-03
   9.40000  7.2852852E-03  2.4233193E-02  9.5837240E-03
   9.60000  7.7079180E-03  2.6005125E-02  1.0130654E-02
   9.80000  8.1702102E-03  2.7873886E-02  1.0703955E-02
   10.0000  8.6733668E-03  2.9849070E-02  1.1302507E-02
   10.2500  9.3601276E-03  3.2482861E-02  1.2078797E-02
   10.5000  1.0108820E-02  3.5305588E-02  1.2868817E-02
   10.7500  1.0912375E-02  3.8289099E-02  1.3645157E-02
   11.0000  1.1757074E-02  4.1345352E-02  1.4376118E-02
   11.2500  1.2622086E-02  4.4310756E-02  1.5034399E-02
   11.5000  1.3481587E-02  4.6952697E-02  1.5606418E-02
   11.7500  1.4308974E-02  4.9006753E-02  1.6097130E-02
   12.0000  1.5081612E-02  5.0239897E-02  1.6527307E-02
   12.2500  1.5784769E-02  5.0516839E-02  1.6925176E-02
   12.5000  1.6413795E-02  4.9838286E-02  1.7317385E-02
   12.7500  1.6973901E-02  4.8332922E-02  1.7723204E-02
   13.0000  1.7477688E-02  4.6211471E-02  1.8152802E-02
   13.2500  1.7941654E-02  4.3708910E-02  1.8608237E-02
   13.5000  1.8383108E-02  4.1038437E-02  1.9085446E-02
   13.7500  1.8818222E-02  3.8366848E-02  1.9576302E-02
   14.0000  1.9261109E-02  3.5808907E-02  2.0070551E-02
   14.2500  1.9723564E-02  3.3433471E-02  2.0557773E-02
   14.5000  2.0215173E-02  3.1274410E-02  2.1029311E-02
   14.7500  2.0743595E-02  2.9341771E-02  2.1479986E-02
   15.0000  2.1314902E-02  2.7630940E-02  2.1909268E-02
   15.2500  2.1933913E-02  2.6129263E-02  2.2321683E-02
   15.5000  2.2604467E-02  2.4820389E-02  2.2726454E-02
   15.7500  2.3329628E-02  2.3686920E-02  2.3136526E-02
   16.0000  2.4111830E-02  2.2711908E-02  2.3567278E-02
   16.2500  2.4952957E-02  2.1879639E-02  2.4035190E-02
   16.5000  2.5854357E-02  2.1175965E-02  2.4556671E-02
   16.7500  2.6816716E-02  2.0588383E-02  2.5147110E-02
   17.0000  2.7839770E-02  2.0105962E-02  2.5820110E-02
   17.2500  2.8921778E-02  1.9719181E-02  2.6586794E-02
   17.5000  3.0058757E-02  1.9419736E-02  2.7455048E-02
   17.7500  3.1243495E-02  1.9200333E-02  2.8428591E-02
   18.0000  3.2464455E-02  1.9054499E-02  2.9505805E-02
   18.2500  3.3704715E-02  1.8976421E-02  3.0678356E-02
   18.5000  3.4941213E-02  1.8960843E-02  3.1929754E-02
   18.7500  3.6144620E-02  1.9003021E-02  3.3234210E-02
   19.0000  3.7280225E-02  1.9098735E-02  3.4556305E-02
   19.2500  3.8310195E-02  1.9244375E-02  3.5852148E-02
   19.5000  3.9197325E-02  1.9437040E-02  3.7072550E-02
   19.7500  3.9909969E-02  1.9674603E-02  3.8168124E-02
   20.0000  4.0427061E-02  1.9955629E-02  3.9095076E-02
   21.0000  4.0590181E-02  2.1497306E-02  4.0624119E-02
   22.0000  3.8864772E-02  2.3685922E-02  3.9031260E-02
   23.0000  3.7067676E-02  2.6444534E-02  3.6384036E-02
   24.0000  3.5935580E-02  2.9537022E-02  3.4095548E-02
   25.0000  3.5348420E-02  3.2556926E-02  3.2485178E-02
   26.0000  3.4937183E-02  3.5031537E-02  3.1441118E-02
   27.0000  3.4389602E-02  3.6605950E-02  3.0777663E-02
   28.0000  3.3564308E-02  3.7179194E-02  3.0327796E-02
   29.0000  3.2483870E-02  3.6895941E-02  2.9970362E-02
   30.0000  3.1261731E-02  3.6028595E-02  2.9652344E-02
   31.0000  3.0020334E-02  3.4852696E-02  2.9378019E-02
   32.0000  2.8861584E-02  3.3576311E-02  2.9173590E-02
   33.0000  2.7864023E-02  3.2326954E-02  2.9056825E-02
   34.0000  2.7071656E-02  3.1168694E-02  2.9020593E-02
   35.0000  2.6487860E-02  3.0123475E-02  2.9036753E-02
   36.0000  2.6082954E-02  2.9188497E-02  2.9069379E-02
   37.0000  2.5809756E-02  2.8350935E-02  2.9085828E-02
   38.0000  2.5620461E-02  2.7601912E-02  2.9064620E-02
   39.0000  2.5480045E-02  2.6950675E-02  2.9004000E-02
   40.0000  2.5372259E-02  2.6432591E-02  2.8929051E-02
