    Energy   (100,001)      (010,001)      (001,110)   
  -25.0000  1.6902815E-04  1.8448540E-04  1.7824347E-04
  -24.0000  1.7504057E-04  1.9143380E-04  1.8451821E-04
  -23.0000  1.8145198E-04  1.9887985E-04  1.9121107E-04
  -22.0000  1.8830214E-04  2.0687757E-04  1.9836419E-04
  -21.0000  1.9563620E-04  2.1548899E-04  2.0602554E-04
  -20.0000  2.0350562E-04  2.2478568E-04  2.1424988E-04
  -19.0000  2.1196935E-04  2.3485056E-04  2.2310007E-04
  -18.0000  2.2109517E-04  2.4578033E-04  2.3264857E-04
  -17.0000  2.3096148E-04  2.5768833E-04  2.4297938E-04
  -16.0000  2.4165938E-04  2.7070831E-04  2.5419040E-04
  -15.0000  2.5329541E-04  2.8499911E-04  2.6639643E-04
  -14.0000  2.6599495E-04  3.0075084E-04  2.7973301E-04
  -13.0000  2.7990655E-04  3.1819286E-04  2.9436129E-04
  -12.0000  2.9520761E-04  3.3760430E-04  3.1047446E-04
  -11.0000  3.1211172E-04  3.5932821E-04  3.2830609E-04
  -10.0000  3.3087851E-04  3.8379073E-04  3.4814145E-04
  -9.00000  3.5182683E-04  4.1152763E-04  3.7033268E-04
  -8.00000  3.7535294E-04  4.4322146E-04  3.9531997E-04
  -7.00000  4.0195587E-04  4.7975512E-04  4.2366133E-04
  -6.00000  4.3227379E-04  5.2229042E-04  4.5607574E-04
  -5.00000  4.6713754E-04  5.7238675E-04  4.9350732E-04
  -4.00000  5.0765173E-04  6.3218631E-04  5.3722397E-04
  -3.00000  5.5532280E-04  7.0471398E-04  5.8897536E-04
  -2.00000  6.1227039E-04  7.9438637E-04  6.5125839E-04
  -1.00000  6.8159791E-04  9.0792742E-04  7.2779192E-04
   0.00000  7.6809420E-04  1.0561442E-03  8.2443585E-04
   1.00000  8.7970890E-04  1.2577406E-03  9.5117160E-04
   2.00000  1.0311573E-03  1.5487943E-03  1.1270603E-03
   3.00000  1.2549851E-03  2.0121933E-03  1.3957714E-03
   4.00000  1.6504525E-03  2.9086904E-03  1.8947521E-03
   5.00000  2.6401103E-03  5.3580749E-03  3.2275284E-03
   5.20000  2.9496477E-03  6.1305073E-03  3.6645884E-03
   5.40000  3.2681620E-03  6.9170946E-03  4.1267859E-03
   5.60000  3.5873607E-03  7.7014899E-03  4.6010561E-03
   5.80000  3.9085796E-03  8.4956983E-03  5.0830318E-03
   6.00000  4.2364463E-03  9.3186795E-03  5.5695971E-03
   6.20000  4.5761972E-03  1.0186533E-02  6.0573261E-03
   6.40000  4.9332266E-03  1.1110979E-02  6.5447578E-03
   6.60000  5.3129129E-03  1.2100594E-02  7.0348284E-03
   6.80000  5.7202907E-03  1.3162654E-02  7.5354167E-03
   7.00000  6.1597761E-03  1.4304795E-02  8.0573616E-03
   7.20000  6.6350709E-03  1.5535904E-02  8.6103705E-03
   7.40000  7.1491944E-03  1.6866052E-02  9.1980425E-03
   7.60000  7.7045723E-03  1.8306123E-02  9.8138780E-03
   7.80000  8.3032218E-03  1.9868274E-02  1.0440660E-02
   8.00000  8.9471539E-03  2.1567871E-02  1.1055410E-02
   8.20000  9.6390315E-03  2.3426547E-02  1.1639837E-02
   8.40000  1.0382727E-02  2.5474303E-02  1.2191543E-02
   8.60000  1.1183129E-02  2.7747937E-02  1.2728443E-02
   8.80000  1.2044905E-02  3.0285186E-02  1.3282817E-02
   9.00000  1.2970569E-02  3.3116210E-02  1.3889803E-02
   9.20000  1.3958598E-02  3.6253792E-02  1.4578677E-02
   9.40000  1.5002583E-02  3.9683239E-02  1.5369808E-02
   9.60000  1.6092413E-02  4.3353409E-02  1.6274339E-02
   9.80000  1.7217387E-02  4.7169721E-02  1.7294775E-02
   10.0000  1.8369719E-02  5.0990239E-02  1.8426192E-02
   10.2500  1.9843892E-02  5.5482949E-02  1.9979347E-02
   10.5000  2.1354219E-02  5.9257259E-02  2.1657002E-02
   10.7500  2.2892384E-02  6.1893048E-02  2.3420050E-02
   11.0000  2.4432625E-02  6.3089208E-02  2.5224789E-02
   11.2500  2.5931046E-02  6.2748167E-02  2.7025935E-02
   11.5000  2.7333385E-02  6.0991078E-02  2.8779206E-02
   11.7500  2.8587953E-02  5.8105247E-02  3.0444426E-02
   12.0000  2.9660242E-02  5.4461168E-02  3.1990116E-02
   12.2500  3.0540158E-02  5.0431284E-02  3.3395826E-02
   12.5000  3.1239791E-02  4.6331588E-02  3.4649348E-02
   12.7500  3.1787620E-02  4.2394417E-02  3.5742424E-02
   13.0000  3.2221202E-02  3.8766725E-02  3.6669425E-02
   13.2500  3.2579221E-02  3.5523099E-02  3.7428464E-02
   13.5000  3.2895563E-02  3.2684685E-02  3.8023142E-02
   13.7500  3.3196966E-02  3.0238165E-02  3.8463756E-02
   14.0000  3.3503257E-02  2.8151338E-02  3.8767513E-02
   14.2500  3.3828600E-02  2.6384120E-02  3.8957781E-02
   14.5000  3.4182698E-02  2.4895411E-02  3.9062307E-02
   14.7500  3.4571532E-02  2.3646867E-02  3.9110597E-02
   15.0000  3.4997548E-02  2.2604612E-02  3.9130862E-02
   15.2500  3.5459468E-02  2.1739693E-02  3.9147107E-02
   15.5000  3.5951975E-02  2.1027852E-02  3.9176841E-02
   15.7500  3.6465542E-02  2.0448966E-02  3.9229783E-02
   16.0000  3.6986642E-02  1.9986389E-02  3.9307666E-02
   16.2500  3.7498477E-02  1.9626306E-02  3.9405107E-02
   16.5000  3.7982250E-02  1.9357164E-02  3.9511332E-02
   16.7500  3.8418916E-02  1.9169202E-02  3.9612425E-02
   17.0000  3.8791179E-02  1.9054080E-02  3.9693727E-02
   17.2500  3.9085456E-02  1.9004589E-02  3.9742028E-02
   17.5000  3.9293484E-02  1.9014451E-02  3.9747242E-02
   17.7500  3.9413276E-02  1.9078165E-02  3.9703375E-02
   18.0000  3.9449287E-02  1.9190909E-02  3.9608767E-02
   18.2500  3.9411782E-02  1.9348471E-02  3.9465686E-02
   18.5000  3.9315558E-02  1.9547196E-02  3.9279499E-02
   18.7500  3.9178277E-02  1.9783956E-02  3.9057619E-02
   19.0000  3.9018672E-02  2.0056125E-02  3.8808445E-02
   19.2500  3.8854867E-02  2.0361580E-02  3.8540406E-02
   19.5000  3.8702963E-02  2.0698701E-02  3.8261195E-02
   19.7500  3.8576006E-02  2.1066319E-02  3.7977259E-02
   20.0000  3.8483431E-02  2.1463504E-02  3.7693620E-02
   21.0000  3.8530215E-02  2.3321212E-02  3.6624910E-02
   22.0000  3.9133101E-02  2.5539576E-02  3.5700016E-02
   23.0000  3.9837407E-02  2.8009727E-02  3.4832781E-02
   24.0000  4.0119853E-02  3.0535626E-02  3.3914083E-02
   25.0000  3.9602888E-02  3.2823638E-02  3.2898091E-02
   26.0000  3.8169084E-02  3.4564234E-02  3.1809068E-02
   27.0000  3.6006378E-02  3.5557154E-02  3.0711846E-02
   28.0000  3.3517849E-02  3.5786498E-02  2.9682199E-02
   29.0000  3.1141043E-02  3.5402263E-02  2.8798164E-02
   30.0000  2.9179426E-02  3.4631654E-02  2.8124966E-02
   31.0000  2.7706968E-02  3.3669137E-02  2.7674220E-02
   32.0000  2.6652608E-02  3.2641343E-02  2.7409536E-02
   33.0000  2.5901935E-02  3.1615655E-02  2.7268926E-02
   34.0000  2.5346127E-02  3.0616522E-02  2.7183588E-02
   35.0000  2.4900650E-02  2.9643544E-02  2.7092039E-02
   36.0000  2.4508347E-02  2.8688189E-02  2.6947160E-02
   37.0000  2.4136787E-02  2.7747959E-02  2.6720376E-02
   38.0000  2.3775439E-02  2.6838785E-02  2.6408568E-02
   39.0000  2.3435427E-02  2.6006849E-02  2.6045865E-02
   40.0000  2.3148114E-02  2.5329756E-02  2.5708435E-02
