    Energy   (100,001)      (010,001)      (001,110)   
  -25.0000  1.7561336E-04  1.8157878E-04  1.7694101E-04
  -24.0000  1.8177940E-04  1.8846894E-04  1.8320925E-04
  -23.0000  1.8835680E-04  1.9585552E-04  1.8989999E-04
  -22.0000  1.9538724E-04  2.0379271E-04  1.9705648E-04
  -21.0000  2.0291816E-04  2.1234280E-04  2.0472807E-04
  -20.0000  2.1100383E-04  2.2157765E-04  2.1297127E-04
  -19.0000  2.1970659E-04  2.3158068E-04  2.2185107E-04
  -18.0000  2.2909839E-04  2.4244920E-04  2.3144268E-04
  -17.0000  2.3926277E-04  2.5429744E-04  2.4183354E-04
  -16.0000  2.5029727E-04  2.6726031E-04  2.5312594E-04
  -15.0000  2.6231644E-04  2.8149830E-04  2.6544033E-04
  -14.0000  2.7545581E-04  2.9720376E-04  2.7891954E-04
  -13.0000  2.8987690E-04  3.1460914E-04  2.9373425E-04
  -12.0000  3.0577378E-04  3.3399788E-04  3.1009015E-04
  -11.0000  3.2338181E-04  3.5571911E-04  3.2823751E-04
  -10.0000  3.4298928E-04  3.8020761E-04  3.4848402E-04
  -9.00000  3.6495337E-04  4.0801156E-04  3.7121243E-04
  -8.00000  3.8972237E-04  4.3983173E-04  3.9690529E-04
  -7.00000  4.1786715E-04  4.7657815E-04  4.2618025E-04
  -6.00000  4.5012715E-04  5.1945386E-04  4.5984179E-04
  -5.00000  4.8747924E-04  5.7008267E-04  4.9895941E-04
  -4.00000  5.3124467E-04  6.3071017E-04  5.4498954E-04
  -3.00000  5.8326217E-04  7.0453327E-04  5.9997399E-04
  -2.00000  6.4618290E-04  7.9626722E-04  6.6687903E-04
  -1.00000  7.2400693E-04  9.1318255E-04  7.5021201E-04
   0.00000  8.2314582E-04  1.0671574E-03  8.5723478E-04
   1.00000  9.5478461E-04  1.2791955E-03  1.0006173E-03
   2.00000  1.1410631E-03  1.5909943E-03  1.2051628E-03
   3.00000  1.4357196E-03  2.1021948E-03  1.5290539E-03
   4.00000  2.0245606E-03  3.1429272E-03  2.1590823E-03
   5.00000  3.7576986E-03  6.1811496E-03  3.9131809E-03
   5.20000  4.2784640E-03  7.1326553E-03  4.4817503E-03
   5.40000  4.7614374E-03  8.0709831E-03  5.0746789E-03
   5.60000  5.1850709E-03  8.9679393E-03  5.6819349E-03
   5.80000  5.5573868E-03  9.8373195E-03  6.3111598E-03
   6.00000  5.8956314E-03  1.0704528E-02  6.9731405E-03
   6.20000  6.2167948E-03  1.1592738E-02  7.6747316E-03
   6.40000  6.5356753E-03  1.2520551E-02  8.4167895E-03
   6.60000  6.8652099E-03  1.3503140E-02  9.1937869E-03
   6.80000  7.2171234E-03  1.4553957E-02  9.9945944E-03
   7.00000  7.6024003E-03  1.5686250E-02  1.0804966E-02
   7.20000  8.0315594E-03  1.6914218E-02  1.1611968E-02
   7.40000  8.5148850E-03  1.8253836E-02  1.2409423E-02
   7.60000  9.0627142E-03  1.9723191E-02  1.3201789E-02
   7.80000  9.6857225E-03  2.1342008E-02  1.4003479E-02
   8.00000  1.0395101E-02  2.3130591E-02  1.4832853E-02
   8.20000  1.1202482E-02  2.5108684E-02  1.5703162E-02
   8.40000  1.2119457E-02  2.7294442E-02  1.6614425E-02
   8.60000  1.3156619E-02  2.9703168E-02  1.7549931E-02
   8.80000  1.4322178E-02  3.2344748E-02  1.8479335E-02
   9.00000  1.5620342E-02  3.5218439E-02  1.9367708E-02
   9.20000  1.7049644E-02  3.8304294E-02  2.0187036E-02
   9.40000  1.8601257E-02  4.1552139E-02  2.0925133E-02
   9.60000  2.0257149E-02  4.4871186E-02  2.1588193E-02
   9.80000  2.1988537E-02  4.8124554E-02  2.2196297E-02
   10.0000  2.3755402E-02  5.1132820E-02  2.2774052E-02
   10.2500  2.5935945E-02  5.4236237E-02  2.3482474E-02
   10.5000  2.7976346E-02  5.6265086E-02  2.4189219E-02
   10.7500  2.9753903E-02  5.6990835E-02  2.4886257E-02
   11.0000  3.1155989E-02  5.6404768E-02  2.5549640E-02
   11.2500  3.2102580E-02  5.4704450E-02  2.6151269E-02
   11.5000  3.2574381E-02  5.2204685E-02  2.6673540E-02
   11.7500  3.2627595E-02  4.9234634E-02  2.7119582E-02
   12.0000  3.2375184E-02  4.6074282E-02  2.7510614E-02
   12.2500  3.1949222E-02  4.2931883E-02  2.7875281E-02
   12.5000  3.1470413E-02  3.9944852E-02  2.8240372E-02
   12.7500  3.1032871E-02  3.7191742E-02  2.8626292E-02
   13.0000  3.0700657E-02  3.4707725E-02  2.9046160E-02
   13.2500  3.0510736E-02  3.2499694E-02  2.9506179E-02
   13.5000  3.0478407E-02  3.0558469E-02  3.0006677E-02
   13.7500  3.0603166E-02  2.8866715E-02  3.0544321E-02
   14.0000  3.0873870E-02  2.7403467E-02  3.1114525E-02
   14.2500  3.1272729E-02  2.6146792E-02  3.1712885E-02
   14.5000  3.1778176E-02  2.5075371E-02  3.2335583E-02
   14.7500  3.2366509E-02  2.4169354E-02  3.2979249E-02
   15.0000  3.3012260E-02  2.3410711E-02  3.3640728E-02
   15.2500  3.3688215E-02  2.2783315E-02  3.4316717E-02
   15.5000  3.4366157E-02  2.2272888E-02  3.5003082E-02
   15.7500  3.5018206E-02  2.1866889E-02  3.5693986E-02
   16.0000  3.5618204E-02  2.1554364E-02  3.6381173E-02
   16.2500  3.6142937E-02  2.1325782E-02  3.7053635E-02
   16.5000  3.6573228E-02  2.1172853E-02  3.7697789E-02
   16.7500  3.6894874E-02  2.1088347E-02  3.8298193E-02
   17.0000  3.7099367E-02  2.1065916E-02  3.8838741E-02
   17.2500  3.7184262E-02  2.1099937E-02  3.9304150E-02
   17.5000  3.7153104E-02  2.1185373E-02  3.9681496E-02
   17.7500  3.7014879E-02  2.1317667E-02  3.9961497E-02
   18.0000  3.6783022E-02  2.1492666E-02  4.0139361E-02
   18.2500  3.6474135E-02  2.1706571E-02  4.0215044E-02
   18.5000  3.6106570E-02  2.1955916E-02  4.0192959E-02
   18.7500  3.5699059E-02  2.2237558E-02  4.0081218E-02
   19.0000  3.5269512E-02  2.2548695E-02  3.9890583E-02
   19.2500  3.4834066E-02  2.2886890E-02  3.9633286E-02
   19.5000  3.4406408E-02  2.3250103E-02  3.9321885E-02
   19.7500  3.3997427E-02  2.3636645E-02  3.8968354E-02
   20.0000  3.3615310E-02  2.4044954E-02  3.8583648E-02
   21.0000  3.2457658E-02  2.5850573E-02  3.6923376E-02
   22.0000  3.1985272E-02  2.7801680E-02  3.5371511E-02
   23.0000  3.2124148E-02  2.9709185E-02  3.4063956E-02
   24.0000  3.2697243E-02  3.1363723E-02  3.2966606E-02
   25.0000  3.3466978E-02  3.2590889E-02  3.1993168E-02
   26.0000  3.4127932E-02  3.3311868E-02  3.1067528E-02
   27.0000  3.4359326E-02  3.3553616E-02  3.0158387E-02
   28.0000  3.3966958E-02  3.3410630E-02  2.9287736E-02
   29.0000  3.2999910E-02  3.2997432E-02  2.8508838E-02
   30.0000  3.1704634E-02  3.2415996E-02  2.7868512E-02
   31.0000  3.0361332E-02  3.1738621E-02  2.7381405E-02
   32.0000  2.9160214E-02  3.1004203E-02  2.7029198E-02
   33.0000  2.8179257E-02  3.0225504E-02  2.6774865E-02
   34.0000  2.7417613E-02  2.9401577E-02  2.6576198E-02
   35.0000  2.6834081E-02  2.8536380E-02  2.6395126E-02
   36.0000  2.6377128E-02  2.7648716E-02  2.6203788E-02
   37.0000  2.6007164E-02  2.6759654E-02  2.5986713E-02
   38.0000  2.5703355E-02  2.5900549E-02  2.5745427E-02
   39.0000  2.5459964E-02  2.5124160E-02  2.5502025E-02
   40.0000  2.5276968E-02  2.4500914E-02  2.5293705E-02
