    Energy   (100,001)      (010,001)      (001,110)   
  -25.0000  1.6910322E-04  1.8368786E-04  1.7974096E-04
  -24.0000  1.7485252E-04  1.9064482E-04  1.8585933E-04
  -23.0000  1.8096687E-04  1.9810367E-04  1.9237327E-04
  -22.0000  1.8748110E-04  2.0611934E-04  1.9932160E-04
  -21.0000  1.9443455E-04  2.1475492E-04  2.0674833E-04
  -20.0000  2.0187186E-04  2.2408331E-04  2.1470357E-04
  -19.0000  2.0984384E-04  2.3418910E-04  2.2324465E-04
  -18.0000  2.1840860E-04  2.4517099E-04  2.3243745E-04
  -17.0000  2.2763291E-04  2.5714490E-04  2.4235804E-04
  -16.0000  2.3759387E-04  2.7024777E-04  2.5309477E-04
  -15.0000  2.4838100E-04  2.8464256E-04  2.6475085E-04
  -14.0000  2.6009887E-04  3.0052461E-04  2.7744763E-04
  -13.0000  2.7287042E-04  3.1813004E-04  2.9132882E-04
  -12.0000  2.8684122E-04  3.3774686E-04  3.0656593E-04
  -11.0000  3.0218500E-04  3.5972986E-04  3.2336545E-04
  -10.0000  3.1911095E-04  3.8452093E-04  3.4197840E-04
  -9.00000  3.3787343E-04  4.1267722E-04  3.6271328E-04
  -8.00000  3.5878525E-04  4.4491092E-04  3.8595405E-04
  -7.00000  3.8223602E-04  4.8214662E-04  4.1218535E-04
  -6.00000  4.0871831E-04  5.2560601E-04  4.4202933E-04
  -5.00000  4.3886585E-04  5.7693674E-04  4.7630049E-04
  -4.00000  4.7351138E-04  6.3841441E-04  5.1609091E-04
  -3.00000  5.1377765E-04  7.1327230E-04  5.6290832E-04
  -2.00000  5.6122856E-04  8.0626527E-04  6.1891299E-04
  -1.00000  6.1813678E-04  9.2469258E-04  6.8735331E-04
   0.00000  6.8800045E-04  1.0803997E-03  7.7344415E-04
   1.00000  7.7666438E-04  1.2941181E-03  8.8636905E-04
   2.00000  8.9518983E-04  1.6063515E-03  1.0446945E-03
   3.00000  1.0692442E-03  2.1114899E-03  1.2951582E-03
   4.00000  1.3839548E-03  3.1108422E-03  1.8076428E-03
   5.00000  2.2188533E-03  5.9077551E-03  3.3885381E-03
   5.20000  2.4663222E-03  6.7897650E-03  3.8619484E-03
   5.40000  2.7015563E-03  7.6818902E-03  4.2858985E-03
   5.60000  2.9181760E-03  8.5648227E-03  4.6316382E-03
   5.80000  3.1225579E-03  9.4535657E-03  4.9002436E-03
   6.00000  3.3236174E-03  1.0372327E-02  5.1056918E-03
   6.20000  3.5280506E-03  1.1343533E-02  5.2670988E-03
   6.40000  3.7396271E-03  1.2386368E-02  5.4059053E-03
   6.60000  3.9599347E-03  1.3517716E-02  5.5431714E-03
   6.80000  4.1894266E-03  1.4752954E-02  5.6967072E-03
   7.00000  4.4284168E-03  1.6106253E-02  5.8793079E-03
   7.20000  4.6778924E-03  1.7590661E-02  6.0986834E-03
   7.40000  4.9399891E-03  1.9218309E-02  6.3586424E-03
   7.60000  5.2179550E-03  2.1000722E-02  6.6606601E-03
   7.80000  5.5155687E-03  2.2948864E-02  7.0052068E-03
   8.00000  5.8362941E-03  2.5072828E-02  7.3927060E-03
   8.20000  6.1826003E-03  2.7381210E-02  7.8242489E-03
   8.40000  6.5557293E-03  2.9879941E-02  8.3021279E-03
   8.60000  6.9559443E-03  3.2570086E-02  8.8301105E-03
   8.80000  7.3830992E-03  3.5443972E-02  9.4133321E-03
   9.00000  7.8372808E-03  3.8479126E-02  1.0057735E-02
   9.20000  8.3193372E-03  4.1630629E-02  1.0769089E-02
   9.40000  8.8311885E-03  4.4824059E-02  1.1551734E-02
   9.60000  9.3758028E-03  4.7952119E-02  1.2407334E-02
   9.80000  9.9567942E-03  5.0878020E-02  1.3333932E-02
   10.0000  1.0577742E-02  5.3447102E-02  1.4325497E-02
   10.2500  1.1414268E-02  5.5923467E-02  1.5640623E-02
   10.5000  1.2320204E-02  5.7356582E-02  1.7014760E-02
   10.7500  1.3294919E-02  5.7615523E-02  1.8418615E-02
   11.0000  1.4334590E-02  5.6717443E-02  1.9825610E-02
   11.2500  1.5432372E-02  5.4820880E-02  2.1215066E-02
   11.5000  1.6578293E-02  5.2182599E-02  2.2572730E-02
   11.7500  1.7759218E-02  4.9094385E-02  2.3888988E-02
   12.0000  1.8959511E-02  4.5824980E-02  2.5156036E-02
   12.2500  2.0162788E-02  4.2584522E-02  2.6366082E-02
   12.5000  2.1354842E-02  3.9513130E-02  2.7511165E-02
   12.7500  2.2526479E-02  3.6687415E-02  2.8584176E-02
   13.0000  2.3674304E-02  3.4137713E-02  2.9581218E-02
   13.2500  2.4799323E-02  3.1867467E-02  3.0504769E-02
   13.5000  2.5905222E-02  2.9866830E-02  3.1365329E-02
   13.7500  2.6997265E-02  2.8119435E-02  3.2180196E-02
   14.0000  2.8081429E-02  2.6605663E-02  3.2970600E-02
   14.2500  2.9163524E-02  2.5304681E-02  3.3758731E-02
   14.5000  3.0248439E-02  2.4195823E-02  3.4565266E-02
   14.7500  3.1339617E-02  2.3259462E-02  3.5407415E-02
   15.0000  3.2438801E-02  2.2477506E-02  3.6297423E-02
   15.2500  3.3545953E-02  2.1833619E-02  3.7241390E-02
   15.5000  3.4659216E-02  2.1313282E-02  3.8238335E-02
   15.7500  3.5774824E-02  2.0903730E-02  3.9279481E-02
   16.0000  3.6886865E-02  2.0593815E-02  4.0347864E-02
   16.2500  3.7986953E-02  2.0373844E-02  4.1418483E-02
   16.5000  3.9063899E-02  2.0235407E-02  4.2459256E-02
   16.7500  4.0103602E-02  2.0171199E-02  4.3433006E-02
   17.0000  4.1089336E-02  2.0174859E-02  4.4300537E-02
   17.2500  4.2002615E-02  2.0240805E-02  4.5024564E-02
   17.5000  4.2824638E-02  2.0364083E-02  4.5573908E-02
   17.7500  4.3538185E-02  2.0540233E-02  4.5927201E-02
   18.0000  4.4129673E-02  2.0765166E-02  4.6075300E-02
   18.2500  4.4590987E-02  2.1035084E-02  4.6021934E-02
   18.5000  4.4920719E-02  2.1346413E-02  4.5782508E-02
   18.7500  4.5124526E-02  2.1695794E-02  4.5381439E-02
   19.0000  4.5214501E-02  2.2080094E-02  4.4848684E-02
   19.2500  4.5207672E-02  2.2496464E-02  4.4216117E-02
   19.5000  4.5123903E-02  2.2942399E-02  4.3514341E-02
   19.7500  4.4983671E-02  2.3415730E-02  4.2770402E-02
   20.0000  4.4806289E-02  2.3914375E-02  4.2006845E-02
   21.0000  4.4031505E-02  2.6102250E-02  3.9083019E-02
   22.0000  4.3504546E-02  2.8428745E-02  3.6768769E-02
   23.0000  4.3109287E-02  3.0641588E-02  3.5100575E-02
   24.0000  4.2443223E-02  3.2444306E-02  3.3895035E-02
   25.0000  4.1181111E-02  3.3583216E-02  3.2963145E-02
   26.0000  3.9262667E-02  3.3970996E-02  3.2164997E-02
   27.0000  3.6910363E-02  3.3714085E-02  3.1418013E-02
   28.0000  3.4479883E-02  3.3023579E-02  3.0697627E-02
   29.0000  3.2284067E-02  3.2117409E-02  3.0031668E-02
   30.0000  3.0499282E-02  3.1167096E-02  2.9469300E-02
   31.0000  2.9142176E-02  3.0265014E-02  2.9031275E-02
   32.0000  2.8149047E-02  2.9445301E-02  2.8705606E-02
   33.0000  2.7438169E-02  2.8710693E-02  2.8464088E-02
   34.0000  2.6927976E-02  2.8046217E-02  2.8274506E-02
   35.0000  2.6541951E-02  2.7429389E-02  2.8106616E-02
   36.0000  2.6211573E-02  2.6838845E-02  2.7934095E-02
   37.0000  2.5881459E-02  2.6261046E-02  2.7736546E-02
   38.0000  2.5519424E-02  2.5696203E-02  2.7504854E-02
   39.0000  2.5132715E-02  2.5167183E-02  2.7251450E-02
   40.0000  2.4778133E-02  2.4726030E-02  2.7018806E-02
