    Energy   (100,001)      (010,001)      (001,110)   
  -25.0000  1.6976445E-04  1.8879994E-04  1.8207641E-04
  -24.0000  1.7560035E-04  1.9584223E-04  1.8832591E-04
  -23.0000  1.8181153E-04  2.0338857E-04  1.9498501E-04
  -22.0000  1.8843429E-04  2.1149394E-04  2.0209461E-04
  -21.0000  1.9550970E-04  2.2022147E-04  2.0970120E-04
  -20.0000  2.0308445E-04  2.2964409E-04  2.1785785E-04
  -19.0000  2.1121178E-04  2.3984639E-04  2.2662545E-04
  -18.0000  2.1995271E-04  2.5092711E-04  2.3607418E-04
  -17.0000  2.2937752E-04  2.6300217E-04  2.4628536E-04
  -16.0000  2.3956754E-04  2.7620852E-04  2.5735380E-04
  -15.0000  2.5061747E-04  2.9070907E-04  2.6939067E-04
  -14.0000  2.6263822E-04  3.0669915E-04  2.8252730E-04
  -13.0000  2.7576058E-04  3.2441487E-04  2.9691995E-04
  -12.0000  2.9013997E-04  3.4414419E-04  3.1275615E-04
  -11.0000  3.0596252E-04  3.6624192E-04  3.3026304E-04
  -10.0000  3.2345325E-04  3.9114998E-04  3.4971864E-04
  -9.00000  3.4288701E-04  4.1942572E-04  3.7146726E-04
  -8.00000  3.6460342E-04  4.5178174E-04  3.9594113E-04
  -7.00000  3.8902781E-04  4.8914350E-04  4.2369127E-04
  -6.00000  4.1670116E-04  5.3273450E-04  4.5543306E-04
  -5.00000  4.4832421E-04  5.8420583E-04  4.9211544E-04
  -4.00000  4.8482472E-04  6.4583992E-04  5.3503019E-04
  -3.00000  5.2746431E-04  7.2088365E-04  5.8599288E-04
  -2.00000  5.7801724E-04  8.1411981E-04  6.4765995E-04
  -1.00000  6.3908974E-04  9.3290777E-04  7.2412619E-04
   0.00000  7.1474170E-04  1.0892314E-03  8.2216044E-04
   1.00000  8.1184584E-04  1.3041724E-03  9.5409781E-04
   2.00000  9.4358836E-04  1.6192529E-03  1.1458736E-03
   3.00000  1.1409753E-03  2.1325206E-03  1.4656661E-03
   4.00000  1.5079314E-03  3.1637246E-03  2.1727000E-03
   5.00000  2.5112453E-03  6.1101234E-03  4.4841423E-03
   5.20000  2.8116855E-03  7.0232911E-03  5.1282294E-03
   5.40000  3.0974013E-03  7.9249036E-03  5.6646610E-03
   5.60000  3.3591350E-03  8.7951637E-03  6.0877713E-03
   5.80000  3.6030403E-03  9.6551580E-03  6.4430697E-03
   6.00000  3.8394943E-03  1.0536135E-02  6.7739089E-03
   6.20000  4.0775681E-03  1.1466243E-02  7.0973144E-03
   6.40000  4.3231015E-03  1.2468550E-02  7.4017550E-03
   6.60000  4.5782082E-03  1.3561838E-02  7.6588543E-03
   6.80000  4.8423123E-03  1.4761309E-02  7.8452482E-03
   7.00000  5.1147177E-03  1.6079071E-02  7.9626293E-03
   7.20000  5.3970808E-03  1.7524880E-02  8.0405155E-03
   7.40000  5.6939747E-03  1.9107346E-02  8.1214016E-03
   7.60000  6.0116873E-03  2.0835274E-02  8.2434742E-03
   7.80000  6.3567110E-03  2.2718754E-02  8.4324142E-03
   8.00000  6.7348674E-03  2.4769644E-02  8.7018790E-03
   8.20000  7.1510825E-03  2.7001032E-02  9.0573788E-03
   8.40000  7.6094665E-03  2.9425100E-02  9.4999339E-03
   8.60000  8.1134213E-03  3.2049036E-02  1.0028405E-02
   8.80000  8.6656178E-03  3.4869117E-02  1.0640579E-02
   9.00000  9.2677938E-03  3.7863190E-02  1.1333495E-02
   9.20000  9.9203849E-03  4.0982230E-02  1.2103519E-02
   9.40000  1.0622040E-02  4.4143531E-02  1.2946470E-02
   9.60000  1.1369146E-02  4.7229390E-02  1.3857829E-02
   9.80000  1.2155600E-02  5.0095181E-02  1.4832880E-02
   10.0000  1.2973092E-02  5.2587834E-02  1.5866491E-02
   10.2500  1.4023892E-02  5.4972460E-02  1.7231395E-02
   10.5000  1.5089710E-02  5.6376649E-02  1.8663070E-02
   10.7500  1.6155336E-02  5.6732367E-02  2.0143700E-02
   11.0000  1.7209416E-02  5.6078208E-02  2.1652637E-02
   11.2500  1.8244965E-02  5.4534235E-02  2.3164744E-02
   11.5000  1.9259806E-02  5.2279880E-02  2.4651002E-02
   11.7500  2.0255738E-02  4.9531433E-02  2.6081647E-02
   12.0000  2.1237199E-02  4.6513332E-02  2.7429481E-02
   12.2500  2.2210009E-02  4.3427105E-02  2.8672830E-02
   12.5000  2.3179104E-02  4.0428217E-02  2.9798452E-02
   12.7500  2.4146194E-02  3.7619344E-02  3.0802404E-02
   13.0000  2.5110114E-02  3.5057873E-02  3.1688111E-02
   13.2500  2.6069141E-02  3.2767460E-02  3.2464987E-02
   13.5000  2.7022811E-02  3.0748529E-02  3.3148929E-02
   13.7500  2.7972198E-02  2.8987186E-02  3.3762282E-02
   14.0000  2.8918888E-02  2.7462262E-02  3.4331181E-02
   14.2500  2.9863844E-02  2.6150129E-02  3.4881786E-02
   14.5000  3.0807156E-02  2.5027349E-02  3.5437601E-02
   14.7500  3.1748264E-02  2.4071903E-02  3.6017931E-02
   15.0000  3.2685957E-02  2.3263756E-02  3.6636741E-02
   15.2500  3.3618132E-02  2.2585110E-02  3.7301706E-02
   15.5000  3.4541511E-02  2.2020445E-02  3.8013521E-02
   15.7500  3.5451478E-02  2.1556438E-02  3.8765538E-02
   16.0000  3.6342051E-02  2.1181800E-02  3.9543826E-02
   16.2500  3.7206037E-02  2.0887072E-02  4.0327727E-02
   16.5000  3.8035349E-02  2.0664407E-02  4.1091044E-02
   16.7500  3.8821505E-02  2.0507343E-02  4.1803898E-02
   17.0000  3.9556271E-02  2.0410581E-02  4.2435230E-02
   17.2500  4.0232394E-02  2.0369764E-02  4.2955749E-02
   17.5000  4.0844342E-02  2.0381261E-02  4.3340954E-02
   17.7500  4.1388939E-02  2.0441954E-02  4.3573742E-02
   18.0000  4.1865783E-02  2.0549042E-02  4.3646142E-02
   18.2500  4.2277364E-02  2.0699884E-02  4.3559840E-02
   18.5000  4.2628861E-02  2.0891870E-02  4.3325466E-02
   18.7500  4.2927623E-02  2.1122362E-02  4.2960830E-02
   19.0000  4.3182440E-02  2.1388689E-02  4.2488490E-02
   19.2500  4.3402693E-02  2.1688203E-02  4.1933104E-02
   19.5000  4.3597513E-02  2.2018374E-02  4.1318965E-02
   19.7500  4.3775034E-02  2.2376842E-02  4.0668118E-02
   20.0000  4.3941795E-02  2.2761294E-02  3.9999494E-02
   21.0000  4.4563568E-02  2.4500891E-02  3.7436973E-02
   22.0000  4.5054861E-02  2.6425631E-02  3.5433776E-02
   23.0000  4.5081482E-02  2.8381672E-02  3.4040408E-02
   24.0000  4.4237574E-02  3.0214016E-02  3.3071203E-02
   25.0000  4.2332281E-02  3.1762675E-02  3.2311251E-02
   26.0000  3.9545656E-02  3.2895667E-02  3.1599974E-02
   27.0000  3.6354980E-02  3.3551447E-02  3.0865360E-02
   28.0000  3.3287307E-02  3.3756050E-02  3.0122106E-02
   29.0000  3.0696764E-02  3.3598256E-02  2.9435536E-02
   30.0000  2.8706729E-02  3.3183712E-02  2.8872637E-02
   31.0000  2.7280758E-02  3.2600245E-02  2.8468020E-02
   32.0000  2.6314671E-02  3.1907218E-02  2.8216455E-02
   33.0000  2.5688251E-02  3.1147720E-02  2.8083757E-02
   34.0000  2.5287978E-02  3.0359851E-02  2.8022637E-02
   35.0000  2.5029006E-02  2.9567513E-02  2.7985994E-02
   36.0000  2.4850777E-02  2.8790426E-02  2.7933698E-02
   37.0000  2.4705903E-02  2.8052492E-02  2.7836301E-02
   38.0000  2.4558709E-02  2.7378969E-02  2.7680782E-02
   39.0000  2.4394151E-02  2.6796435E-02  2.7480866E-02
   40.0000  2.4230847E-02  2.6338710E-02  2.7284175E-02
