    Energy   (100,001)      (010,001)      (001,110)   
  -25.0000  1.7674170E-04  1.8153543E-04  1.7637928E-04
  -24.0000  1.8326506E-04  1.8848261E-04  1.8298199E-04
  -23.0000  1.9024120E-04  1.9593381E-04  1.9004993E-04
  -22.0000  1.9771739E-04  2.0394440E-04  1.9763250E-04
  -21.0000  2.0574761E-04  2.1257800E-04  2.0578619E-04
  -20.0000  2.1439373E-04  2.2190813E-04  2.1457596E-04
  -19.0000  2.2372706E-04  2.3202015E-04  2.2407683E-04
  -18.0000  2.3383014E-04  2.4301371E-04  2.3437588E-04
  -17.0000  2.4479907E-04  2.5500585E-04  2.4557481E-04
  -16.0000  2.5674635E-04  2.6813492E-04  2.5779303E-04
  -15.0000  2.6980452E-04  2.8256560E-04  2.7117177E-04
  -14.0000  2.8413081E-04  2.9849538E-04  2.8587915E-04
  -13.0000  2.9991310E-04  3.1616306E-04  3.0211695E-04
  -12.0000  3.1737779E-04  3.3586002E-04  3.2012933E-04
  -11.0000  3.3680006E-04  3.5794530E-04  3.4021463E-04
  -10.0000  3.5851779E-04  3.8286620E-04  3.6274110E-04
  -9.00000  3.8295042E-04  4.1118682E-04  3.8816867E-04
  -8.00000  4.1062512E-04  4.4362824E-04  4.1707929E-04
  -7.00000  4.4221390E-04  4.8112659E-04  4.5022030E-04
  -6.00000  4.7858715E-04  5.2491853E-04  4.8856786E-04
  -5.00000  5.2089340E-04  5.7667103E-04  5.3342224E-04
  -4.00000  5.7068150E-04  6.3868453E-04  5.8655589E-04
  -3.00000  6.3009514E-04  7.1422331E-04  6.5045238E-04
  -2.00000  7.0219682E-04  8.0807835E-04  7.2871063E-04
  -1.00000  7.9153912E-04  9.2758307E-04  8.2677018E-04
   0.00000  9.0524926E-04  1.0845884E-03  9.5331473E-04
   1.00000  1.0553047E-03  1.2997108E-03  1.1232776E-03
   2.00000  1.2640419E-03  1.6128867E-03  1.3652697E-03
   3.00000  1.5807683E-03  2.1161147E-03  1.7443879E-03
   4.00000  2.1533497E-03  3.0990748E-03  2.4615712E-03
   5.00000  3.5966437E-03  5.8024685E-03  4.3655817E-03
   5.20000  4.0496779E-03  6.6500700E-03  4.9732998E-03
   5.40000  4.5204464E-03  7.5047881E-03  5.6106934E-03
   5.60000  5.0009536E-03  8.3458996E-03  6.2749326E-03
   5.80000  5.4974037E-03  9.1869514E-03  6.9844155E-03
   6.00000  6.0204957E-03  1.0053056E-02  7.7610018E-03
   6.20000  6.5813981E-03  1.0970462E-02  8.6189910E-03
   6.40000  7.1910788E-03  1.1964650E-02  9.5593125E-03
   6.60000  7.8601580E-03  1.3060773E-02  1.0567203E-02
   6.80000  8.5987745E-03  1.4284240E-02  1.1614687E-02
   7.00000  9.4165074E-03  1.5660845E-02  1.2668526E-02
   7.20000  1.0321967E-02  1.7216259E-02  1.3700882E-02
   7.40000  1.1321421E-02  1.8974764E-02  1.4697835E-02
   7.60000  1.2416192E-02  2.0957277E-02  1.5662795E-02
   7.80000  1.3599473E-02  2.3178981E-02  1.6615538E-02
   8.00000  1.4854149E-02  2.5647282E-02  1.7588976E-02
   8.20000  1.6154070E-02  2.8360934E-02  1.8624509E-02
   8.40000  1.7471222E-02  3.1309964E-02  1.9765948E-02
   8.60000  1.8788585E-02  3.4475183E-02  2.1053005E-02
   8.80000  2.0112670E-02  3.7827050E-02  2.2515990E-02
   9.00000  2.1476330E-02  4.1323560E-02  2.4172182E-02
   9.20000  2.2927593E-02  4.4905685E-02  2.6022815E-02
   9.40000  2.4510165E-02  4.8489827E-02  2.8049790E-02
   9.60000  2.6245529E-02  5.1959855E-02  3.0212838E-02
   9.80000  2.8122617E-02  5.5164196E-02  3.2448954E-02
   10.0000  3.0096036E-02  5.7923462E-02  3.4675675E-02
   10.2500  3.2584046E-02  6.0464049E-02  3.7301953E-02
   10.5000  3.4930736E-02  6.1717848E-02  3.9584605E-02
   10.7500  3.6968022E-02  6.1540254E-02  4.1376710E-02
   11.0000  3.8572187E-02  5.9987697E-02  4.2588617E-02
   11.2500  3.9683859E-02  5.7291564E-02  4.3197547E-02
   11.5000  4.0309564E-02  5.3790075E-02  4.3243727E-02
   11.7500  4.0508627E-02  4.9851600E-02  4.2814456E-02
   12.0000  4.0374498E-02  4.5808110E-02  4.2023712E-02
   12.2500  4.0017181E-02  4.1911661E-02  4.0993831E-02
   12.5000  3.9545926E-02  3.8321702E-02  3.9840126E-02
   12.7500  3.9054056E-02  3.5116977E-02  3.8660086E-02
   13.0000  3.8610918E-02  3.2318034E-02  3.7529659E-02
   13.2500  3.8260849E-02  2.9909572E-02  3.6503532E-02
   13.5000  3.8026095E-02  2.7857766E-02  3.5616784E-02
   13.7500  3.7911282E-02  2.6121730E-02  3.4888151E-02
   14.0000  3.7908067E-02  2.4660190E-02  3.4324026E-02
   14.2500  3.7999230E-02  2.3434915E-02  3.3922046E-02
   14.5000  3.8162009E-02  2.2412161E-02  3.3673756E-02
   14.7500  3.8370739E-02  2.1562975E-02  3.3566294E-02
   15.0000  3.8598954E-02  2.0862910E-02  3.3583373E-02
   15.2500  3.8821110E-02  2.0291507E-02  3.3705908E-02
   15.5000  3.9014018E-02  1.9831714E-02  3.3912545E-02
   15.7500  3.9158005E-02  1.9469334E-02  3.4180276E-02
   16.0000  3.9237796E-02  1.9192546E-02  3.4485234E-02
   16.2500  3.9243087E-02  1.8991503E-02  3.4803704E-02
   16.5000  3.9168787E-02  1.8858010E-02  3.5113309E-02
   16.7500  3.9014929E-02  1.8785264E-02  3.5394230E-02
   17.0000  3.8786273E-02  1.8767643E-02  3.5630322E-02
   17.2500  3.8491657E-02  1.8800531E-02  3.5809932E-02
   17.5000  3.8143121E-02  1.8880168E-02  3.5926289E-02
   17.7500  3.7754907E-02  1.9003513E-02  3.5977406E-02
   18.0000  3.7342382E-02  1.9168115E-02  3.5965520E-02
   18.2500  3.6920997E-02  1.9371998E-02  3.5896187E-02
   18.5000  3.6505351E-02  1.9613554E-02  3.5777200E-02
   18.7500  3.6108432E-02  1.9891451E-02  3.5617492E-02
   19.0000  3.5741081E-02  2.0204580E-02  3.5426143E-02
   19.2500  3.5411660E-02  2.0552027E-02  3.5211596E-02
   19.5000  3.5125934E-02  2.0933061E-02  3.4981084E-02
   19.7500  3.4887095E-02  2.1347088E-02  3.4740321E-02
   20.0000  3.4695949E-02  2.1793414E-02  3.4493494E-02
   21.0000  3.4362232E-02  2.3867539E-02  3.3492649E-02
   22.0000  3.4470151E-02  2.6288229E-02  3.2498482E-02
   23.0000  3.4507655E-02  2.8856532E-02  3.1480409E-02
   24.0000  3.3931518E-02  3.1286781E-02  3.0430956E-02
   25.0000  3.2537389E-02  3.3257515E-02  2.9385623E-02
   26.0000  3.0620037E-02  3.4538436E-02  2.8393588E-02
   27.0000  2.8666465E-02  3.5082103E-02  2.7503739E-02
   28.0000  2.7009425E-02  3.5008266E-02  2.6770278E-02
   29.0000  2.5764453E-02  3.4514951E-02  2.6242518E-02
   30.0000  2.4904649E-02  3.3777212E-02  2.5927504E-02
   31.0000  2.4345206E-02  3.2910884E-02  2.5788532E-02
   32.0000  2.3995172E-02  3.1979240E-02  2.5759900E-02
   33.0000  2.3779790E-02  3.1010316E-02  2.5762722E-02
   34.0000  2.3645868E-02  3.0014235E-02  2.5721345E-02
   35.0000  2.3558969E-02  2.8996163E-02  2.5577508E-02
   36.0000  2.3497262E-02  2.7964744E-02  2.5301228E-02
   37.0000  2.3444405E-02  2.6937982E-02  2.4897165E-02
   38.0000  2.3385870E-02  2.5949440E-02  2.4404875E-02
   39.0000  2.3314375E-02  2.5056324E-02  2.3894302E-02
   40.0000  2.3239896E-02  2.4338433E-02  2.3455145E-02
