    Energy   (100,001)      (010,001)      (001,110)   
  -25.0000  1.7074996E-04  1.8806314E-04  1.8066476E-04
  -24.0000  1.7680957E-04  1.9495361E-04  1.8717589E-04
  -23.0000  1.8327189E-04  2.0232861E-04  1.9413419E-04
  -22.0000  1.9017716E-04  2.1024010E-04  2.0158642E-04
  -21.0000  1.9757110E-04  2.1874767E-04  2.0958601E-04
  -20.0000  2.0550585E-04  2.2791995E-04  2.1819439E-04
  -19.0000  2.1404114E-04  2.3783641E-04  2.2748242E-04
  -18.0000  2.2324570E-04  2.4858958E-04  2.3753238E-04
  -17.0000  2.3319905E-04  2.6028779E-04  2.4844031E-04
  -16.0000  2.4399365E-04  2.7305866E-04  2.6031906E-04
  -15.0000  2.5573770E-04  2.8705362E-04  2.7330208E-04
  -14.0000  2.6855857E-04  3.0245359E-04  2.8754847E-04
  -13.0000  2.8260729E-04  3.1947653E-04  3.0324938E-04
  -12.0000  2.9806433E-04  3.3838730E-04  3.2063664E-04
  -11.0000  3.1514715E-04  3.5951089E-04  3.3999427E-04
  -10.0000  3.3412026E-04  3.8325033E-04  3.6167415E-04
  -9.00000  3.5530884E-04  4.1011140E-04  3.8611791E-04
  -8.00000  3.7911734E-04  4.4073732E-04  4.1388782E-04
  -7.00000  4.0605575E-04  4.7595842E-04  4.4571178E-04
  -6.00000  4.3677704E-04  5.1686504E-04  4.8255033E-04
  -5.00000  4.7213260E-04  5.6491736E-04  5.2569991E-04
  -4.00000  5.1325643E-04  6.2211634E-04  5.7695767E-04
  -3.00000  5.6169840E-04  6.9127987E-04  6.3889685E-04
  -2.00000  6.1964514E-04  7.7651018E-04  7.1535213E-04
  -1.00000  6.9030905E-04  8.8403221E-04  8.1233490E-04
   0.00000  7.7866849E-04  1.0238153E-03  9.3991536E-04
   1.00000  8.9303297E-04  1.2130487E-03  1.1165654E-03
   2.00000  1.0488882E-03  1.4847772E-03  1.3809295E-03
   3.00000  1.2807503E-03  1.9148358E-03  1.8323441E-03
   4.00000  1.6946446E-03  2.7431818E-03  2.8328152E-03
   5.00000  2.7424777E-03  4.9985996E-03  6.0520990E-03
   5.20000  3.0706163E-03  5.6910322E-03  6.9870131E-03
   5.40000  3.4087709E-03  6.3762850E-03  7.8077439E-03
   5.60000  3.7497476E-03  7.0388255E-03  8.5005174E-03
   5.80000  4.0968478E-03  7.6940084E-03  9.1271747E-03
   6.00000  4.4564465E-03  8.3660388E-03  9.7593122E-03
   6.20000  4.8344496E-03  9.0779077E-03  1.0446316E-02
   6.40000  5.2353208E-03  9.8495827E-03  1.1212068E-02
   6.60000  5.6620694E-03  1.0698573E-02  1.2061863E-02
   6.80000  6.1167459E-03  1.1640739E-02  1.2989911E-02
   7.00000  6.6011145E-03  1.2690991E-02  1.3984244E-02
   7.20000  7.1170599E-03  1.3863866E-02  1.5028415E-02
   7.40000  7.6664666E-03  1.5173870E-02  1.6100620E-02
   7.60000  8.2506141E-03  1.6635503E-02  1.7171741E-02
   7.80000  8.8693774E-03  1.8262991E-02  1.8204387E-02
   8.00000  9.5207326E-03  2.0069759E-02  1.9155065E-02
   8.20000  1.0201108E-02  2.2067928E-02  1.9980651E-02
   8.40000  1.0906756E-02  2.4268118E-02  2.0648068E-02
   8.60000  1.1635679E-02  2.6679480E-02  2.1143749E-02
   8.80000  1.2389237E-02  2.9309165E-02  2.1478918E-02
   9.00000  1.3172563E-02  3.2159876E-02  2.1688409E-02
   9.20000  1.3993683E-02  3.5224621E-02  2.1823524E-02
   9.40000  1.4861836E-02  3.8478833E-02  2.1941542E-02
   9.60000  1.5785547E-02  4.1870869E-02  2.2095143E-02
   9.80000  1.6770793E-02  4.5313040E-02  2.2324322E-02
   10.0000  1.7819389E-02  4.8676339E-02  2.2651890E-02
   10.2500  1.9213171E-02  5.2511153E-02  2.3205157E-02
   10.5000  2.0679848E-02  5.5586767E-02  2.3893121E-02
   10.7500  2.2186539E-02  5.7567039E-02  2.4666091E-02
   11.0000  2.3691665E-02  5.8250898E-02  2.5467050E-02
   11.2500  2.5151464E-02  5.7629980E-02  2.6247040E-02
   11.5000  2.6527025E-02  5.5878089E-02  2.6976290E-02
   11.7500  2.7789455E-02  5.3285470E-02  2.7647768E-02
   12.0000  2.8922672E-02  5.0175580E-02  2.8266624E-02
   12.2500  2.9924185E-02  4.6840016E-02  2.8834479E-02
   12.5000  3.0804025E-02  4.3504548E-02  2.9345835E-02
   12.7500  3.1581406E-02  4.0322079E-02  2.9794365E-02
   13.0000  3.2280452E-02  3.7382109E-02  3.0179020E-02
   13.2500  3.2926621E-02  3.4726381E-02  3.0506354E-02
   13.5000  3.3543682E-02  3.2364373E-02  3.0789941E-02
   13.7500  3.4151155E-02  3.0286185E-02  3.1048199E-02
   14.0000  3.4762973E-02  2.8472006E-02  3.1301740E-02
   14.2500  3.5387429E-02  2.6898034E-02  3.1571093E-02
   14.5000  3.6027784E-02  2.5539746E-02  3.1875016E-02
   14.7500  3.6682976E-02  2.4373646E-02  3.2229249E-02
   15.0000  3.7348283E-02  2.3378162E-02  3.2645604E-02
   15.2500  3.8015895E-02  2.2534004E-02  3.3131281E-02
   15.5000  3.8675408E-02  2.1824210E-02  3.3688341E-02
   15.7500  3.9314293E-02  2.1234018E-02  3.4313272E-02
   16.0000  3.9918423E-02  2.0750647E-02  3.4996726E-02
   16.2500  4.0472753E-02  2.0363065E-02  3.5723510E-02
   16.5000  4.0962221E-02  2.0061752E-02  3.6473018E-02
   16.7500  4.1372868E-02  1.9838477E-02  3.7220268E-02
   17.0000  4.1693110E-02  1.9686108E-02  3.7937608E-02
   17.2500  4.1914986E-02  1.9598435E-02  3.8597024E-02
   17.5000  4.2035187E-02  1.9570024E-02  3.9172794E-02
   17.7500  4.2055615E-02  1.9596098E-02  3.9644041E-02
   18.0000  4.1983346E-02  1.9672435E-02  3.9996726E-02
   18.2500  4.1829955E-02  1.9795297E-02  4.0224687E-02
   18.5000  4.1610315E-02  1.9961377E-02  4.0329571E-02
   18.7500  4.1341088E-02  2.0167778E-02  4.0319748E-02
   19.0000  4.1039163E-02  2.0412007E-02  4.0208536E-02
   19.2500  4.0720239E-02  2.0691997E-02  4.0012100E-02
   19.5000  4.0397724E-02  2.1006125E-02  3.9747431E-02
   19.7500  4.0082036E-02  2.1353174E-02  3.9430724E-02
   20.0000  3.9780425E-02  2.1732135E-02  3.9076491E-02
   21.0000  3.8773487E-02  2.3538004E-02  3.7516396E-02
   22.0000  3.8027168E-02  2.5725334E-02  3.6052696E-02
   23.0000  3.7278705E-02  2.8151808E-02  3.4782851E-02
   24.0000  3.6291756E-02  3.0589589E-02  3.3634865E-02
   25.0000  3.5017776E-02  3.2751458E-02  3.2530199E-02
   26.0000  3.3595311E-02  3.4382994E-02  3.1435115E-02
   27.0000  3.2198401E-02  3.5352462E-02  3.0362152E-02
   28.0000  3.0896092E-02  3.5675182E-02  2.9355545E-02
   29.0000  2.9685564E-02  3.5483832E-02  2.8477057E-02
   30.0000  2.8584818E-02  3.4968317E-02  2.7781407E-02
   31.0000  2.7625886E-02  3.4286855E-02  2.7277346E-02
   32.0000  2.6826042E-02  3.3538153E-02  2.6935054E-02
   33.0000  2.6175810E-02  3.2769868E-02  2.6707426E-02
   34.0000  2.5645827E-02  3.1993597E-02  2.6543989E-02
   35.0000  2.5201823E-02  3.1202165E-02  2.6399884E-02
   36.0000  2.4814937E-02  3.0384678E-02  2.6240969E-02
   37.0000  2.4465464E-02  2.9538880E-02  2.6047098E-02
   38.0000  2.4143938E-02  2.8683324E-02  2.5815379E-02
   39.0000  2.3853829E-02  2.7871655E-02  2.5564856E-02
   40.0000  2.3613980E-02  2.7197016E-02  2.5338469E-02
