    Energy   (100,001)      (010,001)      (001,110)   
  -25.0000  1.7085646E-04  1.7756453E-04  1.7357869E-04
  -24.0000  1.7739904E-04  1.8450521E-04  1.8037155E-04
  -23.0000  1.8440903E-04  1.9195766E-04  1.8766074E-04
  -22.0000  1.9193647E-04  1.9997885E-04  1.9550059E-04
  -21.0000  2.0003864E-04  2.0863436E-04  2.0395348E-04
  -20.0000  2.0878141E-04  2.1800010E-04  2.1309136E-04
  -19.0000  2.1824092E-04  2.2816431E-04  2.2299767E-04
  -18.0000  2.2850561E-04  2.3923027E-04  2.3376965E-04
  -17.0000  2.3967879E-04  2.5131947E-04  2.4552129E-04
  -16.0000  2.5188188E-04  2.6457585E-04  2.5838708E-04
  -15.0000  2.6525850E-04  2.7917109E-04  2.7252673E-04
  -14.0000  2.7997973E-04  2.9531162E-04  2.8813136E-04
  -13.0000  2.9625095E-04  3.1324768E-04  3.0543144E-04
  -12.0000  3.1432080E-04  3.3328543E-04  3.2470738E-04
  -11.0000  3.3449310E-04  3.5580329E-04  3.4630370E-04
  -10.0000  3.5714294E-04  3.8127425E-04  3.7064819E-04
  -9.00000  3.8273872E-04  4.1029686E-04  3.9827846E-04
  -8.00000  4.1187295E-04  4.4363925E-04  4.2987919E-04
  -7.00000  4.4530604E-04  4.8230276E-04  4.6633569E-04
  -6.00000  4.8403021E-04  5.2761627E-04  5.0881259E-04
  -5.00000  5.2936507E-04  5.8137997E-04  5.5887271E-04
  -4.00000  5.8310516E-04  6.4609149E-04  6.1866243E-04
  -3.00000  6.4775618E-04  7.2531548E-04  6.9121175E-04
  -2.00000  7.2693034E-04  8.2431563E-04  7.8094238E-04
  -1.00000  8.2604515E-04  9.5119853E-04  8.9457737E-04
   0.00000  9.5364748E-04  1.1191384E-03  1.0428891E-03
   1.00000  1.1241657E-03  1.3511419E-03  1.2443882E-03
   2.00000  1.3644228E-03  1.6917388E-03  1.5342079E-03
   3.00000  1.7324073E-03  2.2422990E-03  1.9902449E-03
   4.00000  2.3921272E-03  3.3110418E-03  2.8402408E-03
   5.00000  3.9873102E-03  6.1813480E-03  4.9998264E-03
   5.20000  4.5061362E-03  7.1121820E-03  5.7000097E-03
   5.40000  5.0801119E-03  8.0997462E-03  6.4589227E-03
   5.60000  5.7128008E-03  9.1346023E-03  7.2770065E-03
   5.80000  6.4196062E-03  1.0236655E-02  8.1752009E-03
   6.00000  7.2200279E-03  1.1435708E-02  9.1818457E-03
   6.20000  8.1344452E-03  1.2762026E-02  1.0325365E-02
   6.40000  9.1827201E-03  1.4243176E-02  1.1630605E-02
   6.60000  1.0380213E-02  1.5900959E-02  1.3116003E-02
   6.80000  1.1728071E-02  1.7745753E-02  1.4791418E-02
   7.00000  1.3197963E-02  1.9768732E-02  1.6657331E-02
   7.20000  1.4719968E-02  2.1937263E-02  1.8704955E-02
   7.40000  1.6192675E-02  2.4203908E-02  2.0914669E-02
   7.60000  1.7527662E-02  2.6534278E-02  2.3250613E-02
   7.80000  1.8703206E-02  2.8937254E-02  2.5654369E-02
   8.00000  1.9777741E-02  3.1468395E-02  2.8044766E-02
   8.20000  2.0851867E-02  3.4200954E-02  3.0327275E-02
   8.40000  2.2018550E-02  3.7188303E-02  3.2409812E-02
   8.60000  2.3336376E-02  4.0438386E-02  3.4219317E-02
   8.80000  2.4827801E-02  4.3902614E-02  3.5714295E-02
   9.00000  2.6488648E-02  4.7474465E-02  3.6890309E-02
   9.20000  2.8297204E-02  5.0995187E-02  3.7777212E-02
   9.40000  3.0220240E-02  5.4266629E-02  3.8428562E-02
   9.60000  3.2217831E-02  5.7071350E-02  3.8905676E-02
   9.80000  3.4244721E-02  5.9198388E-02  3.9262061E-02
   10.0000  3.6246428E-02  6.0472410E-02  3.9536283E-02
   10.2500  3.8606712E-02  6.0706443E-02  3.9802283E-02
   10.5000  4.0656161E-02  5.9428809E-02  4.0014981E-02
   10.7500  4.2232479E-02  5.6857977E-02  4.0202230E-02
   11.0000  4.3222725E-02  5.3379051E-02  4.0389589E-02
   11.2500  4.3596399E-02  4.9426123E-02  4.0594802E-02
   11.5000  4.3406276E-02  4.5376456E-02  4.0817979E-02
   11.7500  4.2766503E-02  4.1498099E-02  4.1038495E-02
   12.0000  4.1821656E-02  3.7947513E-02  4.1221094E-02
   12.2500  4.0717310E-02  3.4793085E-02  4.1326636E-02
   12.5000  3.9578603E-02  3.2044892E-02  4.1322546E-02
   12.7500  3.8499897E-02  2.9680589E-02  4.1190242E-02
   13.0000  3.7544469E-02  2.7663572E-02  4.0927064E-02
   13.2500  3.6749256E-02  2.5953317E-02  4.0543379E-02
   13.5000  3.6130385E-02  2.4510441E-02  4.0058196E-02
   13.7500  3.5687757E-02  2.3299041E-02  3.9496587E-02
   14.0000  3.5408665E-02  2.2287598E-02  3.8887438E-02
   14.2500  3.5270935E-02  2.1449074E-02  3.8258664E-02
   14.5000  3.5245729E-02  2.0760583E-02  3.7632310E-02
   14.7500  3.5300132E-02  2.0202880E-02  3.7022540E-02
   15.0000  3.5399743E-02  1.9759801E-02  3.6436388E-02
   15.2500  3.5511355E-02  1.9417725E-02  3.5875890E-02
   15.5000  3.5605604E-02  1.9165104E-02  3.5340489E-02
   15.7500  3.5659239E-02  1.8992076E-02  3.4829057E-02
   16.0000  3.5656705E-02  1.8890179E-02  3.4341205E-02
   16.2500  3.5590799E-02  1.8852150E-02  3.3877804E-02
   16.5000  3.5462383E-02  1.8871773E-02  3.3440855E-02
   16.7500  3.5279271E-02  1.8943762E-02  3.3032942E-02
   17.0000  3.5054511E-02  1.9063652E-02  3.2656555E-02
   17.2500  3.4804341E-02  1.9227684E-02  3.2313502E-02
   17.5000  3.4546110E-02  1.9432703E-02  3.2004522E-02
   17.7500  3.4296423E-02  1.9676054E-02  3.1729148E-02
   18.0000  3.4069686E-02  1.9955485E-02  3.1485768E-02
   18.2500  3.3877162E-02  2.0269074E-02  3.1271824E-02
   18.5000  3.3726521E-02  2.0615165E-02  3.1084084E-02
   18.7500  3.3621826E-02  2.0992327E-02  3.0918925E-02
   19.0000  3.3563836E-02  2.1399348E-02  3.0772586E-02
   19.2500  3.3550507E-02  2.1835260E-02  3.0641380E-02
   19.5000  3.3577582E-02  2.2299375E-02  3.0521846E-02
   19.7500  3.3639117E-02  2.2791264E-02  3.0410852E-02
   20.0000  3.3727807E-02  2.3310527E-02  3.0305648E-02
   21.0000  3.4167820E-02  2.5634685E-02  2.9900766E-02
   22.0000  3.4276223E-02  2.8251449E-02  2.9454035E-02
   23.0000  3.3578146E-02  3.0912757E-02  2.8919194E-02
   24.0000  3.1989596E-02  3.3181874E-02  2.8295807E-02
   25.0000  2.9880211E-02  3.4650671E-02  2.7617410E-02
   26.0000  2.7813034E-02  3.5150028E-02  2.6931702E-02
   27.0000  2.6181323E-02  3.4807073E-02  2.6291417E-02
   28.0000  2.5084654E-02  3.3905814E-02  2.5753592E-02
   29.0000  2.4428771E-02  3.2723395E-02  2.5354513E-02
   30.0000  2.4059537E-02  3.1461112E-02  2.5079630E-02
   31.0000  2.3839528E-02  3.0238863E-02  2.4867115E-02
   32.0000  2.3671035E-02  2.9110614E-02  2.4638872E-02
   33.0000  2.3493067E-02  2.8084741E-02  2.4330718E-02
   34.0000  2.3272131E-02  2.7144326E-02  2.3909318E-02
   35.0000  2.2995214E-02  2.6264967E-02  2.3378745E-02
   36.0000  2.2665964E-02  2.5427525E-02  2.2780954E-02
   37.0000  2.2302082E-02  2.4624688E-02  2.2187443E-02
   38.0000  2.1932425E-02  2.3865184E-02  2.1676617E-02
   39.0000  2.1593179E-02  2.3180623E-02  2.1299871E-02
   40.0000  2.1320619E-02  2.2626673E-02  2.1054768E-02
