    Energy   (100,001)      (010,001)      (001,110)   
  -25.0000  1.6316330E-04  1.8859969E-04  1.7735224E-04
  -24.0000  1.6899261E-04  1.9553414E-04  1.8365493E-04
  -23.0000  1.7520612E-04  2.0295844E-04  1.9038066E-04
  -22.0000  1.8184160E-04  2.1092538E-04  1.9757237E-04
  -21.0000  1.8894185E-04  2.1949555E-04  2.0527890E-04
  -20.0000  1.9655558E-04  2.2873878E-04  2.1355609E-04
  -19.0000  2.0473839E-04  2.3873599E-04  2.2246809E-04
  -18.0000  2.1355410E-04  2.4958147E-04  2.3208890E-04
  -17.0000  2.2307628E-04  2.6138572E-04  2.4250438E-04
  -16.0000  2.3339017E-04  2.7427905E-04  2.5381470E-04
  -15.0000  2.4459513E-04  2.8841622E-04  2.6613747E-04
  -14.0000  2.5680765E-04  3.0398239E-04  2.7961166E-04
  -13.0000  2.7016521E-04  3.2120089E-04  2.9440274E-04
  -12.0000  2.8483125E-04  3.4034351E-04  3.1070934E-04
  -11.0000  3.0100162E-04  3.6174427E-04  3.2877198E-04
  -10.0000  3.1891315E-04  3.8581819E-04  3.4888484E-04
  -9.00000  3.3885502E-04  4.1308714E-04  3.7141182E-04
  -8.00000  3.6118429E-04  4.4421641E-04  3.9680867E-04
  -7.00000  3.8634754E-04  4.8006715E-04  4.2565450E-04
  -6.00000  4.1491150E-04  5.2177380E-04  4.5869747E-04
  -5.00000  4.4760775E-04  5.7086136E-04  4.9692302E-04
  -4.00000  4.8540009E-04  6.2942907E-04  5.4165941E-04
  -3.00000  5.2958984E-04  7.0044942E-04  5.9474766E-04
  -2.00000  5.8198879E-04  7.8827882E-04  6.5882946E-04
  -1.00000  6.4522092E-04  8.9958317E-04  7.3786692E-04
   0.00000  7.2329307E-04  1.0451498E-03  8.3816205E-04
   1.00000  8.2280008E-04  1.2438220E-03  9.7059077E-04
   2.00000  9.5590224E-04  1.5324003E-03  1.1563247E-03
   3.00000  1.1496451E-03  1.9967867E-03  1.4453027E-03
   4.00000  1.4882044E-03  2.9119100E-03  2.0016944E-03
   5.00000  2.3381880E-03  5.4814555E-03  3.5616517E-03
   5.20000  2.6032800E-03  6.3088287E-03  4.0622364E-03
   5.40000  2.8733959E-03  7.1600289E-03  4.5766771E-03
   5.60000  3.1393951E-03  8.0135029E-03  5.0945320E-03
   5.80000  3.4001679E-03  8.8740951E-03  5.6184192E-03
   6.00000  3.6574253E-03  9.7516543E-03  6.1466338E-03
   6.20000  3.9132426E-03  1.0651406E-02  6.6662053E-03
   6.40000  4.1695287E-03  1.1573885E-02  7.1555854E-03
   6.60000  4.4284406E-03  1.2519033E-02  7.5931908E-03
   6.80000  4.6930799E-03  1.3491178E-02  7.9676583E-03
   7.00000  4.9678070E-03  1.4502356E-02  8.2845554E-03
   7.20000  5.2579396E-03  1.5572378E-02  8.5659492E-03
   7.40000  5.5691129E-03  1.6726247E-02  8.8439181E-03
   7.60000  5.9067364E-03  1.7990963E-02  9.1524673E-03
   7.80000  6.2757956E-03  1.9393371E-02  9.5216606E-03
   8.00000  6.6809664E-03  2.0959225E-02  9.9750764E-03
   8.20000  7.1268626E-03  2.2712685E-02  1.0529784E-02
   8.40000  7.6182389E-03  2.4675237E-02  1.1197568E-02
   8.60000  8.1600414E-03  2.6863278E-02  1.1986412E-02
   8.80000  8.7573249E-03  2.9283848E-02  1.2901709E-02
   9.00000  9.4151312E-03  3.1928506E-02  1.3947049E-02
   9.20000  1.0138333E-02  3.4766483E-02  1.5124458E-02
   9.40000  1.0931405E-02  3.7739752E-02  1.6434023E-02
   9.60000  1.1798102E-02  4.0763305E-02  1.7873003E-02
   9.80000  1.2741024E-02  4.3732662E-02  1.9434525E-02
   10.0000  1.3761013E-02  4.6537334E-02  2.1105870E-02
   10.2500  1.5141505E-02  4.9658218E-02  2.3317047E-02
   10.5000  1.6629243E-02  5.2210860E-02  2.5605180E-02
   10.7500  1.8205690E-02  5.4098253E-02  2.7886744E-02
   11.0000  1.9844681E-02  5.5246491E-02  3.0063420E-02
   11.2500  2.1514604E-02  5.5576403E-02  3.2032263E-02
   11.5000  2.3181261E-02  5.5037279E-02  3.3700026E-02
   11.7500  2.4810869E-02  5.3658711E-02  3.5001118E-02
   12.0000  2.6373493E-02  5.1565112E-02  3.5910414E-02
   12.2500  2.7846282E-02  4.8948762E-02  3.6445115E-02
   12.5000  2.9215470E-02  4.6024480E-02  3.6656303E-02
   12.7500  3.0475841E-02  4.2989820E-02  3.6614242E-02
   13.0000  3.1627911E-02  4.0001799E-02  3.6393627E-02
   13.2500  3.2675641E-02  3.7170084E-02  3.6064059E-02
   13.5000  3.3625896E-02  3.4561462E-02  3.5686041E-02
   13.7500  3.4488094E-02  3.2208980E-02  3.5309543E-02
   14.0000  3.5273213E-02  3.0121446E-02  3.4973775E-02
   14.2500  3.5992556E-02  2.8291678E-02  3.4707955E-02
   14.5000  3.6656673E-02  2.6703056E-02  3.4532615E-02
   14.7500  3.7274643E-02  2.5334308E-02  3.4461006E-02
   15.0000  3.7853695E-02  2.4162745E-02  3.4500304E-02
   15.2500  3.8399113E-02  2.3166256E-02  3.4652525E-02
   15.5000  3.8914279E-02  2.2324390E-02  3.4915097E-02
   15.7500  3.9400758E-02  2.1618834E-02  3.5281161E-02
   16.0000  3.9858371E-02  2.1033519E-02  3.5739699E-02
   16.2500  4.0285259E-02  2.0554522E-02  3.6275621E-02
   16.5000  4.0677944E-02  2.0169876E-02  3.6869953E-02
   16.7500  4.1031488E-02  1.9869340E-02  3.7500290E-02
   17.0000  4.1339782E-02  1.9644188E-02  3.8141624E-02
   17.2500  4.1596062E-02  1.9487018E-02  3.8767581E-02
   17.5000  4.1793634E-02  1.9391578E-02  3.9352033E-02
   17.7500  4.1926763E-02  1.9352632E-02  3.9870919E-02
   18.0000  4.1991623E-02  1.9365832E-02  4.0304023E-02
   18.2500  4.1987146E-02  1.9427609E-02  4.0636439E-02
   18.5000  4.1915610E-02  1.9535072E-02  4.0859473E-02
   18.7500  4.1782850E-02  1.9685917E-02  4.0970841E-02
   19.0000  4.1597996E-02  1.9878348E-02  4.0974143E-02
   19.2500  4.1372783E-02  2.0111013E-02  4.0877741E-02
   19.5000  4.1120499E-02  2.0382937E-02  4.0693260E-02
   19.7500  4.0854844E-02  2.0693417E-02  4.0434067E-02
   20.0000  4.0589017E-02  2.1041768E-02  4.0114149E-02
   21.0000  3.9752170E-02  2.2785134E-02  3.8501978E-02
   22.0000  3.9570894E-02  2.4989297E-02  3.6833672E-02
   23.0000  3.9916703E-02  2.7472640E-02  3.5363926E-02
   24.0000  4.0258761E-02  2.9980584E-02  3.4090679E-02
   25.0000  3.9987056E-02  3.2229510E-02  3.2940121E-02
   26.0000  3.8740306E-02  3.3978876E-02  3.1846034E-02
   27.0000  3.6646468E-02  3.5087796E-02  3.0782909E-02
   28.0000  3.4217092E-02  3.5542676E-02  2.9775903E-02
   29.0000  3.1907357E-02  3.5451613E-02  2.8868407E-02
   30.0000  2.9944174E-02  3.4973246E-02  2.8105107E-02
   31.0000  2.8374359E-02  3.4257498E-02  2.7513770E-02
   32.0000  2.7148929E-02  3.3419467E-02  2.7089483E-02
   33.0000  2.6186931E-02  3.2533315E-02  2.6797202E-02
   34.0000  2.5407458E-02  3.1638593E-02  2.6586191E-02
   35.0000  2.4741324E-02  3.0752677E-02  2.6404554E-02
   36.0000  2.4134516E-02  2.9884242E-02  2.6208796E-02
   37.0000  2.3550558E-02  2.9044544E-02  2.5969796E-02
   38.0000  2.2975888E-02  2.8255544E-02  2.5678950E-02
   39.0000  2.2429515E-02  2.7555883E-02  2.5357725E-02
   40.0000  2.1966386E-02  2.6999986E-02  2.5063269E-02
