    Energy   (100,001)      (010,001)      (001,110)   
  -25.0000  1.6850833E-04  1.7942674E-04  1.6977299E-04
  -24.0000  1.7487752E-04  1.8642348E-04  1.7631953E-04
  -23.0000  1.8169386E-04  1.9393564E-04  1.8333413E-04
  -22.0000  1.8900435E-04  2.0202059E-04  1.9086678E-04
  -21.0000  1.9686265E-04  2.1074437E-04  1.9897468E-04
  -20.0000  2.0533033E-04  2.2018337E-04  2.0772358E-04
  -19.0000  2.1447839E-04  2.3042648E-04  2.1718941E-04
  -18.0000  2.2438905E-04  2.4157766E-04  2.2746032E-04
  -17.0000  2.3515815E-04  2.5375924E-04  2.3863921E-04
  -16.0000  2.4689794E-04  2.6711613E-04  2.5084690E-04
  -15.0000  2.5974083E-04  2.8182122E-04  2.6422615E-04
  -14.0000  2.7384403E-04  2.9808231E-04  2.7894686E-04
  -13.0000  2.8939566E-04  3.1615138E-04  2.9521271E-04
  -12.0000  3.0662266E-04  3.3633668E-04  3.1326996E-04
  -11.0000  3.2580133E-04  3.5901923E-04  3.3341904E-04
  -10.0000  3.4727151E-04  3.8467526E-04  3.5603018E-04
  -9.00000  3.7145599E-04  4.1390748E-04  3.8156476E-04
  -8.00000  3.9888743E-04  4.4748935E-04  4.1060505E-04
  -7.00000  4.3024681E-04  4.8642921E-04  4.4389625E-04
  -6.00000  4.6641932E-04  5.3206534E-04  4.8240770E-04
  -5.00000  5.0857802E-04  5.8621083E-04  5.2742376E-04
  -4.00000  5.5831338E-04  6.5138163E-04  5.8068350E-04
  -3.00000  6.1784157E-04  7.3116926E-04  6.4460271E-04
  -2.00000  6.9035618E-04  8.3087880E-04  7.2264274E-04
  -1.00000  7.8065879E-04  9.5868430E-04  8.1995692E-04
   0.00000  8.9638174E-04  1.1278790E-03  9.4460420E-04
   1.00000  1.0506239E-03  1.3617032E-03  1.1100469E-03
   2.00000  1.2685549E-03  1.7052224E-03  1.3410056E-03
   3.00000  1.6082179E-03  2.2613665E-03  1.6902143E-03
   4.00000  2.2548905E-03  3.3450271E-03  2.3051785E-03
   5.00000  4.0121780E-03  6.2740243E-03  3.7620903E-03
   5.20000  4.5565092E-03  7.2212736E-03  4.2306830E-03
   5.40000  5.0988901E-03  8.2206220E-03  4.7448779E-03
   5.60000  5.6262610E-03  9.2601892E-03  5.3048999E-03
   5.80000  6.1496674E-03  1.0357618E-02  5.9209417E-03
   6.00000  6.6878759E-03  1.1539287E-02  6.6058177E-03
   6.20000  7.2594118E-03  1.2830917E-02  7.3716573E-03
   6.40000  7.8807002E-03  1.4256141E-02  8.2294436E-03
   6.60000  8.5659641E-03  1.5837311E-02  9.1891497E-03
   6.80000  9.3270124E-03  1.7596406E-02  1.0259146E-02
   7.00000  1.0172065E-02  1.9555252E-02  1.1444140E-02
   7.20000  1.1102956E-02  2.1733958E-02  1.2741626E-02
   7.40000  1.2110681E-02  2.4145910E-02  1.4137935E-02
   7.60000  1.3171277E-02  2.6788435E-02  1.5606155E-02
   7.80000  1.4247044E-02  2.9632029E-02  1.7108921E-02
   8.00000  1.5298850E-02  3.2617225E-02  1.8607945E-02
   8.20000  1.6308198E-02  3.5669231E-02  2.0078386E-02
   8.40000  1.7294927E-02  3.8726683E-02  2.1521461E-02
   8.60000  1.8314678E-02  4.1762555E-02  2.2967719E-02
   8.80000  1.9437252E-02  4.4778182E-02  2.4468531E-02
   9.00000  2.0722020E-02  4.7773955E-02  2.6079560E-02
   9.20000  2.2202567E-02  5.0715180E-02  2.7842332E-02
   9.40000  2.3881043E-02  5.3508830E-02  2.9768938E-02
   9.60000  2.5727604E-02  5.5999111E-02  3.1833458E-02
   9.80000  2.7682426E-02  5.7985249E-02  3.3972673E-02
   10.0000  2.9660958E-02  5.9260489E-02  3.6096772E-02
   10.2500  3.2016477E-02  5.9617084E-02  3.8581674E-02
   10.5000  3.4070009E-02  5.8512233E-02  4.0728378E-02
   10.7500  3.5695635E-02  5.6118085E-02  4.2444837E-02
   11.0000  3.6854673E-02  5.2815400E-02  4.3710840E-02
   11.2500  3.7584811E-02  4.9049612E-02  4.4549251E-02
   11.5000  3.7966573E-02  4.5204197E-02  4.4996041E-02
   11.7500  3.8093378E-02  4.1542391E-02  4.5087306E-02
   12.0000  3.8052549E-02  3.8208980E-02  4.4859787E-02
   12.2500  3.7916068E-02  3.5260311E-02  4.4357713E-02
   12.5000  3.7738766E-02  3.2697985E-02  4.3638011E-02
   12.7500  3.7559607E-02  3.0495083E-02  4.2766254E-02
   13.0000  3.7404707E-02  2.8612887E-02  4.1807132E-02
   13.2500  3.7291336E-02  2.7010312E-02  4.0818488E-02
   13.5000  3.7230915E-02  2.5648875E-02  3.9849506E-02
   13.7500  3.7230234E-02  2.4494946E-02  3.8939796E-02
   14.0000  3.7291354E-02  2.3520087E-02  3.8119024E-02
   14.2500  3.7411092E-02  2.2700446E-02  3.7407295E-02
   14.5000  3.7580758E-02  2.2016017E-02  3.6815908E-02
   14.7500  3.7786356E-02  2.1450033E-02  3.6348208E-02
   15.0000  3.8009280E-02  2.0988445E-02  3.6000482E-02
   15.2500  3.8227534E-02  2.0619471E-02  3.5762897E-02
   15.5000  3.8417447E-02  2.0333190E-02  3.5620544E-02
   15.7500  3.8555803E-02  2.0121193E-02  3.5554633E-02
   16.0000  3.8622206E-02  1.9976282E-02  3.5543900E-02
   16.2500  3.8601393E-02  1.9892236E-02  3.5566186E-02
   16.5000  3.8485152E-02  1.9863620E-02  3.5600093E-02
   16.7500  3.8273471E-02  1.9885661E-02  3.5626533E-02
   17.0000  3.7974693E-02  1.9954159E-02  3.5629987E-02
   17.2500  3.7604581E-02  2.0065418E-02  3.5599292E-02
   17.5000  3.7184473E-02  2.0216200E-02  3.5527883E-02
   17.7500  3.6738853E-02  2.0403676E-02  3.5413523E-02
   18.0000  3.6292772E-02  2.0625375E-02  3.5257634E-02
   18.2500  3.5869528E-02  2.0879138E-02  3.5064409E-02
   18.5000  3.5488879E-02  2.1163067E-02  3.4839852E-02
   18.7500  3.5165942E-02  2.1475486E-02  3.4590896E-02
   19.0000  3.4910745E-02  2.1814921E-02  3.4324648E-02
   19.2500  3.4728339E-02  2.2180103E-02  3.4047799E-02
   19.5000  3.4619289E-02  2.2569991E-02  3.3766193E-02
   19.7500  3.4580328E-02  2.2983737E-02  3.3484576E-02
   20.0000  3.4604948E-02  2.3420475E-02  3.3206584E-02
   21.0000  3.5126155E-02  2.5362526E-02  3.2178491E-02
   22.0000  3.5737299E-02  2.7505499E-02  3.1320997E-02
   23.0000  3.5764669E-02  2.9670508E-02  3.0571600E-02
   24.0000  3.4881766E-02  3.1616121E-02  2.9827660E-02
   25.0000  3.3233948E-02  3.3074525E-02  2.9034953E-02
   26.0000  3.1263674E-02  3.3859834E-02  2.8222592E-02
   27.0000  2.9366461E-02  3.3979427E-02  2.7459468E-02
   28.0000  2.7764768E-02  3.3582056E-02  2.6812168E-02
   29.0000  2.6530727E-02  3.2856448E-02  2.6314284E-02
   30.0000  2.5633088E-02  3.1963121E-02  2.5955217E-02
   31.0000  2.4986609E-02  3.1005615E-02  2.5689350E-02
   32.0000  2.4494065E-02  3.0034708E-02  2.5454371E-02
   33.0000  2.4072010E-02  2.9068119E-02  2.5188345E-02
   34.0000  2.3662154E-02  2.8110013E-02  2.4841031E-02
   35.0000  2.3234395E-02  2.7163340E-02  2.4380546E-02
   36.0000  2.2784331E-02  2.6234816E-02  2.3798694E-02
   37.0000  2.2325922E-02  2.5336294E-02  2.3116794E-02
   38.0000  2.1883100E-02  2.4488524E-02  2.2390361E-02
   39.0000  2.1485702E-02  2.3730324E-02  2.1705198E-02
   40.0000  2.1166794E-02  2.3121709E-02  2.1152338E-02
