    Energy   (100,001)      (010,001)      (001,110)   
  -25.0000  1.6664043E-04  1.7837821E-04  1.8393729E-04
  -24.0000  1.7253454E-04  1.8540406E-04  1.9040451E-04
  -23.0000  1.7881751E-04  1.9294992E-04  1.9730695E-04
  -22.0000  1.8552786E-04  2.0107371E-04  2.0468927E-04
  -21.0000  1.9270930E-04  2.0984214E-04  2.1260241E-04
  -20.0000  2.0041162E-04  2.1933237E-04  2.2110478E-04
  -19.0000  2.0869182E-04  2.2963414E-04  2.3026359E-04
  -18.0000  2.1761537E-04  2.4085238E-04  2.4015666E-04
  -17.0000  2.2725795E-04  2.5311056E-04  2.5087453E-04
  -16.0000  2.3770745E-04  2.6655486E-04  2.6252324E-04
  -15.0000  2.4906654E-04  2.8135963E-04  2.7522775E-04
  -14.0000  2.6145596E-04  2.9773433E-04  2.8913641E-04
  -13.0000  2.7501867E-04  3.1593282E-04  3.0442671E-04
  -12.0000  2.8992521E-04  3.3626545E-04  3.2131287E-04
  -11.0000  3.0638082E-04  3.5911558E-04  3.4005592E-04
  -10.0000  3.2463479E-04  3.8496197E-04  3.6097736E-04
  -9.00000  3.4499313E-04  4.1441000E-04  3.8447798E-04
  -8.00000  3.6783604E-04  4.4823574E-04  4.1106424E-04
  -7.00000  3.9364233E-04  4.8744979E-04  4.4138622E-04
  -6.00000  4.2302464E-04  5.3339174E-04  4.7629346E-04
  -5.00000  4.5678147E-04  5.8787393E-04  5.1691975E-04
  -4.00000  4.9597680E-04  6.5340755E-04  5.6481646E-04
  -3.00000  5.4206677E-04  7.3357191E-04  6.2217123E-04
  -2.00000  5.9711202E-04  8.3364647E-04  6.9218556E-04
  -1.00000  6.6415623E-04  9.6175671E-04  7.7976992E-04
   0.00000  7.4795952E-04  1.1311127E-03  8.9293302E-04
   1.00000  8.5658598E-04  1.3648431E-03  1.0458785E-03
   2.00000  1.0054239E-03  1.7080381E-03  1.2670429E-03
   3.00000  1.2300588E-03  2.2651020E-03  1.6252566E-03
   4.00000  1.6458001E-03  3.3651694E-03  2.3511308E-03
   5.00000  2.7567384E-03  6.4152598E-03  4.4816200E-03
   5.20000  3.0962885E-03  7.3776456E-03  5.1653999E-03
   5.40000  3.4347015E-03  8.3561411E-03  5.8605858E-03
   5.60000  3.7686446E-03  9.3319630E-03  6.5522458E-03
   5.80000  4.1085217E-03  1.0324134E-02  7.2486836E-03
   6.00000  4.4650095E-03  1.1363174E-02  7.9606760E-03
   6.20000  4.8425032E-03  1.2479180E-02  8.6929543E-03
   6.40000  5.2375102E-03  1.3699440E-02  9.4430743E-03
   6.60000  5.6398832E-03  1.5048166E-02  1.0202082E-02
   6.80000  6.0366803E-03  1.6546080E-02  1.0956535E-02
   7.00000  6.4178513E-03  1.8210435E-02  1.1693651E-02
   7.20000  6.7811955E-03  2.0056262E-02  1.2408968E-02
   7.40000  7.1337837E-03  2.2098227E-02  1.3111212E-02
   7.60000  7.4893214E-03  2.4351590E-02  1.3818905E-02
   7.80000  7.8636182E-03  2.6831613E-02  1.4549977E-02
   8.00000  8.2708667E-03  2.9552020E-02  1.5311632E-02
   8.20000  8.7219373E-03  3.2522813E-02  1.6096518E-02
   8.40000  9.2242870E-03  3.5746526E-02  1.6886012E-02
   8.60000  9.7825878E-03  3.9211512E-02  1.7657737E-02
   8.80000  1.0399510E-02  4.2881988E-02  1.8393753E-02
   9.00000  1.1076487E-02  4.6687021E-02  1.9086574E-02
   9.20000  1.1814366E-02  5.0513054E-02  1.9741176E-02
   9.40000  1.2613605E-02  5.4204247E-02  2.0372623E-02
   9.60000  1.3473618E-02  5.7571595E-02  2.1000610E-02
   9.80000  1.4391518E-02  6.0409712E-02  2.1643074E-02
   10.0000  1.5361135E-02  6.2519603E-02  2.2310750E-02
   10.2500  1.6630744E-02  6.3883977E-02  2.3180647E-02
   10.5000  1.7940641E-02  6.3667814E-02  2.4070661E-02
   10.7500  1.9262741E-02  6.1908276E-02  2.4949878E-02
   11.0000  2.0569653E-02  5.8881163E-02  2.5791398E-02
   11.2500  2.1837560E-02  5.5018789E-02  2.6583353E-02
   11.5000  2.3048442E-02  5.0776861E-02  2.7330697E-02
   11.7500  2.4191696E-02  4.6527384E-02  2.8048918E-02
   12.0000  2.5265363E-02  4.2517333E-02  2.8754637E-02
   12.2500  2.6275745E-02  3.8880199E-02  2.9458077E-02
   12.5000  2.7234678E-02  3.5666865E-02  3.0160015E-02
   12.7500  2.8156284E-02  3.2876025E-02  3.0853136E-02
   13.0000  2.9054359E-02  3.0478125E-02  3.1525940E-02
   13.2500  2.9941282E-02  2.8431604E-02  3.2167168E-02
   13.5000  3.0828733E-02  2.6692517E-02  3.2769100E-02
   13.7500  3.1728099E-02  2.5219411E-02  3.3329020E-02
   14.0000  3.2647952E-02  2.3975332E-02  3.3849570E-02
   14.2500  3.3590593E-02  2.2928530E-02  3.4338969E-02
   14.5000  3.4551591E-02  2.2052519E-02  3.4810189E-02
   14.7500  3.5521739E-02  2.1325518E-02  3.5278135E-02
   15.0000  3.6488993E-02  2.0729551E-02  3.5755993E-02
   15.2500  3.7439640E-02  2.0249629E-02  3.6252330E-02
   15.5000  3.8358987E-02  1.9873137E-02  3.6769402E-02
   15.7500  3.9231928E-02  1.9589397E-02  3.7302536E-02
   16.0000  4.0043532E-02  1.9389339E-02  3.7840436E-02
   16.2500  4.0779707E-02  1.9265258E-02  3.8366307E-02
   16.5000  4.1427897E-02  1.9210615E-02  3.8859631E-02
   16.7500  4.1977731E-02  1.9219876E-02  3.9298422E-02
   17.0000  4.2421510E-02  1.9288370E-02  3.9661641E-02
   17.2500  4.2754499E-02  1.9412152E-02  3.9931454E-02
   17.5000  4.2974986E-02  1.9587871E-02  4.0095010E-02
   17.7500  4.3084213E-02  1.9812649E-02  4.0145523E-02
   18.0000  4.3086223E-02  2.0083968E-02  4.0082576E-02
   18.2500  4.2987706E-02  2.0399567E-02  3.9911698E-02
   18.5000  4.2797835E-02  2.0757359E-02  3.9643378E-02
   18.7500  4.2528049E-02  2.1155373E-02  3.9291721E-02
   19.0000  4.2191680E-02  2.1591726E-02  3.8872957E-02
   19.2500  4.1803387E-02  2.2064633E-02  3.8403954E-02
   19.5000  4.1378370E-02  2.2572422E-02  3.7900897E-02
   19.7500  4.0931552E-02  2.3113468E-02  3.7378299E-02
   20.0000  4.0477076E-02  2.3685867E-02  3.6848635E-02
   21.0000  3.8837524E-02  2.6216328E-02  3.4856783E-02
   22.0000  3.7862878E-02  2.8890846E-02  3.3340630E-02
   23.0000  3.7550598E-02  3.1333938E-02  3.2340279E-02
   24.0000  3.7475196E-02  3.3170720E-02  3.1701031E-02
   25.0000  3.7065989E-02  3.4169454E-02  3.1227635E-02
   26.0000  3.5944512E-02  3.4321563E-02  3.0776371E-02
   27.0000  3.4189612E-02  3.3800983E-02  3.0300215E-02
   28.0000  3.2223523E-02  3.2859349E-02  2.9833394E-02
   29.0000  3.0434937E-02  3.1730566E-02  2.9432741E-02
   30.0000  2.8981518E-02  3.0578963E-02  2.9130112E-02
   31.0000  2.7849026E-02  2.9490737E-02  2.8921294E-02
   32.0000  2.6964009E-02  2.8490950E-02  2.8777899E-02
   33.0000  2.6247706E-02  2.7569863E-02  2.8662751E-02
   34.0000  2.5631886E-02  2.6704631E-02  2.8540768E-02
   35.0000  2.5074232E-02  2.5869987E-02  2.8385244E-02
   36.0000  2.4554297E-02  2.5051746E-02  2.8179747E-02
   37.0000  2.4068620E-02  2.4254245E-02  2.7919645E-02
   38.0000  2.3629571E-02  2.3499795E-02  2.7615025E-02
   39.0000  2.3258960E-02  2.2827892E-02  2.7295745E-02
   40.0000  2.2975170E-02  2.2291356E-02  2.7014605E-02
