    Energy   (100,001)      (010,001)      (001,110)   
  -25.0000  1.6999873E-04  1.7770369E-04  1.7741192E-04
  -24.0000  1.7609613E-04  1.8465569E-04  1.8375062E-04
  -23.0000  1.8260342E-04  1.9211937E-04  1.9051682E-04
  -22.0000  1.8956209E-04  2.0015148E-04  1.9775403E-04
  -21.0000  1.9701939E-04  2.0881736E-04  2.0551181E-04
  -20.0000  2.0502928E-04  2.1819256E-04  2.1384682E-04
  -19.0000  2.1365375E-04  2.2836489E-04  2.2282413E-04
  -18.0000  2.2296428E-04  2.3943704E-04  2.3251886E-04
  -17.0000  2.3304376E-04  2.5152972E-04  2.4301817E-04
  -16.0000  2.4398888E-04  2.6478586E-04  2.5442377E-04
  -15.0000  2.5591310E-04  2.7937582E-04  2.6685506E-04
  -14.0000  2.6895047E-04  2.9550426E-04  2.8045318E-04
  -13.0000  2.8326051E-04  3.1341906E-04  2.9538615E-04
  -12.0000  2.9903460E-04  3.3342326E-04  3.1185565E-04
  -11.0000  3.1650446E-04  3.5589108E-04  3.3010587E-04
  -10.0000  3.3595335E-04  3.8128980E-04  3.5043541E-04
  -9.00000  3.5773153E-04  4.1021023E-04  3.7321346E-04
  -8.00000  3.8227749E-04  4.4340985E-04  3.9890222E-04
  -7.00000  4.1014822E-04  4.8187528E-04  4.2808853E-04
  -6.00000  4.4206298E-04  5.2691489E-04  4.6152988E-04
  -5.00000  4.7896880E-04  5.8030014E-04  5.0022281E-04
  -4.00000  5.2214149E-04  6.4448834E-04  5.4550862E-04
  -3.00000  5.7334828E-04  7.2298805E-04  5.9924301E-04
  -2.00000  6.3512267E-04  8.2098717E-04  6.6408303E-04
  -1.00000  7.1125919E-04  9.4649920E-04  7.4400404E-04
   0.00000  8.0777961E-04  1.1126206E-03  8.4531308E-04
   1.00000  9.3503855E-04  1.3424572E-03  9.7887358E-04
   2.00000  1.1130821E-03  1.6815621E-03  1.1658405E-03
   3.00000  1.3888637E-03  2.2371302E-03  1.4564516E-03
   4.00000  1.9160136E-03  3.3543435E-03  2.0192994E-03
   5.00000  3.3766131E-03  6.5393254E-03  3.6197022E-03
   5.20000  3.8314565E-03  7.5552132E-03  4.1166005E-03
   5.40000  4.2822215E-03  8.5880768E-03  4.6003807E-03
   5.60000  4.7145939E-03  9.6132946E-03  5.0499137E-03
   5.80000  5.1331151E-03  1.0644086E-02  5.4643421E-03
   6.00000  5.5476913E-03  1.1703652E-02  5.8489866E-03
   6.20000  5.9676096E-03  1.2812752E-02  6.2102512E-03
   6.40000  6.4009750E-03  1.3988356E-02  6.5559307E-03
   6.60000  6.8557300E-03  1.5245733E-02  6.8960964E-03
   6.80000  7.3404890E-03  1.6600736E-02  7.2430517E-03
   7.00000  7.8645529E-03  1.8071366E-02  7.6105247E-03
   7.20000  8.4370993E-03  1.9678306E-02  8.0126230E-03
   7.40000  9.0659760E-03  2.1444440E-02  8.4629068E-03
   7.60000  9.7566005E-03  2.3393464E-02  8.9737858E-03
   7.80000  1.0511226E-02  2.5547598E-02  9.5564197E-03
   8.00000  1.1328514E-02  2.7924324E-02  1.0221188E-02
   8.20000  1.2203174E-02  3.0532245E-02  1.0978527E-02
   8.40000  1.3125535E-02  3.3366441E-02  1.1839576E-02
   8.60000  1.4081434E-02  3.6404298E-02  1.2815903E-02
   8.80000  1.5053401E-02  3.9603109E-02  1.3917854E-02
   9.00000  1.6023644E-02  4.2899459E-02  1.5151913E-02
   9.20000  1.6978116E-02  4.6209164E-02  1.6518004E-02
   9.40000  1.7910265E-02  4.9427605E-02  1.8007162E-02
   9.60000  1.8822456E-02  5.2431608E-02  1.9599624E-02
   9.80000  1.9723606E-02  5.5084331E-02  2.1263531E-02
   10.0000  2.0623615E-02  5.7244455E-02  2.2954987E-02
   10.2500  2.1753478E-02  5.9052878E-02  2.5026279E-02
   10.5000  2.2878757E-02  5.9693321E-02  2.6948487E-02
   10.7500  2.3972163E-02  5.9091808E-02  2.8634730E-02
   11.0000  2.5000080E-02  5.7322510E-02  3.0041996E-02
   11.2500  2.5935556E-02  5.4595355E-02  3.1175776E-02
   11.5000  2.6768472E-02  5.1209117E-02  3.2079064E-02
   11.7500  2.7508541E-02  4.7486836E-02  3.2813598E-02
   12.0000  2.8180666E-02  4.3716515E-02  3.3441623E-02
   12.2500  2.8816073E-02  4.0115377E-02  3.4013393E-02
   12.5000  2.9443823E-02  3.6819976E-02  3.4562226E-02
   12.7500  3.0085729E-02  3.3895105E-02  3.5106399E-02
   13.0000  3.0755194E-02  3.1353214E-02  3.5654102E-02
   13.2500  3.1459169E-02  2.9175661E-02  3.6207684E-02
   13.5000  3.2200347E-02  2.7328848E-02  3.6766871E-02
   13.7500  3.2978191E-02  2.5774055E-02  3.7331071E-02
   14.0000  3.3789242E-02  2.4472991E-02  3.7900250E-02
   14.2500  3.4627168E-02  2.3390679E-02  3.8474422E-02
   14.5000  3.5482706E-02  2.2496667E-02  3.9052394E-02
   14.7500  3.6343630E-02  2.1765222E-02  3.9630387E-02
   15.0000  3.7194835E-02  2.1174984E-02  4.0201011E-02
   15.2500  3.8018654E-02  2.0708387E-02  4.0752858E-02
   15.5000  3.8795444E-02  2.0351017E-02  4.1270833E-02
   15.7500  3.9504465E-02  2.0090997E-02  4.1737238E-02
   16.0000  4.0125041E-02  1.9918428E-02  4.2133458E-02
   16.2500  4.0637940E-02  1.9824924E-02  4.2442029E-02
   16.5000  4.1026829E-02  1.9803221E-02  4.2648712E-02
   16.7500  4.1279647E-02  1.9846891E-02  4.2744224E-02
   17.0000  4.1389683E-02  1.9950120E-02  4.2725281E-02
   17.2500  4.1356233E-02  2.0107553E-02  4.2594765E-02
   17.5000  4.1184738E-02  2.0314204E-02  4.2361054E-02
   17.7500  4.0886391E-02  2.0565390E-02  4.2036716E-02
   18.0000  4.0477297E-02  2.0856705E-02  4.1636897E-02
   18.2500  3.9977284E-02  2.1183998E-02  4.1177731E-02
   18.5000  3.9408538E-02  2.1543373E-02  4.0675025E-02
   18.7500  3.8794179E-02  2.1931197E-02  4.0143304E-02
   19.0000  3.8156902E-02  2.2344135E-02  3.9595250E-02
   19.2500  3.7517753E-02  2.2779202E-02  3.9041413E-02
   19.5000  3.6895127E-02  2.3233843E-02  3.8490131E-02
   19.7500  3.6304092E-02  2.3705926E-02  3.7947627E-02
   20.0000  3.5756296E-02  2.4193538E-02  3.7418382E-02
   21.0000  3.4146585E-02  2.6248414E-02  3.5496830E-02
   22.0000  3.3585526E-02  2.8339687E-02  3.3954502E-02
   23.0000  3.3879652E-02  3.0302600E-02  3.2737554E-02
   24.0000  3.4611640E-02  3.1947988E-02  3.1728232E-02
   25.0000  3.5272312E-02  3.3092097E-02  3.0823969E-02
   26.0000  3.5388332E-02  3.3631272E-02  2.9970349E-02
   27.0000  3.4718622E-02  3.3589689E-02  2.9169663E-02
   28.0000  3.3382931E-02  3.3097073E-02  2.8463971E-02
   29.0000  3.1758498E-02  3.2327405E-02  2.7899839E-02
   30.0000  3.0214258E-02  3.1439106E-02  2.7495523E-02
   31.0000  2.8921018E-02  3.0528271E-02  2.7224600E-02
   32.0000  2.7887735E-02  2.9635082E-02  2.7037717E-02
   33.0000  2.7057249E-02  2.8764911E-02  2.6884661E-02
   34.0000  2.6362865E-02  2.7903515E-02  2.6723234E-02
   35.0000  2.5751809E-02  2.7030269E-02  2.6522575E-02
   36.0000  2.5191083E-02  2.6130685E-02  2.6265226E-02
   37.0000  2.4665944E-02  2.5207255E-02  2.5949671E-02
   38.0000  2.4176976E-02  2.4288183E-02  2.5593195E-02
   39.0000  2.3740566E-02  2.3434881E-02  2.5234028E-02
   40.0000  2.3387690E-02  2.2737242E-02  2.4927321E-02
