    Energy   (100,001)      (010,001)      (001,110)   
  -25.0000  1.6794190E-04  1.8070360E-04  1.8354870E-04
  -24.0000  1.7372551E-04  1.8780072E-04  1.8993900E-04
  -23.0000  1.7988298E-04  1.9542328E-04  1.9675691E-04
  -22.0000  1.8645070E-04  2.0362990E-04  2.0404617E-04
  -21.0000  1.9346985E-04  2.1248813E-04  2.1185661E-04
  -20.0000  2.0098727E-04  2.2207610E-04  2.2024534E-04
  -19.0000  2.0905639E-04  2.3248473E-04  2.2927807E-04
  -18.0000  2.1773850E-04  2.4382035E-04  2.3903080E-04
  -17.0000  2.2710420E-04  2.5620814E-04  2.4959189E-04
  -16.0000  2.3723524E-04  2.6979635E-04  2.6106475E-04
  -15.0000  2.4822681E-04  2.8476186E-04  2.7357111E-04
  -14.0000  2.6019044E-04  3.0131731E-04  2.8725533E-04
  -13.0000  2.7325767E-04  3.1972045E-04  3.0228986E-04
  -12.0000  2.8758475E-04  3.4028662E-04  3.1888251E-04
  -11.0000  3.0335876E-04  3.6340551E-04  3.3728599E-04
  -10.0000  3.2080573E-04  3.8956407E-04  3.5781081E-04
  -9.00000  3.4020141E-04  4.1937834E-04  3.8084290E-04
  -8.00000  3.6188603E-04  4.5363859E-04  4.0686823E-04
  -7.00000  3.8628469E-04  4.9337456E-04  4.3650775E-04
  -6.00000  4.1393634E-04  5.3995204E-04  4.7056842E-04
  -5.00000  4.4553609E-04  5.9522011E-04  5.1011964E-04
  -4.00000  4.8199871E-04  6.6174251E-04  5.5661158E-04
  -3.00000  5.2455819E-04  7.4317577E-04  6.1206568E-04
  -2.00000  5.7493092E-04  8.4491613E-04  6.7939602E-04
  -1.00000  6.3560080E-04  9.7527184E-04  7.6298480E-04
   0.00000  7.1035948E-04  1.1477499E-03  8.6979432E-04
   1.00000  8.0545101E-04  1.3859803E-03  1.0117491E-03
   2.00000  9.3241899E-04  1.7359222E-03  1.2116492E-03
   3.00000  1.1171224E-03  2.3033839E-03  1.5215796E-03
   4.00000  1.4413666E-03  3.4178172E-03  2.1056714E-03
   5.00000  2.2623596E-03  6.4771429E-03  3.6521509E-03
   5.20000  2.5109885E-03  7.4550215E-03  4.1109478E-03
   5.40000  2.7558892E-03  8.4674579E-03  4.5592663E-03
   5.60000  2.9892047E-03  9.4980869E-03  4.9960214E-03
   5.80000  3.2135644E-03  1.0564532E-02  5.4421923E-03
   6.00000  3.4348810E-03  1.1694127E-02  5.9229280E-03
   6.20000  3.6589405E-03  1.2912905E-02  6.4611797E-03
   6.40000  3.8906970E-03  1.4243622E-02  7.0775216E-03
   6.60000  4.1343308E-03  1.5706147E-02  7.7907414E-03
   6.80000  4.3933599E-03  1.7317845E-02  8.6175258E-03
   7.00000  4.6706730E-03  1.9093721E-02  9.5710598E-03
   7.20000  4.9684770E-03  2.1046803E-02  1.0658738E-02
   7.40000  5.2882181E-03  2.3188914E-02  1.1879509E-02
   7.60000  5.6305993E-03  2.5531453E-02  1.3221852E-02
   7.80000  5.9958792E-03  2.8086256E-02  1.4663677E-02
   8.00000  6.3845388E-03  3.0866322E-02  1.6174808E-02
   8.20000  6.7981636E-03  3.3884776E-02  1.7720770E-02
   8.40000  7.2401744E-03  3.7149015E-02  1.9264474E-02
   8.60000  7.7160446E-03  4.0647201E-02  2.0762510E-02
   8.80000  8.2329068E-03  4.4328308E-02  2.2157477E-02
   9.00000  8.7988054E-03  4.8084759E-02  2.3375141E-02
   9.20000  9.4220352E-03  5.1752853E-02  2.4337828E-02
   9.40000  1.0110837E-02  5.5140151E-02  2.4994559E-02
   9.60000  1.0873328E-02  5.8068283E-02  2.5349285E-02
   9.80000  1.1717274E-02  6.0403140E-02  2.5464375E-02
   10.0000  1.2649346E-02  6.2056045E-02  2.5436877E-02
   10.2500  1.3944490E-02  6.3076255E-02  2.5351524E-02
   10.5000  1.5382850E-02  6.2877965E-02  2.5344130E-02
   10.7500  1.6949934E-02  6.1480473E-02  2.5495601E-02
   11.0000  1.8615742E-02  5.9019829E-02  2.5832876E-02
   11.2500  2.0336666E-02  5.5744247E-02  2.6348109E-02
   11.5000  2.2061902E-02  5.1964678E-02  2.7013474E-02
   11.7500  2.3742778E-02  4.7987832E-02  2.7790546E-02
   12.0000  2.5340903E-02  4.4063895E-02  2.8635802E-02
   12.2500  2.6830694E-02  4.0365892E-02  2.9504753E-02
   12.5000  2.8197816E-02  3.6994461E-02  3.0356195E-02
   12.7500  2.9438652E-02  3.3993036E-02  3.1156782E-02
   13.0000  3.0559705E-02  3.1364913E-02  3.1884352E-02
   13.2500  3.1573510E-02  2.9089505E-02  3.2527913E-02
   13.5000  3.2493395E-02  2.7135305E-02  3.3085650E-02
   13.7500  3.3331427E-02  2.5467634E-02  3.3563005E-02
   14.0000  3.4098833E-02  2.4052451E-02  3.3970504E-02
   14.2500  3.4806450E-02  2.2858271E-02  3.4320918E-02
   14.5000  3.5464385E-02  2.1857066E-02  3.4626840E-02
   14.7500  3.6081086E-02  2.1024475E-02  3.4899817E-02
   15.0000  3.6662332E-02  2.0339642E-02  3.5150238E-02
   15.2500  3.7210650E-02  1.9784893E-02  3.5386548E-02
   15.5000  3.7725161E-02  1.9345389E-02  3.5613956E-02
   15.7500  3.8201746E-02  1.9008728E-02  3.5833534E-02
   16.0000  3.8633512E-02  1.8764551E-02  3.6042029E-02
   16.2500  3.9011614E-02  1.8604156E-02  3.6232345E-02
   16.5000  3.9326449E-02  1.8520162E-02  3.6394582E-02
   16.7500  3.9569152E-02  1.8506207E-02  3.6517492E-02
   17.0000  3.9733210E-02  1.8556722E-02  3.6590163E-02
   17.2500  3.9815948E-02  1.8666742E-02  3.6603685E-02
   17.5000  3.9819571E-02  1.8831794E-02  3.6552489E-02
   17.7500  3.9751549E-02  1.9047811E-02  3.6435147E-02
   18.0000  3.9624213E-02  1.9311082E-02  3.6254484E-02
   18.2500  3.9453679E-02  1.9618224E-02  3.6017067E-02
   18.5000  3.9258302E-02  1.9966161E-02  3.5732244E-02
   18.7500  3.9056986E-02  2.0352107E-02  3.5410980E-02
   19.0000  3.8867605E-02  2.0773574E-02  3.5064713E-02
   19.2500  3.8705738E-02  2.1228389E-02  3.4704385E-02
   19.5000  3.8583769E-02  2.1714727E-02  3.4339708E-02
   19.7500  3.8510348E-02  2.2231049E-02  3.3978725E-02
   20.0000  3.8490175E-02  2.2775815E-02  3.3627769E-02
   21.0000  3.8913501E-02  2.5185170E-02  3.2411458E-02
   22.0000  3.9793690E-02  2.7791502E-02  3.1583728E-02
   23.0000  4.0384184E-02  3.0321433E-02  3.1089243E-02
   24.0000  3.9999765E-02  3.2440934E-02  3.0797967E-02
   25.0000  3.8442728E-02  3.3846367E-02  3.0595544E-02
   26.0000  3.6071257E-02  3.4397664E-02  3.0407852E-02
   27.0000  3.3478699E-02  3.4177101E-02  3.0198960E-02
   28.0000  3.1132122E-02  3.3417229E-02  2.9965814E-02
   29.0000  2.9242841E-02  3.2372600E-02  2.9731446E-02
   30.0000  2.7830215E-02  3.1234466E-02  2.9527449E-02
   31.0000  2.6824997E-02  3.0111387E-02  2.9370777E-02
   32.0000  2.6133603E-02  2.9047400E-02  2.9252546E-02
   33.0000  2.5664708E-02  2.8048558E-02  2.9144825E-02
   34.0000  2.5339022E-02  2.7105470E-02  2.9016583E-02
   35.0000  2.5094836E-02  2.6210624E-02  2.8849385E-02
   36.0000  2.4890203E-02  2.5366079E-02  2.8641137E-02
   37.0000  2.4698099E-02  2.4579384E-02  2.8393218E-02
   38.0000  2.4506026E-02  2.3864573E-02  2.8109484E-02
   39.0000  2.4318549E-02  2.3246799E-02  2.7809296E-02
   40.0000  2.4155885E-02  2.2761821E-02  2.7540588E-02
