    Energy   (100,001)      (010,001)      (001,110)   
  -25.0000  1.7258614E-04  1.8328171E-04  1.8081844E-04
  -24.0000  1.7893080E-04  1.9017935E-04  1.8750655E-04
  -23.0000  1.8571390E-04  1.9757168E-04  1.9466443E-04
  -22.0000  1.9298113E-04  2.0551257E-04  2.0234208E-04
  -21.0000  2.0078464E-04  2.1406392E-04  2.1059679E-04
  -20.0000  2.0918424E-04  2.2329720E-04  2.1949446E-04
  -19.0000  2.1824887E-04  2.3329528E-04  2.2911129E-04
  -18.0000  2.2805835E-04  2.4415486E-04  2.3953591E-04
  -17.0000  2.3870564E-04  2.5598944E-04  2.5087190E-04
  -16.0000  2.5029965E-04  2.6893304E-04  2.6324119E-04
  -15.0000  2.6296874E-04  2.8314508E-04  2.7678819E-04
  -14.0000  2.7686532E-04  2.9881656E-04  2.9168526E-04
  -13.0000  2.9217170E-04  3.1617829E-04  3.0813976E-04
  -12.0000  3.0910777E-04  3.3551168E-04  3.2640340E-04
  -11.0000  3.2794122E-04  3.5716322E-04  3.4678473E-04
  -10.0000  3.4900128E-04  3.8156434E-04  3.6966611E-04
  -9.00000  3.7269744E-04  4.0925879E-04  3.9552716E-04
  -8.00000  3.9954566E-04  4.4094141E-04  4.2497783E-04
  -7.00000  4.3020554E-04  4.7751407E-04  4.5880595E-04
  -6.00000  4.6553441E-04  5.2016825E-04  4.9804735E-04
  -5.00000  5.0666839E-04  5.7051077E-04  5.4409227E-04
  -4.00000  5.5514763E-04  6.3076120E-04  5.9885217E-04
  -3.00000  6.1311764E-04  7.0407466E-04  6.6503175E-04
  -2.00000  6.8366869E-04  7.9509516E-04  7.4659360E-04
  -1.00000  7.7144343E-04  9.1096334E-04  8.4959970E-04
   0.00000  8.8381325E-04  1.0632997E-03  9.8385156E-04
   1.00000  1.0334117E-03  1.2725405E-03  1.1664145E-03
   2.00000  1.2444917E-03  1.5789497E-03  1.4302977E-03
   3.00000  1.5730897E-03  2.0777536E-03  1.8507303E-03
   4.00000  2.2000286E-03  3.0805431E-03  2.6565234E-03
   5.00000  3.9071945E-03  5.9589050E-03  4.7973974E-03
   5.20000  4.4166380E-03  6.8560700E-03  5.4913581E-03
   5.40000  4.9048205E-03  7.7416276E-03  6.2319535E-03
   5.60000  5.3607820E-03  8.5903791E-03  7.0157767E-03
   5.80000  5.8002221E-03  9.4166272E-03  7.8601334E-03
   6.00000  6.2461115E-03  1.0245765E-02  8.7882902E-03
   6.20000  6.7202192E-03  1.1101714E-02  9.8240236E-03
   6.40000  7.2418678E-03  1.2005350E-02  1.0992751E-02
   6.60000  7.8286163E-03  1.2975997E-02  1.2324204E-02
   6.80000  8.4968544E-03  1.4032992E-02  1.3852950E-02
   7.00000  9.2617434E-03  1.5196694E-02  1.5613144E-02
   7.20000  1.0136267E-02  1.6488833E-02  1.7624054E-02
   7.40000  1.1129322E-02  1.7931932E-02  1.9865455E-02
   7.60000  1.2243440E-02  1.9547998E-02  2.2249562E-02
   7.80000  1.3473669E-02  2.1357071E-02  2.4607640E-02
   8.00000  1.4809365E-02  2.3375678E-02  2.6715085E-02
   8.20000  1.6238789E-02  2.5614710E-02  2.8361667E-02
   8.40000  1.7753499E-02  2.8076925E-02  2.9433797E-02
   8.60000  1.9348472E-02  3.0754806E-02  2.9952815E-02
   8.80000  2.1017157E-02  3.3629320E-02  3.0045403E-02
   9.00000  2.2745110E-02  3.6669538E-02  2.9876957E-02
   9.20000  2.4506487E-02  3.9832077E-02  2.9594768E-02
   9.40000  2.6264930E-02  4.3058564E-02  2.9302689E-02
   9.60000  2.7977748E-02  4.6269817E-02  2.9061620E-02
   9.80000  2.9601528E-02  4.9358104E-02  2.8901185E-02
   10.0000  3.1097645E-02  5.2182500E-02  2.8831841E-02
   10.2500  3.2743267E-02  5.5084826E-02  2.8872096E-02
   10.5000  3.4103705E-02  5.6980933E-02  2.9040965E-02
   10.7500  3.5157673E-02  5.7624922E-02  2.9320442E-02
   11.0000  3.5900796E-02  5.6937869E-02  2.9691532E-02
   11.2500  3.6345928E-02  5.5046881E-02  3.0133526E-02
   11.5000  3.6521027E-02  5.2250742E-02  3.0622790E-02
   11.7500  3.6466010E-02  4.8923504E-02  3.1133932E-02
   12.0000  3.6230629E-02  4.5412926E-02  3.1643317E-02
   12.2500  3.5871329E-02  4.1979910E-02  3.2132166E-02
   12.5000  3.5444679E-02  3.8786478E-02  3.2586252E-02
   12.7500  3.5000558E-02  3.5912751E-02  3.2994641E-02
   13.0000  3.4578587E-02  3.3381781E-02  3.3350306E-02
   13.2500  3.4207805E-02  3.1181967E-02  3.3650942E-02
   13.5000  3.3907762E-02  2.9284766E-02  3.3898937E-02
   13.7500  3.3689781E-02  2.7656663E-02  3.4101454E-02
   14.0000  3.3558248E-02  2.6265011E-02  3.4270273E-02
   14.2500  3.3511948E-02  2.5080007E-02  3.4420544E-02
   14.5000  3.3545203E-02  2.4075246E-02  3.4568626E-02
   14.7500  3.3648750E-02  2.3227803E-02  3.4729679E-02
   15.0000  3.3810406E-02  2.2518065E-02  3.4915585E-02
   15.2500  3.4015616E-02  2.1929395E-02  3.5133444E-02
   15.5000  3.4247962E-02  2.1447723E-02  3.5384731E-02
   15.7500  3.4489741E-02  2.1061128E-02  3.5665097E-02
   16.0000  3.4722715E-02  2.0759456E-02  3.5964791E-02
   16.2500  3.4929065E-02  2.0534003E-02  3.6269665E-02
   16.5000  3.5092541E-02  2.0377257E-02  3.6562706E-02
   16.7500  3.5199699E-02  2.0282691E-02  3.6825955E-02
   17.0000  3.5241044E-02  2.0244600E-02  3.7042545E-02
   17.2500  3.5211884E-02  2.0257974E-02  3.7198572E-02
   17.5000  3.5112696E-02  2.0318388E-02  3.7284470E-02
   17.7500  3.4948929E-02  2.0421920E-02  3.7295710E-02
   18.0000  3.4730257E-02  2.0565072E-02  3.7232754E-02
   18.2500  3.4469436E-02  2.0744714E-02  3.7100396E-02
   18.5000  3.4180970E-02  2.0958034E-02  3.6906709E-02
   18.7500  3.3879792E-02  2.1202513E-02  3.6661827E-02
   19.0000  3.3580122E-02  2.1475923E-02  3.6376766E-02
   19.2500  3.3294596E-02  2.1776344E-02  3.6062410E-02
   19.5000  3.3033674E-02  2.2102198E-02  3.5728718E-02
   19.7500  3.2805344E-02  2.2452241E-02  3.5384219E-02
   20.0000  3.2615123E-02  2.2825390E-02  3.5035915E-02
   21.0000  3.2280535E-02  2.4518726E-02  3.3708161E-02
   22.0000  3.2571594E-02  2.6456096E-02  3.2609105E-02
   23.0000  3.3172446E-02  2.8532945E-02  3.1715863E-02
   24.0000  3.3615473E-02  3.0593959E-02  3.0915114E-02
   25.0000  3.3534909E-02  3.2427590E-02  3.0117992E-02
   26.0000  3.2914155E-02  3.3821402E-02  2.9307843E-02
   27.0000  3.2020721E-02  3.4645967E-02  2.8531533E-02
   28.0000  3.1079823E-02  3.4897792E-02  2.7858962E-02
   29.0000  3.0142618E-02  3.4672860E-02  2.7339262E-02
   30.0000  2.9213856E-02  3.4106309E-02  2.6979040E-02
   31.0000  2.8336536E-02  3.3323394E-02  2.6747408E-02
   32.0000  2.7552187E-02  3.2425330E-02  2.6591137E-02
   33.0000  2.6861788E-02  3.1486888E-02  2.6450856E-02
   34.0000  2.6240078E-02  3.0538319E-02  2.6279462E-02
   35.0000  2.5657967E-02  2.9583634E-02  2.6049639E-02
   36.0000  2.5095750E-02  2.8624481E-02  2.5755823E-02
   37.0000  2.4549624E-02  2.7672118E-02  2.5414715E-02
   38.0000  2.4033061E-02  2.6755177E-02  2.5061553E-02
   39.0000  2.3574478E-02  2.5925923E-02  2.4740028E-02
   40.0000  2.3209727E-02  2.5258511E-02  2.4487353E-02
