    Energy   (100,001)      (010,001)      (001,110)   
  -25.0000  1.6579589E-04  1.7605371E-04  1.8256254E-04
  -24.0000  1.7163266E-04  1.8306255E-04  1.8890287E-04
  -23.0000  1.7785112E-04  1.9059346E-04  1.9566295E-04
  -22.0000  1.8448868E-04  1.9870487E-04  2.0288503E-04
  -21.0000  1.9158770E-04  2.0746410E-04  2.1061718E-04
  -20.0000  1.9919639E-04  2.1694908E-04  2.1891432E-04
  -19.0000  2.0736981E-04  2.2725050E-04  2.2783950E-04
  -18.0000  2.1617113E-04  2.3847448E-04  2.3746542E-04
  -17.0000  2.2567319E-04  2.5074596E-04  2.4787642E-04
  -16.0000  2.3596041E-04  2.6421304E-04  2.5917085E-04
  -15.0000  2.4713119E-04  2.7905247E-04  2.7146413E-04
  -14.0000  2.5930096E-04  2.9547685E-04  2.8489263E-04
  -13.0000  2.7260598E-04  3.1374409E-04  2.9961870E-04
  -12.0000  2.8720834E-04  3.3416996E-04  3.1583715E-04
  -11.0000  3.0330241E-04  3.5714504E-04  3.3378394E-04
  -10.0000  3.2112340E-04  3.8315790E-04  3.5374768E-04
  -9.00000  3.4095879E-04  4.1282748E-04  3.7608548E-04
  -8.00000  3.6316407E-04  4.4694898E-04  4.0124476E-04
  -7.00000  3.8818446E-04  4.8656055E-04  4.2979445E-04
  -6.00000  4.1658607E-04  5.3304238E-04  4.6247014E-04
  -5.00000  4.4910143E-04  5.8826854E-04  5.0024185E-04
  -4.00000  4.8669837E-04  6.5484705E-04  5.4441888E-04
  -3.00000  5.3068837E-04  7.3651532E-04  5.9681899E-04
  -2.00000  5.8290556E-04  8.3882329E-04  6.6005541E-04
  -1.00000  6.4602112E-04  9.7038673E-04  7.3805516E-04
   0.00000  7.2414253E-04  1.1453708E-03  8.3707464E-04
   1.00000  8.2408928E-04  1.3889487E-03  9.6791850E-04
   2.00000  9.5857227E-04  1.7511875E-03  1.1515932E-03
   3.00000  1.1562388E-03  2.3511426E-03  1.4374460E-03
   4.00000  1.5076961E-03  3.5764624E-03  1.9868558E-03
   5.00000  2.4084019E-03  7.1339653E-03  3.5115354E-03
   5.20000  2.6851000E-03  8.2762327E-03  3.9848952E-03
   5.40000  2.9615497E-03  9.4382579E-03  4.4550447E-03
   5.60000  3.2296668E-03  1.0590545E-02  4.9113733E-03
   5.80000  3.4920896E-03  1.1746907E-02  5.3647583E-03
   6.00000  3.7545491E-03  1.2933947E-02  5.8322891E-03
   6.20000  4.0222375E-03  1.4176591E-02  6.3293638E-03
   6.40000  4.2989986E-03  1.5494543E-02  6.8667021E-03
   6.60000  4.5874351E-03  1.6901677E-02  7.4485917E-03
   6.80000  4.8893276E-03  1.8406247E-02  8.0715826E-03
   7.00000  5.2062261E-03  2.0012083E-02  8.7245267E-03
   7.20000  5.5400990E-03  2.1721284E-02  9.3912766E-03
   7.40000  5.8938479E-03  2.3538775E-02  1.0056416E-02
   7.60000  6.2714545E-03  2.5477367E-02  1.0712101E-02
   7.80000  6.6776364E-03  2.7560133E-02  1.1362214E-02
   8.00000  7.1171596E-03  2.9817593E-02  1.2020972E-02
   8.20000  7.5941404E-03  3.2279999E-02  1.2706663E-02
   8.40000  8.1116062E-03  3.4967310E-02  1.3434008E-02
   8.60000  8.6713907E-03  3.7879773E-02  1.4208665E-02
   8.80000  9.2743343E-03  4.0991112E-02  1.5025703E-02
   9.00000  9.9207687E-03  4.4245562E-02  1.5872053E-02
   9.20000  1.0611266E-02  4.7559190E-02  1.6731720E-02
   9.40000  1.1347505E-02  5.0824453E-02  1.7591475E-02
   9.60000  1.2132893E-02  5.3915076E-02  1.8444480E-02
   9.80000  1.2972482E-02  5.6688696E-02  1.9290313E-02
   10.0000  1.3871882E-02  5.8988994E-02  2.0132096E-02
   10.2500  1.5086515E-02  6.0953366E-02  2.1183424E-02
   10.5000  1.6402207E-02  6.1655730E-02  2.2236126E-02
   10.7500  1.7809547E-02  6.0963986E-02  2.3289937E-02
   11.0000  1.9288964E-02  5.8952174E-02  2.4343711E-02
   11.2500  2.0813215E-02  5.5889584E-02  2.5395626E-02
   11.5000  2.2348504E-02  5.2156728E-02  2.6441404E-02
   11.7500  2.3854754E-02  4.8137998E-02  2.7472097E-02
   12.0000  2.5289925E-02  4.4143616E-02  2.8472792E-02
   12.2500  2.6617867E-02  4.0382395E-02  2.9423597E-02
   12.5000  2.7815697E-02  3.6971529E-02  3.0303473E-02
   12.7500  2.8877962E-02  3.3959352E-02  3.1096331E-02
   13.0000  2.9816073E-02  3.1347927E-02  3.1796477E-02
   13.2500  3.0652823E-02  2.9112577E-02  3.2409826E-02
   13.5000  3.1415296E-02  2.7216462E-02  3.2951407E-02
   13.7500  3.2130176E-02  2.5619355E-02  3.3442021E-02
   14.0000  3.2821499E-02  2.4282340E-02  3.3905187E-02
   14.2500  3.3509404E-02  2.3170134E-02  3.4364384E-02
   14.5000  3.4209377E-02  2.2251833E-02  3.4840648E-02
   14.7500  3.4931784E-02  2.1500778E-02  3.5350605E-02
   15.0000  3.5681591E-02  2.0894153E-02  3.5904987E-02
   15.2500  3.6458239E-02  2.0412545E-02  3.6507628E-02
   15.5000  3.7255724E-02  2.0039527E-02  3.7154916E-02
   15.7500  3.8062922E-02  1.9761283E-02  3.7835776E-02
   16.0000  3.8864186E-02  1.9566256E-02  3.8532327E-02
   16.2500  3.9640246E-02  1.9444841E-02  3.9221325E-02
   16.5000  4.0369430E-02  1.9389107E-02  3.9876431E-02
   16.7500  4.1029162E-02  1.9392546E-02  4.0471088E-02
   17.0000  4.1597675E-02  1.9449849E-02  4.0981580E-02
   17.2500  4.2055818E-02  1.9556695E-02  4.1389702E-02
   17.5000  4.2388805E-02  1.9709561E-02  4.1684509E-02
   17.7500  4.2587738E-02  1.9905551E-02  4.1862854E-02
   18.0000  4.2650695E-02  2.0142230E-02  4.1928726E-02
   18.2500  4.2583185E-02  2.0417486E-02  4.1891710E-02
   18.5000  4.2397833E-02  2.0729402E-02  4.1765021E-02
   18.7500  4.2113262E-02  2.1076174E-02  4.1563549E-02
   19.0000  4.1752283E-02  2.1456067E-02  4.1302214E-02
   19.2500  4.1339655E-02  2.1867424E-02  4.0994760E-02
   19.5000  4.0899753E-02  2.2308719E-02  4.0653000E-02
   19.7500  4.0454586E-02  2.2778546E-02  4.0286495E-02
   20.0000  4.0022629E-02  2.3275408E-02  3.9902710E-02
   21.0000  3.8679650E-02  2.5481688E-02  3.8300868E-02
   22.0000  3.8192043E-02  2.7884472E-02  3.6730725E-02
   23.0000  3.8382807E-02  3.0252434E-02  3.5232570E-02
   24.0000  3.8786956E-02  3.2295150E-02  3.3795859E-02
   25.0000  3.8849406E-02  3.3725599E-02  3.2429575E-02
   26.0000  3.8127443E-02  3.4381376E-02  3.1176731E-02
   27.0000  3.6560494E-02  3.4292256E-02  3.0096843E-02
   28.0000  3.4518146E-02  3.3632375E-02  2.9238655E-02
   29.0000  3.2491316E-02  3.2616896E-02  2.8621647E-02
   30.0000  3.0781025E-02  3.1433428E-02  2.8230917E-02
   31.0000  2.9447781E-02  3.0216675E-02  2.8022099E-02
   32.0000  2.8416675E-02  2.9034464E-02  2.7933601E-02
   33.0000  2.7583470E-02  2.7908118E-02  2.7904492E-02
   34.0000  2.6859308E-02  2.6836445E-02  2.7884989E-02
   35.0000  2.6179972E-02  2.5810124E-02  2.7838931E-02
   36.0000  2.5508238E-02  2.4822367E-02  2.7743967E-02
   37.0000  2.4836073E-02  2.3876905E-02  2.7591338E-02
   38.0000  2.4184225E-02  2.2993764E-02  2.7385560E-02
   39.0000  2.3596261E-02  2.2213603E-02  2.7148470E-02
   40.0000  2.3124728E-02  2.1593520E-02  2.6926959E-02
