    Energy   (100,001)      (010,001)      (001,110)   
  -25.0000  1.7089898E-04  1.7976654E-04  1.7146690E-04
  -24.0000  1.7741846E-04  1.8674381E-04  1.7803350E-04
  -23.0000  1.8440100E-04  1.9423223E-04  1.8506793E-04
  -22.0000  1.9189589E-04  2.0228833E-04  1.9262004E-04
  -21.0000  1.9995951E-04  2.1097719E-04  2.0074686E-04
  -20.0000  2.0865667E-04  2.2037402E-04  2.0951394E-04
  -19.0000  2.1806221E-04  2.3056622E-04  2.1899695E-04
  -18.0000  2.2826301E-04  2.4165594E-04  2.2928372E-04
  -17.0000  2.3936050E-04  2.5376325E-04  2.4047675E-04
  -16.0000  2.5147377E-04  2.6703023E-04  2.5269632E-04
  -15.0000  2.6474360E-04  2.8162615E-04  2.6608455E-04
  -14.0000  2.7933754E-04  2.9775425E-04  2.8081044E-04
  -13.0000  2.9545655E-04  3.1566055E-04  2.9707652E-04
  -12.0000  3.1334371E-04  3.3564559E-04  3.1512751E-04
  -11.0000  3.3329581E-04  3.5808015E-04  3.3526172E-04
  -10.0000  3.5567885E-04  3.8342679E-04  3.5784646E-04
  -9.00000  3.8094951E-04  4.1226957E-04  3.8333900E-04
  -8.00000  4.0968484E-04  4.4535622E-04  4.1231561E-04
  -7.00000  4.4262468E-04  4.8365880E-04  4.4551266E-04
  -6.00000  4.8073344E-04  5.2846338E-04  4.8388596E-04
  -5.00000  5.2529241E-04  5.8150605E-04  5.2869864E-04
  -4.00000  5.7804241E-04  6.4518591E-04  5.8165513E-04
  -3.00000  6.4141220E-04  7.2291146E-04  6.4511248E-04
  -2.00000  7.1890124E-04  8.1968967E-04  7.2242774E-04
  -1.00000  8.1575817E-04  9.4318633E-04  8.1855886E-04
   0.00000  9.4027317E-04  1.1057773E-03  9.4117478E-04
   1.00000  1.1064896E-03  1.3289229E-03  1.1028960E-03
   2.00000  1.3407336E-03  1.6538862E-03  1.3264353E-03
   3.00000  1.7010355E-03  2.1742638E-03  1.6590386E-03
   4.00000  2.3588938E-03  3.1762933E-03  2.2298473E-03
   5.00000  4.0141492E-03  5.8578201E-03  3.5301699E-03
   5.20000  4.5375157E-03  6.7095360E-03  3.9289628E-03
   5.40000  5.0884660E-03  7.5918873E-03  4.3510823E-03
   5.60000  5.6615463E-03  8.4906004E-03  4.7938173E-03
   5.80000  6.2682761E-03  9.4210996E-03  5.2655012E-03
   6.00000  6.9261856E-03  1.0408161E-02  5.7782248E-03
   6.20000  7.6537271E-03  1.1476554E-02  6.3451366E-03
   6.40000  8.4694060E-03  1.2649505E-02  6.9808957E-03
   6.60000  9.3920147E-03  1.3949482E-02  7.7027974E-03
   6.80000  1.0440321E-02  1.5399121E-02  8.5313501E-03
   7.00000  1.1631008E-02  1.7021721E-02  9.4899270E-03
   7.20000  1.2973743E-02  1.8841059E-02  1.0603608E-02
   7.40000  1.4462918E-02  2.0880325E-02  1.1897596E-02
   7.60000  1.6068237E-02  2.3160314E-02  1.3395757E-02
   7.80000  1.7730874E-02  2.5697441E-02  1.5120063E-02
   8.00000  1.9374658E-02  2.8501834E-02  1.7091249E-02
   8.20000  2.0934633E-02  3.1575377E-02  1.9329197E-02
   8.40000  2.2388169E-02  3.4909304E-02  2.1849289E-02
   8.60000  2.3764514E-02  3.8479610E-02  2.4651648E-02
   8.80000  2.5125047E-02  4.2238820E-02  2.7705217E-02
   9.00000  2.6531160E-02  4.6106048E-02  3.0933480E-02
   9.20000  2.8020825E-02  4.9960460E-02  3.4209376E-02
   9.40000  2.9601027E-02  5.3643107E-02  3.7364319E-02
   9.60000  3.1251644E-02  5.6968955E-02  4.0212156E-02
   9.80000  3.2934152E-02  5.9746817E-02  4.2583187E-02
   10.0000  3.4600515E-02  6.1802096E-02  4.4357879E-02
   10.2500  3.6581827E-02  6.3151571E-02  4.5671750E-02
   10.5000  3.8351239E-02  6.3022597E-02  4.6049465E-02
   10.7500  3.9801170E-02  6.1453678E-02  4.5685758E-02
   11.0000  4.0839795E-02  5.8662546E-02  4.4829925E-02
   11.2500  4.1416339E-02  5.4995335E-02  4.3719540E-02
   11.5000  4.1539150E-02  5.0844472E-02  4.2539617E-02
   11.7500  4.1274826E-02  4.6568198E-02  4.1407358E-02
   12.0000  4.0727960E-02  4.2439022E-02  4.0377189E-02
   12.2500  4.0014573E-02  3.8629936E-02  3.9457718E-02
   12.5000  3.9239941E-02  3.5227443E-02  3.8631805E-02
   12.7500  3.8485705E-02  3.2255349E-02  3.7874457E-02
   13.0000  3.7807316E-02  2.9698607E-02  3.7165733E-02
   13.2500  3.7237792E-02  2.7521997E-02  3.6497293E-02
   13.5000  3.6792789E-02  2.5682636E-02  3.5872855E-02
   13.7500  3.6474895E-02  2.4137298E-02  3.5304700E-02
   14.0000  3.6277024E-02  2.2845901E-02  3.4808474E-02
   14.2500  3.6184940E-02  2.1772791E-02  3.4398196E-02
   14.5000  3.6179203E-02  2.0887116E-02  3.4083554E-02
   14.7500  3.6236747E-02  2.0162762E-02  3.3869196E-02
   15.0000  3.6332224E-02  1.9578004E-02  3.3754679E-02
   15.2500  3.6439327E-02  1.9114963E-02  3.3734634E-02
   15.5000  3.6532248E-02  1.8759012E-02  3.3799225E-02
   15.7500  3.6587278E-02  1.8498188E-02  3.3934881E-02
   16.0000  3.6584401E-02  1.8322665E-02  3.4125260E-02
   16.2500  3.6508693E-02  1.8224289E-02  3.4352357E-02
   16.5000  3.6351293E-02  1.8196199E-02  3.4597683E-02
   16.7500  3.6109803E-02  1.8232521E-02  3.4843440E-02
   17.0000  3.5788056E-02  1.8328130E-02  3.5073591E-02
   17.2500  3.5395310E-02  1.8478469E-02  3.5274717E-02
   17.5000  3.4945056E-02  1.8679415E-02  3.5436593E-02
   17.7500  3.4453617E-02  1.8927182E-02  3.5552430E-02
   18.0000  3.3938755E-02  1.9218241E-02  3.5618804E-02
   18.2500  3.3418417E-02  1.9549272E-02  3.5635315E-02
   18.5000  3.2909693E-02  1.9917122E-02  3.5604061E-02
   18.7500  3.2428024E-02  2.0318801E-02  3.5529010E-02
   19.0000  3.1986637E-02  2.0751499E-02  3.5415333E-02
   19.2500  3.1596181E-02  2.1212648E-02  3.5268775E-02
   19.5000  3.1264525E-02  2.1700001E-02  3.5095096E-02
   19.7500  3.0996697E-02  2.2211650E-02  3.4899642E-02
   20.0000  3.0794994E-02  2.2745814E-02  3.4687160E-02
   21.0000  3.0622617E-02  2.5056109E-02  3.3744477E-02
   22.0000  3.1242965E-02  2.7505464E-02  3.2759619E-02
   23.0000  3.2164890E-02  2.9906748E-02  3.1752378E-02
   24.0000  3.2817802E-02  3.2038234E-02  3.0698219E-02
   25.0000  3.2777621E-02  3.3669806E-02  2.9612883E-02
   26.0000  3.1976051E-02  3.4639361E-02  2.8558796E-02
   27.0000  3.0686646E-02  3.4948738E-02  2.7593263E-02
   28.0000  2.9302540E-02  3.4716446E-02  2.6765310E-02
   29.0000  2.8099084E-02  3.4101061E-02  2.6115477E-02
   30.0000  2.7161320E-02  3.3253472E-02  2.5649852E-02
   31.0000  2.6445791E-02  3.2289216E-02  2.5328028E-02
   32.0000  2.5863952E-02  3.1279789E-02  2.5081222E-02
   33.0000  2.5333952E-02  3.0258365E-02  2.4838754E-02
   34.0000  2.4800864E-02  2.9232789E-02  2.4544238E-02
   35.0000  2.4239198E-02  2.8200071E-02  2.4161761E-02
   36.0000  2.3648529E-02  2.7159154E-02  2.3680069E-02
   37.0000  2.3047038E-02  2.6120972E-02  2.3117689E-02
   38.0000  2.2465588E-02  2.5116693E-02  2.2524652E-02
   39.0000  2.1944385E-02  2.4205277E-02  2.1973377E-02
   40.0000  2.1528151E-02  2.3470260E-02  2.1533720E-02
