    Energy   (100,001)      (010,001)      (001,110)   
  -25.0000  1.6513034E-04  1.8467473E-04  1.7659017E-04
  -24.0000  1.7110014E-04  1.9163875E-04  1.8289124E-04
  -23.0000  1.7746909E-04  1.9910314E-04  1.8961603E-04
  -22.0000  1.8427706E-04  2.0712244E-04  1.9680755E-04
  -21.0000  1.9156929E-04  2.1575933E-04  2.0451472E-04
  -20.0000  1.9939734E-04  2.2508613E-04  2.1279348E-04
  -19.0000  2.0782025E-04  2.3518675E-04  2.2170803E-04
  -18.0000  2.1690591E-04  2.4615905E-04  2.3133246E-04
  -17.0000  2.2673278E-04  2.5811787E-04  2.4175271E-04
  -16.0000  2.3739201E-04  2.7119884E-04  2.5306900E-04
  -15.0000  2.4899018E-04  2.8556320E-04  2.6539896E-04
  -14.0000  2.6165257E-04  3.0140415E-04  2.7888156E-04
  -13.0000  2.7552763E-04  3.1895503E-04  2.9368220E-04
  -12.0000  2.9079243E-04  3.3850025E-04  3.0999933E-04
  -11.0000  3.0766010E-04  3.6038987E-04  3.2807317E-04
  -10.0000  3.2638952E-04  3.8505952E-04  3.4819742E-04
  -9.00000  3.4729842E-04  4.1305794E-04  3.7073522E-04
  -8.00000  3.7078143E-04  4.4508590E-04  3.9614124E-04
  -7.00000  3.9733538E-04  4.8205223E-04  4.2499309E-04
  -6.00000  4.2759554E-04  5.2515662E-04  4.5803699E-04
  -5.00000  4.6238926E-04  5.7601533E-04  4.9625624E-04
  -4.00000  5.0281782E-04  6.3685861E-04  5.4097769E-04
  -3.00000  5.5038660E-04  7.1085295E-04  5.9404455E-04
  -2.00000  6.0722301E-04  8.0265350E-04  6.5811281E-04
  -1.00000  6.7646542E-04  9.1940980E-04  7.3719639E-04
   0.00000  7.6301879E-04  1.0727474E-03  8.3776633E-04
   1.00000  8.7520214E-04  1.2831129E-03  9.7126135E-04
   2.00000  1.0289791E-03  1.5908817E-03  1.1609266E-03
   3.00000  1.2618411E-03  2.0922408E-03  1.4659807E-03
   4.00000  1.6993903E-03  3.1074785E-03  2.1080281E-03
   5.00000  2.9045078E-03  6.0509361E-03  4.1030970E-03
   5.20000  3.2623110E-03  6.9354868E-03  4.6209904E-03
   5.40000  3.5979362E-03  7.7694251E-03  5.0168971E-03
   5.60000  3.8997421E-03  8.5298777E-03  5.2887237E-03
   5.80000  4.1756779E-03  9.2480952E-03  5.4821433E-03
   6.00000  4.4390564E-03  9.9707138E-03  5.6444818E-03
   6.20000  4.7019936E-03  1.0737810E-02  5.8089644E-03
   6.40000  4.9741062E-03  1.1577018E-02  5.9959319E-03
   6.60000  5.2628093E-03  1.2506166E-02  6.2174705E-03
   6.80000  5.5739268E-03  1.3538742E-02  6.4812387E-03
   7.00000  5.9122983E-03  1.4688436E-02  6.7930097E-03
   7.20000  6.2823083E-03  1.5971461E-02  7.1581988E-03
   7.40000  6.6883204E-03  1.7407018E-02  7.5826771E-03
   7.60000  7.1349867E-03  1.9016728E-02  8.0731240E-03
   7.80000  7.6273742E-03  2.0823607E-02  8.6371064E-03
   8.00000  8.1708607E-03  2.2850723E-02  9.2829786E-03
   8.20000  8.7707807E-03  2.5119262E-02  1.0019584E-02
   8.40000  9.4317880E-03  2.7645640E-02  1.0855716E-02
   8.60000  1.0156920E-02  3.0437255E-02  1.1799302E-02
   8.80000  1.0946549E-02  3.3486521E-02  1.2856273E-02
   9.00000  1.1797598E-02  3.6763262E-02  1.4029092E-02
   9.20000  1.2703417E-02  4.0206624E-02  1.5315109E-02
   9.40000  1.3654618E-02  4.3719261E-02  1.6705058E-02
   9.60000  1.4640784E-02  4.7168000E-02  1.8182225E-02
   9.80000  1.5652500E-02  5.0394567E-02  1.9722805E-02
   10.0000  1.6682821E-02  5.3235597E-02  2.1297611E-02
   10.2500  1.7990501E-02  5.6025599E-02  2.3265486E-02
   10.5000  1.9315551E-02  5.7782098E-02  2.5175795E-02
   10.7500  2.0652987E-02  5.8406575E-02  2.6977406E-02
   11.0000  2.1994855E-02  5.7907501E-02  2.8635578E-02
   11.2500  2.3328639E-02  5.6392627E-02  3.0133386E-02
   11.5000  2.4637122E-02  5.4055817E-02  3.1468806E-02
   11.7500  2.5900761E-02  5.1149647E-02  3.2650228E-02
   12.0000  2.7102816E-02  4.7941014E-02  3.3691552E-02
   12.2500  2.8234966E-02  4.4665320E-02  3.4607768E-02
   12.5000  2.9298983E-02  4.1498458E-02  3.5411554E-02
   12.7500  3.0303736E-02  3.8551775E-02  3.6112350E-02
   13.0000  3.1261195E-02  3.5882150E-02  3.6718471E-02
   13.2500  3.2184166E-02  3.3507492E-02  3.7239322E-02
   13.5000  3.3085022E-02  3.1421567E-02  3.7686199E-02
   13.7500  3.3974500E-02  2.9605157E-02  3.8072400E-02
   14.0000  3.4860628E-02  2.8033360E-02  3.8412740E-02
   14.2500  3.5747986E-02  2.6680051E-02  3.8722343E-02
   14.5000  3.6637274E-02  2.5520382E-02  3.9015077E-02
   14.7500  3.7525090E-02  2.4531941E-02  3.9302067E-02
   15.0000  3.8403941E-02  2.3695093E-02  3.9590620E-02
   15.2500  3.9262518E-02  2.2992878E-02  3.9883650E-02
   15.5000  4.0086334E-02  2.2410711E-02  4.0179625E-02
   15.7500  4.0858729E-02  2.1936015E-02  4.0472908E-02
   16.0000  4.1562245E-02  2.1557873E-02  4.0754442E-02
   16.2500  4.2180271E-02  2.1266718E-02  4.1012682E-02
   16.5000  4.2698817E-02  2.1054093E-02  4.1234738E-02
   16.7500  4.3108192E-02  2.0912449E-02  4.1407657E-02
   17.0000  4.3404332E-02  2.0835009E-02  4.1519744E-02
   17.2500  4.3589538E-02  2.0815654E-02  4.1561793E-02
   17.5000  4.3672449E-02  2.0848852E-02  4.1528081E-02
   17.7500  4.3667229E-02  2.0929603E-02  4.1416956E-02
   18.0000  4.3592089E-02  2.1053403E-02  4.1230958E-02
   18.2500  4.3467416E-02  2.1216215E-02  4.0976436E-02
   18.5000  4.3313808E-02  2.1414450E-02  4.0662768E-02
   18.7500  4.3150324E-02  2.1644951E-02  4.0301302E-02
   19.0000  4.2993149E-02  2.1904983E-02  3.9904205E-02
   19.2500  4.2854753E-02  2.2192237E-02  3.9483359E-02
   19.5000  4.2743521E-02  2.2504832E-02  3.9049429E-02
   19.7500  4.2663763E-02  2.2841266E-02  3.8611234E-02
   20.0000  4.2615957E-02  2.3200213E-02  3.8175591E-02
   21.0000  4.2649643E-02  2.4824748E-02  3.6546433E-02
   22.0000  4.2652207E-02  2.6654028E-02  3.5174842E-02
   23.0000  4.2076239E-02  2.8554475E-02  3.4006440E-02
   24.0000  4.0602807E-02  3.0360359E-02  3.2959161E-02
   25.0000  3.8272014E-02  3.1886184E-02  3.1983592E-02
   26.0000  3.5413328E-02  3.2977032E-02  3.1050389E-02
   27.0000  3.2464227E-02  3.3562154E-02  3.0147320E-02
   28.0000  2.9791943E-02  3.3667018E-02  2.9289698E-02
   29.0000  2.7604970E-02  3.3381697E-02  2.8516098E-02
   30.0000  2.5962471E-02  3.2825512E-02  2.7868395E-02
   31.0000  2.4822569E-02  3.2117606E-02  2.7368679E-02
   32.0000  2.4087164E-02  3.1339894E-02  2.7002994E-02
   33.0000  2.3645633E-02  3.0536275E-02  2.6734626E-02
   34.0000  2.3393261E-02  2.9726017E-02  2.6520384E-02
   35.0000  2.3231397E-02  2.8915023E-02  2.6318622E-02
   36.0000  2.3069704E-02  2.8105789E-02  2.6093575E-02
   37.0000  2.2840763E-02  2.7305179E-02  2.5819750E-02
   38.0000  2.2522350E-02  2.6531723E-02  2.5489991E-02
   39.0000  2.2149745E-02  2.5825266E-02  2.5128597E-02
   40.0000  2.1803015E-02  2.5250745E-02  2.4798989E-02
