    Energy   (100,001)      (010,001)      (001,110)   
  -25.0000  1.7307110E-04  1.8404117E-04  1.8250773E-04
  -24.0000  1.7915614E-04  1.9102347E-04  1.8898279E-04
  -23.0000  1.8564246E-04  1.9850943E-04  1.9589385E-04
  -22.0000  1.9256989E-04  2.0655415E-04  2.0328538E-04
  -21.0000  1.9998363E-04  2.1522097E-04  2.1120807E-04
  -20.0000  2.0793518E-04  2.2458301E-04  2.1971992E-04
  -19.0000  2.1648348E-04  2.3472515E-04  2.2888756E-04
  -18.0000  2.2569631E-04  2.4574645E-04  2.3878800E-04
  -17.0000  2.3565196E-04  2.5776322E-04  2.4951066E-04
  -16.0000  2.4644140E-04  2.7091290E-04  2.6115999E-04
  -15.0000  2.5817090E-04  2.8535905E-04  2.7385876E-04
  -14.0000  2.7096545E-04  3.0129774E-04  2.8775223E-04
  -13.0000  2.8497298E-04  3.1896602E-04  3.0301362E-04
  -12.0000  3.0037000E-04  3.3865304E-04  3.1985110E-04
  -11.0000  3.1736879E-04  3.6071509E-04  3.3851717E-04
  -10.0000  3.3622706E-04  3.8559596E-04  3.5932114E-04
  -9.00000  3.5726088E-04  4.1385532E-04  3.8264619E-04
  -8.00000  3.8086240E-04  4.4620872E-04  4.0897300E-04
  -7.00000  4.0752462E-04  4.8358534E-04  4.3891332E-04
  -6.00000  4.3787666E-04  5.2721328E-04  4.7325853E-04
  -5.00000  4.7273556E-04  5.7874926E-04  5.1305225E-04
  -4.00000  5.1318448E-04  6.4048215E-04  5.5970216E-04
  -3.00000  5.6069543E-04  7.1566510E-04  6.1515924E-04
  -2.00000  6.1733087E-04  8.0908368E-04  6.8221925E-04
  -1.00000  6.8609447E-04  9.2808590E-04  7.6506118E-04
   0.00000  7.7158963E-04  1.0845966E-03  8.7028697E-04
   1.00000  8.8138956E-04  1.2994757E-03  1.0091514E-03
   2.00000  1.0293440E-03  1.6134078E-03  1.2031134E-03
   3.00000  1.2456006E-03  2.1207736E-03  1.5011563E-03
   4.00000  1.6204866E-03  3.1197468E-03  2.0573057E-03
   5.00000  2.5296875E-03  5.8927303E-03  3.5324851E-03
   5.20000  2.8061923E-03  6.7774580E-03  3.9928060E-03
   5.40000  3.0865282E-03  7.6860559E-03  4.4613937E-03
   5.60000  3.3652085E-03  8.6007755E-03  4.9307020E-03
   5.80000  3.6472942E-03  9.5361778E-03  5.4098505E-03
   6.00000  3.9414216E-03  1.0516294E-02  5.9112620E-03
   6.20000  4.2564948E-03  1.1563943E-02  6.4450376E-03
   6.40000  4.6009357E-03  1.2698514E-02  7.0183305E-03
   6.60000  4.9826316E-03  1.3936024E-02  7.6358665E-03
   6.80000  5.4088934E-03  1.5289112E-02  8.3002427E-03
   7.00000  5.8862934E-03  1.6766617E-02  9.0120483E-03
   7.20000  6.4203956E-03  1.8373137E-02  9.7703925E-03
   7.40000  7.0154056E-03  2.0109121E-02  1.0574253E-02
   7.60000  7.6737450E-03  2.1971971E-02  1.1424421E-02
   7.80000  8.3955383E-03  2.3957912E-02  1.2325021E-02
   8.00000  9.1780392E-03  2.6063540E-02  1.3283166E-02
   8.20000  1.0015012E-02  2.8285596E-02  1.4305805E-02
   8.40000  1.0896084E-02  3.0618000E-02  1.5394354E-02
   8.60000  1.1806386E-02  3.3046889E-02  1.6539251E-02
   8.80000  1.2727031E-02  3.5546043E-02  1.7717168E-02
   9.00000  1.3637062E-02  3.8075651E-02  1.8893070E-02
   9.20000  1.4517215E-02  4.0586646E-02  2.0027935E-02
   9.40000  1.5354995E-02  4.3030276E-02  2.1090507E-02
   9.60000  1.6149165E-02  4.5368598E-02  2.2068182E-02
   9.80000  1.6911185E-02  4.7578841E-02  2.2970709E-02
   10.0000  1.7662504E-02  4.9646708E-02  2.3824032E-02
   10.2500  1.8626038E-02  5.1995638E-02  2.4866935E-02
   10.5000  1.9659669E-02  5.3985332E-02  2.5922629E-02
   10.7500  2.0793538E-02  5.5436099E-02  2.7005149E-02
   11.0000  2.2034111E-02  5.6122647E-02  2.8103956E-02
   11.2500  2.3362838E-02  5.5853970E-02  2.9198563E-02
   11.5000  2.4739828E-02  5.4561668E-02  3.0271800E-02
   11.7500  2.6112620E-02  5.2345214E-02  3.1315218E-02
   12.0000  2.7429400E-02  4.9445021E-02  3.2325171E-02
   12.2500  2.8650941E-02  4.6164249E-02  3.3295325E-02
   12.5000  2.9756201E-02  4.2787763E-02  3.4213515E-02
   12.7500  3.0741897E-02  3.9531762E-02  3.5063595E-02
   13.0000  3.1618689E-02  3.6530665E-02  3.5829561E-02
   13.2500  3.2407524E-02  3.3849226E-02  3.6500085E-02
   13.5000  3.3136020E-02  3.1503505E-02  3.7071868E-02
   13.7500  3.3832896E-02  2.9480077E-02  3.7550355E-02
   14.0000  3.4522277E-02  2.7750298E-02  3.7947952E-02
   14.2500  3.5220770E-02  2.6279923E-02  3.8281273E-02
   14.5000  3.5937131E-02  2.5034680E-02  3.8568348E-02
   14.7500  3.6673405E-02  2.3982903E-02  3.8825829E-02
   15.0000  3.7426461E-02  2.3096582E-02  3.9066519E-02
   15.2500  3.8189145E-02  2.2351623E-02  3.9297710E-02
   15.5000  3.8951036E-02  2.1727748E-02  3.9520557E-02
   15.7500  3.9699057E-02  2.1208191E-02  3.9730422E-02
   16.0000  4.0418061E-02  2.0779326E-02  3.9918011E-02
   16.2500  4.1091492E-02  2.0430233E-02  4.0071051E-02
   16.5000  4.1702120E-02  2.0152267E-02  4.0176287E-02
   16.7500  4.2232936E-02  1.9938619E-02  4.0221507E-02
   17.0000  4.2668214E-02  1.9783906E-02  4.0197353E-02
   17.2500  4.2994746E-02  1.9683813E-02  4.0098636E-02
   17.5000  4.3203135E-02  1.9634777E-02  3.9925012E-02
   17.7500  4.3288945E-02  1.9633763E-02  3.9680931E-02
   18.0000  4.3253480E-02  1.9678093E-02  3.9374954E-02
   18.2500  4.3103979E-02  1.9765352E-02  3.9018617E-02
   18.5000  4.2853139E-02  1.9893335E-02  3.8625106E-02
   18.7500  4.2518010E-02  2.0060038E-02  3.8207955E-02
   19.0000  4.2118439E-02  2.0263679E-02  3.7779950E-02
   19.2500  4.1675290E-02  2.0502742E-02  3.7352318E-02
   19.5000  4.1208693E-02  2.0776020E-02  3.6934197E-02
   19.7500  4.0736621E-02  2.1082606E-02  3.6532427E-02
   20.0000  4.0274138E-02  2.1421753E-02  3.6151695E-02
   21.0000  3.8730746E-02  2.3081995E-02  3.4886458E-02
   22.0000  3.7870326E-02  2.5172981E-02  3.4036957E-02
   23.0000  3.7488342E-02  2.7606721E-02  3.3473467E-02
   24.0000  3.7149289E-02  3.0206902E-02  3.3023889E-02
   25.0000  3.6470687E-02  3.2672368E-02  3.2548142E-02
   26.0000  3.5277245E-02  3.4633741E-02  3.1965035E-02
   27.0000  3.3645743E-02  3.5804989E-02  3.1259628E-02
   28.0000  3.1832486E-02  3.6117749E-02  3.0477557E-02
   29.0000  3.0125314E-02  3.5728161E-02  2.9708638E-02
   30.0000  2.8711343E-02  3.4901067E-02  2.9046944E-02
   31.0000  2.7624784E-02  3.3864173E-02  2.8533388E-02
   32.0000  2.6814413E-02  3.2760688E-02  2.8159882E-02
   33.0000  2.6210495E-02  3.1661732E-02  2.7893178E-02
   34.0000  2.5751471E-02  3.0590281E-02  2.7689634E-02
   35.0000  2.5390868E-02  2.9545356E-02  2.7504705E-02
   36.0000  2.5095505E-02  2.8521454E-02  2.7299693E-02
   37.0000  2.4841427E-02  2.7522430E-02  2.7048625E-02
   38.0000  2.4611625E-02  2.6570853E-02  2.6746556E-02
   39.0000  2.4399609E-02  2.5715281E-02  2.6419006E-02
   40.0000  2.4217155E-02  2.5028248E-02  2.6124026E-02
