    Energy   (100,001)      (010,001)      (001,110)   
  -25.0000  1.7124071E-04  1.8816690E-04  1.8436007E-04
  -24.0000  1.7718020E-04  1.9502256E-04  1.9083821E-04
  -23.0000  1.8350836E-04  2.0235804E-04  1.9775257E-04
  -22.0000  1.9026371E-04  2.1022458E-04  2.0514796E-04
  -21.0000  1.9748999E-04  2.1868093E-04  2.1307550E-04
  -20.0000  2.0523708E-04  2.2779472E-04  2.2159377E-04
  -19.0000  2.1356211E-04  2.3764423E-04  2.3077022E-04
  -18.0000  2.2253084E-04  2.4832055E-04  2.4068293E-04
  -17.0000  2.3221935E-04  2.5993028E-04  2.5142276E-04
  -16.0000  2.4271615E-04  2.7259895E-04  2.6309611E-04
  -15.0000  2.5412489E-04  2.8647542E-04  2.7582836E-04
  -14.0000  2.6656769E-04  3.0173749E-04  2.8976834E-04
  -13.0000  2.8018955E-04  3.1859922E-04  3.0509408E-04
  -12.0000  2.9516399E-04  3.3732067E-04  3.2202038E-04
  -11.0000  3.1170058E-04  3.5822079E-04  3.4080889E-04
  -10.0000  3.3005490E-04  3.8169501E-04  3.6178166E-04
  -9.00000  3.5054225E-04  4.0823950E-04  3.8533985E-04
  -8.00000  3.7355650E-04  4.3848518E-04  4.1198984E-04
  -7.00000  3.9959696E-04  4.7324669E-04  4.4238057E-04
  -6.00000  4.2930731E-04  5.1359422E-04  4.7735835E-04
  -5.00000  4.6353400E-04  5.6096221E-04  5.1804942E-04
  -4.00000  5.0341658E-04  6.1731921E-04  5.6598883E-04
  -3.00000  5.5053365E-04  6.8544376E-04  6.2332955E-04
  -2.00000  6.0715092E-04  7.6939484E-04  6.9319890E-04
  -1.00000  6.7667067E-04  8.7536359E-04  7.8034395E-04
   0.00000  7.6451602E-04  1.0133410E-03  8.9239452E-04
   1.00000  8.8007502E-04  1.2007468E-03  1.0426072E-03
   2.00000  1.0416925E-03  1.4716087E-03  1.2567732E-03
   3.00000  1.2928427E-03  1.9057333E-03  1.5949685E-03
   4.00000  1.7775743E-03  2.7619876E-03  2.2496344E-03
   5.00000  3.1363886E-03  5.1796952E-03  4.0534783E-03
   5.20000  3.5561565E-03  5.9413030E-03  4.6145151E-03
   5.40000  3.9692639E-03  6.7044682E-03  5.1738630E-03
   5.60000  4.3656628E-03  7.4470871E-03  5.7183536E-03
   5.80000  4.7543031E-03  8.1766822E-03  6.2616400E-03
   6.00000  5.1486737E-03  8.9091785E-03  6.8277544E-03
   6.20000  5.5603208E-03  9.6599440E-03  7.4423609E-03
   6.40000  5.9978110E-03  1.0442769E-02  8.1301882E-03
   6.60000  6.4670922E-03  1.1270556E-02  8.9146713E-03
   6.80000  6.9717142E-03  1.2155719E-02  9.8178266E-03
   7.00000  7.5126593E-03  1.3110123E-02  1.0859236E-02
   7.20000  8.0879317E-03  1.4144663E-02  1.2053185E-02
   7.40000  8.6922226E-03  1.5268564E-02  1.3403186E-02
   7.60000  9.3170685E-03  1.6488649E-02  1.4894032E-02
   7.80000  9.9517526E-03  1.7809074E-02  1.6483311E-02
   8.00000  1.0584791E-02  1.9231920E-02  1.8096913E-02
   8.20000  1.1205631E-02  2.0758801E-02  1.9635440E-02
   8.40000  1.1806196E-02  2.2393585E-02  2.0995521E-02
   8.60000  1.2381924E-02  2.4145424E-02  2.2099449E-02
   8.80000  1.2932096E-02  2.6030412E-02  2.2917045E-02
   9.00000  1.3459490E-02  2.8070611E-02  2.3467246E-02
   9.20000  1.3969788E-02  3.0290380E-02  2.3801857E-02
   9.40000  1.4471165E-02  3.2710487E-02  2.3984550E-02
   9.60000  1.4974089E-02  3.5340132E-02  2.4076086E-02
   9.80000  1.5490993E-02  3.8166828E-02  2.4128282E-02
   10.0000  1.6035363E-02  4.1144961E-02  2.4183423E-02
   10.2500  1.6774070E-02  4.4941276E-02  2.4306821E-02
   10.5000  1.7595890E-02  4.8562876E-02  2.4532840E-02
   10.7500  1.8510867E-02  5.1669485E-02  2.4883857E-02
   11.0000  1.9515229E-02  5.3928080E-02  2.5358561E-02
   11.2500  2.0589536E-02  5.5106795E-02  2.5937070E-02
   11.5000  2.1700531E-02  5.5142690E-02  2.6589068E-02
   11.7500  2.2806169E-02  5.4144914E-02  2.7282274E-02
   12.0000  2.3863350E-02  5.2335809E-02  2.7989042E-02
   12.2500  2.4836788E-02  4.9974219E-02  2.8689409E-02
   12.5000  2.5705959E-02  4.7300246E-02  2.9368173E-02
   12.7500  2.6468044E-02  4.4508350E-02  3.0009884E-02
   13.0000  2.7136480E-02  4.1740562E-02  3.0599786E-02
   13.2500  2.7735728E-02  3.9091250E-02  3.1128040E-02
   13.5000  2.8294106E-02  3.6617017E-02  3.1591992E-02
   13.7500  2.8837405E-02  3.4347327E-02  3.1996041E-02
   14.0000  2.9385174E-02  3.2293390E-02  3.2350240E-02
   14.2500  2.9949603E-02  3.0454750E-02  3.2668424E-02
   14.5000  3.0536053E-02  2.8823868E-02  3.2966283E-02
   14.7500  3.1144404E-02  2.7389192E-02  3.3259542E-02
   15.0000  3.1770718E-02  2.6137116E-02  3.3562407E-02
   15.2500  3.2408848E-02  2.5053223E-02  3.3886336E-02
   15.5000  3.3051803E-02  2.4123058E-02  3.4239193E-02
   15.7500  3.3692729E-02  2.3332617E-02  3.4624756E-02
   16.0000  3.4325516E-02  2.2668642E-02  3.5042552E-02
   16.2500  3.4945025E-02  2.2118797E-02  3.5487984E-02
   16.5000  3.5547045E-02  2.1671757E-02  3.5952723E-02
   16.7500  3.6128034E-02  2.1317239E-02  3.6425336E-02
   17.0000  3.6684790E-02  2.1045989E-02  3.6892127E-02
   17.2500  3.7214112E-02  2.0849737E-02  3.7338159E-02
   17.5000  3.7712563E-02  2.0721143E-02  3.7748391E-02
   17.7500  3.8176352E-02  2.0653722E-02  3.8108849E-02
   18.0000  3.8601380E-02  2.0641764E-02  3.8407713E-02
   18.2500  3.8983414E-02  2.0680260E-02  3.8636201E-02
   18.5000  3.9318386E-02  2.0764816E-02  3.8789133E-02
   18.7500  3.9602751E-02  2.0891593E-02  3.8865102E-02
   19.0000  3.9833846E-02  2.1057250E-02  3.8866246E-02
   19.2500  4.0010217E-02  2.1258917E-02  3.8797662E-02
   19.5000  4.0131848E-02  2.1494170E-02  3.8666574E-02
   19.7500  4.0200309E-02  2.1760982E-02  3.8481462E-02
   20.0000  4.0218835E-02  2.2057532E-02  3.8251414E-02
   21.0000  3.9908046E-02  2.3498497E-02  3.7068320E-02
   22.0000  3.9293252E-02  2.5247394E-02  3.5801030E-02
   23.0000  3.8669972E-02  2.7187134E-02  3.4639189E-02
   24.0000  3.8073186E-02  2.9192960E-02  3.3583166E-02
   25.0000  3.7345128E-02  3.1126719E-02  3.2580800E-02
   26.0000  3.6335542E-02  3.2837417E-02  3.1599201E-02
   27.0000  3.5049864E-02  3.4169064E-02  3.0643566E-02
   28.0000  3.3617923E-02  3.4997408E-02  2.9746715E-02
   29.0000  3.2175833E-02  3.5282825E-02  2.8950236E-02
   30.0000  3.0823255E-02  3.5097584E-02  2.8292888E-02
   31.0000  2.9632030E-02  3.4590918E-02  2.7798831E-02
   32.0000  2.8630430E-02  3.3902043E-02  2.7459037E-02
   33.0000  2.7812266E-02  3.3124833E-02  2.7244535E-02
   34.0000  2.7151698E-02  3.2309519E-02  2.7121366E-02
   35.0000  2.6612764E-02  3.1473833E-02  2.7055452E-02
   36.0000  2.6158325E-02  3.0619690E-02  2.7015581E-02
   37.0000  2.5757205E-02  2.9750709E-02  2.6976664E-02
   38.0000  2.5390135E-02  2.8887901E-02  2.6923335E-02
   39.0000  2.5056435E-02  2.8083339E-02  2.6853929E-02
   40.0000  2.4778329E-02  2.7422640E-02  2.6782961E-02
