    Energy   (100,001)      (010,001)      (001,110)   
  -25.0000  1.7266357E-04  1.8037600E-04  1.7780398E-04
  -24.0000  1.7884719E-04  1.8732632E-04  1.8439681E-04
  -23.0000  1.8544780E-04  1.9478378E-04  1.9145227E-04
  -22.0000  1.9250781E-04  2.0280437E-04  1.9901951E-04
  -21.0000  2.0007548E-04  2.1145249E-04  2.0715482E-04
  -20.0000  2.0820598E-04  2.2080259E-04  2.1592295E-04
  -19.0000  2.1696267E-04  2.3094120E-04  2.2539875E-04
  -18.0000  2.2641865E-04  2.4196941E-04  2.3566926E-04
  -17.0000  2.3665869E-04  2.5400607E-04  2.4683621E-04
  -16.0000  2.4778166E-04  2.6719183E-04  2.5901929E-04
  -15.0000  2.5990358E-04  2.8169425E-04  2.7236030E-04
  -14.0000  2.7316147E-04  2.9771457E-04  2.8702845E-04
  -13.0000  2.8771831E-04  3.1549646E-04  3.0322733E-04
  -12.0000  3.0376952E-04  3.3533767E-04  3.2120408E-04
  -11.0000  3.2155138E-04  3.5760576E-04  3.4126174E-04
  -10.0000  3.4135237E-04  3.8275957E-04  3.6377597E-04
  -9.00000  3.6352840E-04  4.1137899E-04  3.8921829E-04
  -8.00000  3.8852388E-04  4.4420730E-04  4.1818878E-04
  -7.00000  4.1690125E-04  4.8221227E-04  4.5146340E-04
  -6.00000  4.4938331E-04  5.2667690E-04  4.9006392E-04
  -5.00000  4.8691573E-04  5.7933775E-04  5.3536453E-04
  -4.00000  5.3076194E-04  6.4260310E-04  5.8925982E-04
  -3.00000  5.8265268E-04  7.1991053E-04  6.5444052E-04
  -2.00000  6.4503274E-04  8.1634183E-04  7.3486835E-04
  -1.00000  7.2149195E-04  9.3974486E-04  8.3664456E-04
   0.00000  8.1757643E-04  1.1029425E-03  9.6972348E-04
   1.00000  9.4248048E-04  1.3285510E-03  1.1516486E-03
   2.00000  1.1131372E-03  1.6611319E-03  1.4169065E-03
   3.00000  1.3666427E-03  2.2053832E-03  1.8456829E-03
   4.00000  1.8148323E-03  3.2970937E-03  2.6865293E-03
   5.00000  2.9221611E-03  6.3999195E-03  5.0157057E-03
   5.20000  3.2581704E-03  7.3980990E-03  5.8216680E-03
   5.40000  3.5990325E-03  8.4237703E-03  6.7143659E-03
   5.60000  3.9416692E-03  9.4535583E-03  7.6734484E-03
   5.80000  4.2949284E-03  1.0497593E-02  8.6868077E-03
   6.00000  4.6679726E-03  1.1575052E-02  9.7478290E-03
   6.20000  5.0658051E-03  1.2704942E-02  1.0859768E-02
   6.40000  5.4905597E-03  1.3904751E-02  1.2038513E-02
   6.60000  5.9444589E-03  1.5188518E-02  1.3308024E-02
   6.80000  6.4318784E-03  1.6563901E-02  1.4690366E-02
   7.00000  6.9597959E-03  1.8031327E-02  1.6194109E-02
   7.20000  7.5367951E-03  1.9587708E-02  1.7804460E-02
   7.40000  8.1711925E-03  2.1234649E-02  1.9478896E-02
   7.60000  8.8693460E-03  2.2987811E-02  2.1150489E-02
   7.80000  9.6351860E-03  2.4880957E-02  2.2735857E-02
   8.00000  1.0471042E-02  2.6959622E-02  2.4142589E-02
   8.20000  1.1378813E-02  2.9266338E-02  2.5278870E-02
   8.40000  1.2360716E-02  3.1825159E-02  2.6075206E-02
   8.60000  1.3419877E-02  3.4632678E-02  2.6515700E-02
   8.80000  1.4561184E-02  3.7657547E-02  2.6654679E-02
   9.00000  1.5791856E-02  4.0845345E-02  2.6599399E-02
   9.20000  1.7120823E-02  4.4122716E-02  2.6470306E-02
   9.40000  1.8556731E-02  4.7395665E-02  2.6365948E-02
   9.60000  2.0105099E-02  5.0542329E-02  2.6347047E-02
   9.80000  2.1765170E-02  5.3407741E-02  2.6437497E-02
   10.0000  2.3526664E-02  5.5811091E-02  2.6634382E-02
   10.2500  2.5834961E-02  5.7892814E-02  2.7003505E-02
   10.5000  2.8189458E-02  5.8716753E-02  2.7472597E-02
   10.7500  3.0485785E-02  5.8226339E-02  2.8011155E-02
   11.0000  3.2604480E-02  5.6575985E-02  2.8600309E-02
   11.2500  3.4428487E-02  5.4049919E-02  2.9228995E-02
   11.5000  3.5864019E-02  5.0961533E-02  2.9884276E-02
   11.7500  3.6863053E-02  4.7590832E-02  3.0541859E-02
   12.0000  3.7434678E-02  4.4160654E-02  3.1169401E-02
   12.2500  3.7637954E-02  4.0833059E-02  3.1737607E-02
   12.5000  3.7562327E-02  3.7714529E-02  3.2228413E-02
   12.7500  3.7306307E-02  3.4866019E-02  3.2636444E-02
   13.0000  3.6961262E-02  3.2314788E-02  3.2966268E-02
   13.2500  3.6601678E-02  3.0064618E-02  3.3229309E-02
   13.5000  3.6281421E-02  2.8103879E-02  3.3441103E-02
   13.7500  3.6034602E-02  2.6411612E-02  3.3619045E-02
   14.0000  3.5878728E-02  2.4962003E-02  3.3780565E-02
   14.2500  3.5818279E-02  2.3727794E-02  3.3941448E-02
   14.5000  3.5847944E-02  2.2682682E-02  3.4114452E-02
   14.7500  3.5955333E-02  2.1802765E-02  3.4308425E-02
   15.0000  3.6123233E-02  2.1067211E-02  3.4527948E-02
   15.2500  3.6331538E-02  2.0458383E-02  3.4773418E-02
   15.5000  3.6558951E-02  1.9961621E-02  3.5041450E-02
   15.7500  3.6784519E-02  1.9564855E-02  3.5325492E-02
   16.0000  3.6988989E-02  1.9258157E-02  3.5616593E-02
   16.2500  3.7155928E-02  1.9033311E-02  3.5904263E-02
   16.5000  3.7272539E-02  1.8883440E-02  3.6177367E-02
   16.7500  3.7330104E-02  1.8802712E-02  3.6425013E-02
   17.0000  3.7324081E-02  1.8786116E-02  3.6637371E-02
   17.2500  3.7253883E-02  1.8829306E-02  3.6806360E-02
   17.5000  3.7122432E-02  1.8928498E-02  3.6926161E-02
   17.7500  3.6935565E-02  1.9080384E-02  3.6993519E-02
   18.0000  3.6701375E-02  1.9282086E-02  3.7007807E-02
   18.2500  3.6429515E-02  1.9531099E-02  3.6970877E-02
   18.5000  3.6130528E-02  1.9825249E-02  3.6886702E-02
   18.7500  3.5815200E-02  2.0162662E-02  3.6760880E-02
   19.0000  3.5493962E-02  2.0541732E-02  3.6600040E-02
   19.2500  3.5176346E-02  2.0961116E-02  3.6411214E-02
   19.5000  3.4870529E-02  2.1419719E-02  3.6201252E-02
   19.7500  3.4583002E-02  2.1916606E-02  3.5976352E-02
   20.0000  3.4318478E-02  2.2450672E-02  3.5741844E-02
   21.0000  3.3536190E-02  2.4907447E-02  3.4789684E-02
   22.0000  3.3158926E-02  2.7691016E-02  3.3914025E-02
   23.0000  3.2938391E-02  3.0472036E-02  3.3102806E-02
   24.0000  3.2610849E-02  3.2850786E-02  3.2283657E-02
   25.0000  3.2130462E-02  3.4488629E-02  3.1402671E-02
   26.0000  3.1639965E-02  3.5240026E-02  3.0452551E-02
   27.0000  3.1226125E-02  3.5181462E-02  2.9475372E-02
   28.0000  3.0807410E-02  3.4535826E-02  2.8553272E-02
   29.0000  3.0261104E-02  3.3561913E-02  2.7774469E-02
   30.0000  2.9559587E-02  3.2458249E-02  2.7176924E-02
   31.0000  2.8777717E-02  3.1347468E-02  2.6745115E-02
   32.0000  2.8013692E-02  3.0292360E-02  2.6433605E-02
   33.0000  2.7327846E-02  2.9311086E-02  2.6188541E-02
   34.0000  2.6733545E-02  2.8394016E-02  2.5961301E-02
   35.0000  2.6213994E-02  2.7519758E-02  2.5713744E-02
   36.0000  2.5741641E-02  2.6668654E-02  2.5420462E-02
   37.0000  2.5292933E-02  2.5833334E-02  2.5072183E-02
   38.0000  2.4858870E-02  2.5026871E-02  2.4680740E-02
   39.0000  2.4453566E-02  2.4290114E-02  2.4284145E-02
   40.0000  2.4115713E-02  2.3690586E-02  2.3943251E-02
