    Energy   (100,001)      (010,001)      (001,110)   
  -25.0000  1.7059231E-04  1.8095238E-04  1.8069281E-04
  -24.0000  1.7657076E-04  1.8813492E-04  1.8702772E-04
  -23.0000  1.8294101E-04  1.9585382E-04  1.9378428E-04
  -22.0000  1.8974167E-04  2.0416941E-04  2.0100502E-04
  -21.0000  1.9701647E-04  2.1315125E-04  2.0873835E-04
  -20.0000  2.0481524E-04  2.2287993E-04  2.1703956E-04
  -19.0000  2.1319491E-04  2.3344931E-04  2.2597209E-04
  -18.0000  2.2222087E-04  2.4496932E-04  2.3560913E-04
  -17.0000  2.3196859E-04  2.5756954E-04  2.4603552E-04
  -16.0000  2.4252560E-04  2.7140366E-04  2.5735017E-04
  -15.0000  2.5399404E-04  2.8665535E-04  2.6966910E-04
  -14.0000  2.6649381E-04  3.0354579E-04  2.8312933E-04
  -13.0000  2.8016662E-04  3.2234358E-04  2.9789384E-04
  -12.0000  2.9518120E-04  3.4337801E-04  3.1415807E-04
  -11.0000  3.1174008E-04  3.6705688E-04  3.3215846E-04
  -10.0000  3.3008859E-04  3.9389101E-04  3.5218390E-04
  -9.00000  3.5052688E-04  4.2452840E-04  3.7459131E-04
  -8.00000  3.7342638E-04  4.5980271E-04  3.9982719E-04
  -7.00000  3.9925268E-04  5.0080377E-04  4.2845824E-04
  -6.00000  4.2859805E-04  5.4898235E-04  4.6121576E-04
  -5.00000  4.6222907E-04  6.0631061E-04  4.9906214E-04
  -4.00000  5.0115837E-04  6.7553568E-04  5.4329397E-04
  -3.00000  5.4675706E-04  7.6059652E-04  5.9570906E-04
  -2.00000  6.0093939E-04  8.6734218E-04  6.5889225E-04
  -1.00000  6.6648513E-04  1.0048439E-03  7.3673980E-04
   0.00000  7.4764925E-04  1.1879794E-03  8.3551474E-04
   1.00000  8.5144872E-04  1.4430635E-03  9.6625554E-04
   2.00000  9.9084443E-04  1.8220090E-03  1.1513462E-03
   3.00000  1.1947452E-03  2.4466848E-03  1.4478472E-03
   4.00000  1.5538971E-03  3.7072355E-03  2.0706535E-03
   5.00000  2.4621487E-03  7.2815174E-03  3.9941909E-03
   5.20000  2.7373862E-03  8.4038479E-03  4.4725605E-03
   5.40000  3.0089289E-03  9.5350342E-03  4.8209318E-03
   5.60000  3.2676226E-03  1.0658153E-02  5.0466294E-03
   5.80000  3.5154321E-03  1.1805591E-02  5.2025913E-03
   6.00000  3.7582256E-03  1.3023021E-02  5.3386850E-03
   6.20000  4.0026985E-03  1.4351733E-02  5.4872375E-03
   6.40000  4.2557606E-03  1.5823889E-02  5.6661073E-03
   6.60000  4.5242185E-03  1.7461442E-02  5.8846002E-03
   6.80000  4.8141929E-03  1.9275317E-02  6.1479443E-03
   7.00000  5.1304748E-03  2.1265122E-02  6.4600765E-03
   7.20000  5.4763039E-03  2.3421753E-02  6.8252712E-03
   7.40000  5.8539970E-03  2.5735257E-02  7.2490620E-03
   7.60000  6.2663313E-03  2.8206783E-02  7.7387227E-03
   7.80000  6.7178697E-03  3.0858367E-02  8.3033714E-03
   8.00000  7.2153166E-03  3.3733629E-02  8.9535722E-03
   8.20000  7.7667394E-03  3.6887636E-02  9.7002584E-03
   8.40000  8.3801979E-03  4.0369355E-02  1.0552880E-02
   8.60000  9.0623632E-03  4.4200063E-02  1.1516876E-02
   8.80000  9.8174256E-03  4.8348481E-02  1.2590922E-02
   9.00000  1.0646486E-02  5.2703796E-02  1.3764985E-02
   9.20000  1.1547726E-02  5.7053783E-02  1.5020773E-02
   9.40000  1.2517572E-02  6.1084830E-02  1.6335831E-02
   9.60000  1.3552500E-02  6.4422937E-02  1.7690524E-02
   9.80000  1.4650478E-02  6.6714177E-02  1.9074605E-02
   10.0000  1.5810932E-02  6.7710685E-02  2.0489629E-02
   10.2500  1.7347327E-02  6.7027000E-02  2.2317117E-02
   10.5000  1.8968688E-02  6.4437214E-02  2.4226585E-02
   10.7500  2.0650618E-02  6.0495447E-02  2.6215705E-02
   11.0000  2.2355494E-02  5.5846772E-02  2.8253143E-02
   11.2500  2.4037318E-02  5.1033192E-02  3.0283354E-02
   11.5000  2.5648702E-02  4.6415439E-02  3.2237124E-02
   11.7500  2.7148434E-02  4.2186481E-02  3.4042649E-02
   12.0000  2.8508134E-02  3.8421472E-02  3.5635554E-02
   12.2500  2.9716077E-02  3.5126727E-02  3.6966656E-02
   12.5000  3.0776682E-02  3.2274485E-02  3.8006082E-02
   12.7500  3.1706629E-02  2.9823295E-02  3.8744929E-02
   13.0000  3.2530163E-02  2.7728070E-02  3.9196553E-02
   13.2500  3.3274331E-02  2.5944530E-02  3.9395850E-02
   13.5000  3.3964024E-02  2.4431623E-02  3.9394253E-02
   13.7500  3.4618975E-02  2.3153058E-02  3.9251548E-02
   14.0000  3.5253881E-02  2.2077664E-02  3.9027757E-02
   14.2500  3.5879135E-02  2.1178880E-02  3.8777021E-02
   14.5000  3.6500839E-02  2.0434106E-02  3.8543719E-02
   14.7500  3.7120628E-02  1.9824172E-02  3.8360580E-02
   15.0000  3.7735721E-02  1.9332907E-02  3.8248354E-02
   15.2500  3.8339251E-02  1.8946746E-02  3.8216539E-02
   15.5000  3.8920830E-02  1.8654351E-02  3.8264679E-02
   15.7500  3.9467352E-02  1.8446267E-02  3.8383952E-02
   16.0000  3.9964013E-02  1.8314604E-02  3.8558883E-02
   16.2500  4.0395571E-02  1.8252755E-02  3.8769175E-02
   16.5000  4.0747759E-02  1.8255154E-02  3.8991663E-02
   16.7500  4.1008772E-02  1.8317061E-02  3.9202377E-02
   17.0000  4.1170633E-02  1.8434375E-02  3.9378601E-02
   17.2500  4.1230225E-02  1.8603478E-02  3.9500793E-02
   17.5000  4.1189817E-02  1.8821098E-02  3.9554113E-02
   17.7500  4.1056978E-02  1.9084206E-02  3.9529397E-02
   18.0000  4.0843890E-02  1.9389934E-02  3.9423441E-02
   18.2500  4.0566178E-02  1.9735526E-02  3.9238603E-02
   18.5000  4.0241483E-02  2.0118312E-02  3.8981861E-02
   18.7500  3.9887978E-02  2.0535710E-02  3.8663513E-02
   19.0000  3.9523035E-02  2.0985257E-02  3.8295748E-02
   19.2500  3.9162146E-02  2.1464668E-02  3.7891276E-02
   19.5000  3.8818162E-02  2.1971911E-02  3.7462165E-02
   19.7500  3.8500884E-02  2.2505193E-02  3.7019024E-02
   20.0000  3.8217072E-02  2.3062707E-02  3.6570737E-02
   21.0000  3.7474049E-02  2.5476080E-02  3.4861566E-02
   22.0000  3.7316266E-02  2.8009169E-02  3.3466321E-02
   23.0000  3.7463534E-02  3.0415133E-02  3.2410984E-02
   24.0000  3.7510201E-02  3.2419720E-02  3.1611872E-02
   25.0000  3.7086165E-02  3.3788004E-02  3.0967011E-02
   26.0000  3.6045540E-02  3.4417642E-02  3.0399580E-02
   27.0000  3.4545816E-02  3.4371204E-02  2.9885971E-02
   28.0000  3.2909338E-02  3.3819660E-02  2.9453084E-02
   29.0000  3.1410173E-02  3.2953112E-02  2.9141811E-02
   30.0000  3.0174081E-02  3.1928841E-02  2.8970944E-02
   31.0000  2.9201656E-02  3.0856257E-02  2.8922362E-02
   32.0000  2.8436105E-02  2.9785928E-02  2.8942614E-02
   33.0000  2.7812102E-02  2.8733803E-02  2.8967495E-02
   34.0000  2.7273142E-02  2.7705389E-02  2.8940110E-02
   35.0000  2.6773884E-02  2.6704535E-02  2.8816400E-02
   36.0000  2.6279656E-02  2.5736458E-02  2.8568143E-02
   37.0000  2.5768490E-02  2.4810543E-02  2.8187382E-02
   38.0000  2.5238804E-02  2.3946324E-02  2.7694235E-02
   39.0000  2.4721100E-02  2.3182061E-02  2.7149244E-02
   40.0000  2.4279696E-02  2.2573992E-02  2.6658506E-02
