    Energy   (100,001)      (010,001)      (001,110)   
  -25.0000  1.7780678E-04  1.7636817E-04  1.7588988E-04
  -24.0000  1.8439768E-04  1.8324198E-04  1.8268126E-04
  -23.0000  1.9145154E-04  1.9062017E-04  1.8996570E-04
  -22.0000  1.9901745E-04  1.9855857E-04  1.9779706E-04
  -21.0000  2.0715159E-04  2.0712140E-04  2.0623720E-04
  -20.0000  2.1591853E-04  2.1638291E-04  2.1535750E-04
  -19.0000  2.2539283E-04  2.2642940E-04  2.2524074E-04
  -18.0000  2.3566106E-04  2.3736170E-04  2.3598342E-04
  -17.0000  2.4682426E-04  2.4929834E-04  2.4769874E-04
  -16.0000  2.5900109E-04  2.6237957E-04  2.6052032E-04
  -15.0000  2.7233182E-04  2.7677251E-04  2.7460698E-04
  -14.0000  2.8698338E-04  2.9267778E-04  2.9014885E-04
  -13.0000  3.0315605E-04  3.1033825E-04  3.0737553E-04
  -12.0000  3.2109209E-04  3.3005059E-04  3.2656668E-04
  -11.0000  3.4108728E-04  3.5218084E-04  3.4806639E-04
  -10.0000  3.6350648E-04  3.7718563E-04  3.7230270E-04
  -9.00000  3.8880496E-04  4.0564157E-04  3.9981466E-04
  -8.00000  4.1755810E-04  4.3828689E-04  4.3129060E-04
  -7.00000  4.5050369E-04  4.7608137E-04  4.6762329E-04
  -6.00000  4.8860362E-04  5.2029498E-04  5.0999168E-04
  -5.00000  5.3313606E-04  5.7264238E-04  5.5998519E-04
  -4.00000  5.8583781E-04  6.3549369E-04  6.1979942E-04
  -3.00000  6.4913232E-04  7.1221755E-04  6.9255628E-04
  -2.00000  7.2651169E-04  8.0776528E-04  7.8285343E-04
  -1.00000  8.2321328E-04  9.2972439E-04  8.9776412E-04
   0.00000  9.4750716E-04  1.0903622E-03  1.0487976E-03
   1.00000  1.1133916E-03  1.3110018E-03  1.2561424E-03
   2.00000  1.3470562E-03  1.6328060E-03  1.5592082E-03
   3.00000  1.7059522E-03  2.1497696E-03  2.0488276E-03
   4.00000  2.3579441E-03  3.1522369E-03  3.0044408E-03
   5.00000  3.9827104E-03  5.8727754E-03  5.6124439E-03
   5.20000  4.5019687E-03  6.7478451E-03  6.4875762E-03
   5.40000  5.0563883E-03  7.6605328E-03  7.4422085E-03
   5.60000  5.6414006E-03  8.5932861E-03  8.4690917E-03
   5.80000  6.2681830E-03  9.5537964E-03  9.5805803E-03
   6.00000  6.9551891E-03  1.0553657E-02  1.0791480E-02
   6.20000  7.7245446E-03  1.1599277E-02  1.2110344E-02
   6.40000  8.6008011E-03  1.2693366E-02  1.3538515E-02
   6.60000  9.6080100E-03  1.3841798E-02  1.5072280E-02
   6.80000  1.0762955E-02  1.5061044E-02  1.6702342E-02
   7.00000  1.2064475E-02  1.6381389E-02  1.8405944E-02
   7.20000  1.3481976E-02  1.7844444E-02  2.0135897E-02
   7.40000  1.4951574E-02  1.9498000E-02  2.1822250E-02
   7.60000  1.6391810E-02  2.1392058E-02  2.3400118E-02
   7.80000  1.7740547E-02  2.3577548E-02  2.4852039E-02
   8.00000  1.8990152E-02  2.6107292E-02  2.6226960E-02
   8.20000  2.0191136E-02  2.9036852E-02  2.7612648E-02
   8.40000  2.1423738E-02  3.2421020E-02  2.9084517E-02
   8.60000  2.2763350E-02  3.6302238E-02  3.0669131E-02
   8.80000  2.4258972E-02  4.0689377E-02  3.2335385E-02
   9.00000  2.5925563E-02  4.5527506E-02  3.4004837E-02
   9.20000  2.7744312E-02  5.0662422E-02  3.5572731E-02
   9.40000  2.9667280E-02  5.5810714E-02  3.6937344E-02
   9.60000  3.1625249E-02  6.0557063E-02  3.8030961E-02
   9.80000  3.3537230E-02  6.4405567E-02  3.8837618E-02
   10.0000  3.5319431E-02  6.6893457E-02  3.9387352E-02
   10.2500  3.7246473E-02  6.7672269E-02  3.9795330E-02
   10.5000  3.8731880E-02  6.5907547E-02  3.9989720E-02
   10.7500  3.9724420E-02  6.2190675E-02  4.0041234E-02
   11.0000  4.0250723E-02  5.7363502E-02  3.9979324E-02
   11.2500  4.0399197E-02  5.2188283E-02  3.9805354E-02
   11.5000  4.0285980E-02  4.7186106E-02  3.9510857E-02
   11.7500  4.0021250E-02  4.2634517E-02  3.9090474E-02
   12.0000  3.9688808E-02  3.8636442E-02  3.8550897E-02
   12.2500  3.9341370E-02  3.5193596E-02  3.7915769E-02
   12.5000  3.9006085E-02  3.2259826E-02  3.7223714E-02
   12.7500  3.8693282E-02  2.9772846E-02  3.6519786E-02
   13.0000  3.8404436E-02  2.7669956E-02  3.5845702E-02
   13.2500  3.8137978E-02  2.5894104E-02  3.5234043E-02
   13.5000  3.7892301E-02  2.4395484E-02  3.4706688E-02
   13.7500  3.7666016E-02  2.3131779E-02  3.4275981E-02
   14.0000  3.7457025E-02  2.2067898E-02  3.3946915E-02
   14.2500  3.7262192E-02  2.1175081E-02  3.3718706E-02
   14.5000  3.7077595E-02  2.0429748E-02  3.3585648E-02
   14.7500  3.6898754E-02  1.9812526E-02  3.3537771E-02
   15.0000  3.6720746E-02  1.9307535E-02  3.3561526E-02
   15.2500  3.6538342E-02  1.8901828E-02  3.3640532E-02
   15.5000  3.6346278E-02  1.8584926E-02  3.3756464E-02
   15.7500  3.6139676E-02  1.8348407E-02  3.3890126E-02
   16.0000  3.5914569E-02  1.8185544E-02  3.4022725E-02
   16.2500  3.5668474E-02  1.8090960E-02  3.4137215E-02
   16.5000  3.5400875E-02  1.8060335E-02  3.4219561E-02
   16.7500  3.5113521E-02  1.8090129E-02  3.4259682E-02
   17.0000  3.4810455E-02  1.8177347E-02  3.4251944E-02
   17.2500  3.4497742E-02  1.8319345E-02  3.4195109E-02
   17.5000  3.4182955E-02  1.8513675E-02  3.4091792E-02
   17.7500  3.3874478E-02  1.8757973E-02  3.3947578E-02
   18.0000  3.3580778E-02  1.9049890E-02  3.3769956E-02
   18.2500  3.3309718E-02  1.9387047E-02  3.3567289E-02
   18.5000  3.3068001E-02  1.9767028E-02  3.3347912E-02
   18.7500  3.2860770E-02  2.0187387E-02  3.3119452E-02
   19.0000  3.2691371E-02  2.0645690E-02  3.2888379E-02
   19.2500  3.2561255E-02  2.1139591E-02  3.2659741E-02
   19.5000  3.2469969E-02  2.1666917E-02  3.2437071E-02
   19.7500  3.2415181E-02  2.2225674E-02  3.2222420E-02
   20.0000  3.2392667E-02  2.2813798E-02  3.2016516E-02
   21.0000  3.2479343E-02  2.5393778E-02  3.1265483E-02
   22.0000  3.2407179E-02  2.8147751E-02  3.0543535E-02
   23.0000  3.1686869E-02  3.0811125E-02  2.9722417E-02
   24.0000  3.0313912E-02  3.3065561E-02  2.8769033E-02
   25.0000  2.8766317E-02  3.4603472E-02  2.7773663E-02
   26.0000  2.7475098E-02  3.5311839E-02  2.6858335E-02
   27.0000  2.6534481E-02  3.5270898E-02  2.6103208E-02
   28.0000  2.5846387E-02  3.4669042E-02  2.5541287E-02
   29.0000  2.5314602E-02  3.3718809E-02  2.5174141E-02
   30.0000  2.4890457E-02  3.2597765E-02  2.4970712E-02
   31.0000  2.4547077E-02  3.1425560E-02  2.4868882E-02
   32.0000  2.4262309E-02  3.0267019E-02  2.4793967E-02
   33.0000  2.4019019E-02  2.9147151E-02  2.4679515E-02
   34.0000  2.3810863E-02  2.8068250E-02  2.4479110E-02
   35.0000  2.3644586E-02  2.7024210E-02  2.4171585E-02
   36.0000  2.3533643E-02  2.6010858E-02  2.3764864E-02
   37.0000  2.3484434E-02  2.5033214E-02  2.3297879E-02
   38.0000  2.3485394E-02  2.4111852E-02  2.2834123E-02
   39.0000  2.3510496E-02  2.3289938E-02  2.2439979E-02
   40.0000  2.3535088E-02  2.2631981E-02  2.2152347E-02
