    Energy   (100,001)      (010,001)      (001,110)   
  -25.0000  1.6953471E-04  1.8072903E-04  1.8210263E-04
  -24.0000  1.7541212E-04  1.8776473E-04  1.8853523E-04
  -23.0000  1.8167306E-04  1.9531692E-04  1.9540139E-04
  -22.0000  1.8835534E-04  2.0344280E-04  2.0274557E-04
  -21.0000  1.9550185E-04  2.1220821E-04  2.1061846E-04
  -20.0000  2.0316147E-04  2.2168924E-04  2.1907812E-04
  -19.0000  2.1139010E-04  2.3197436E-04  2.2819141E-04
  -18.0000  2.2025203E-04  2.4316694E-04  2.3803562E-04
  -17.0000  2.2982155E-04  2.5538854E-04  2.4870068E-04
  -16.0000  2.4018494E-04  2.6878299E-04  2.6029183E-04
  -15.0000  2.5144309E-04  2.8352171E-04  2.7293300E-04
  -14.0000  2.6371468E-04  2.9981058E-04  2.8677117E-04
  -13.0000  2.7714034E-04  3.1789887E-04  3.0198207E-04
  -12.0000  2.9188803E-04  3.3809123E-04  3.1877755E-04
  -11.0000  3.0816011E-04  3.6076372E-04  3.3741542E-04
  -10.0000  3.2620277E-04  3.8638573E-04  3.5821283E-04
  -9.00000  3.4631885E-04  4.1555055E-04  3.8156453E-04
  -8.00000  3.6888553E-04  4.4901849E-04  4.0796850E-04
  -7.00000  3.9437936E-04  4.8777944E-04  4.3806274E-04
  -6.00000  4.2341249E-04  5.3314558E-04  4.7267928E-04
  -5.00000  4.5678679E-04  5.8689285E-04  5.1292610E-04
  -4.00000  4.9557757E-04  6.5148414E-04  5.6031577E-04
  -3.00000  5.4126856E-04  7.3043554E-04  6.1697651E-04
  -2.00000  5.9598175E-04  8.2894737E-04  6.8601718E-04
  -1.00000  6.6289527E-04  9.5505899E-04  7.7220231E-04
   0.00000  7.4707217E-04  1.1219345E-03  8.8331318E-04
   1.00000  8.5730653E-04  1.3528905E-03  1.0332301E-03
   2.00000  1.0109627E-03  1.6942477E-03  1.2501457E-03
   3.00000  1.2501201E-03  2.2565880E-03  1.6044114E-03
   4.00000  1.7196788E-03  3.4050749E-03  2.3452986E-03
   5.00000  3.0813114E-03  6.7660462E-03  4.6362087E-03
   5.20000  3.4941982E-03  7.8285982E-03  5.3403654E-03
   5.40000  3.8845298E-03  8.8828217E-03  5.9983363E-03
   5.60000  4.2380324E-03  9.8914049E-03  6.5743691E-03
   5.80000  4.5626741E-03  1.0861067E-02  7.0695251E-03
   6.00000  4.8726474E-03  1.1813108E-02  7.4985985E-03
   6.20000  5.1806351E-03  1.2770821E-02  7.8806191E-03
   6.40000  5.4958679E-03  1.3757993E-02  8.2368367E-03
   6.60000  5.8240422E-03  1.4799484E-02  8.5894208E-03
   6.80000  6.1677442E-03  1.5921145E-02  8.9600413E-03
   7.00000  6.5271536E-03  1.7149355E-02  9.3693013E-03
   7.20000  6.9010487E-03  1.8510980E-02  9.8371983E-03
   7.40000  7.2880172E-03  2.0034100E-02  1.0383751E-02
   7.60000  7.6875689E-03  2.1749196E-02  1.1028730E-02
   7.80000  8.1007954E-03  2.3690098E-02  1.1790031E-02
   8.00000  8.5304223E-03  2.5893892E-02  1.2680977E-02
   8.20000  8.9804082E-03  2.8399036E-02  1.3707209E-02
   8.40000  9.4554062E-03  3.1240920E-02  1.4863797E-02
   8.60000  9.9603441E-03  3.4444048E-02  1.6133284E-02
   8.80000  1.0500206E-02  3.8010071E-02  1.7485615E-02
   9.00000  1.1079954E-02  4.1901876E-02  1.8880919E-02
   9.20000  1.1704437E-02  4.6026222E-02  2.0275342E-02
   9.40000  1.2378021E-02  5.0220876E-02  2.1628710E-02
   9.60000  1.3103667E-02  5.4254808E-02  2.2911630E-02
   9.80000  1.3881684E-02  5.7848034E-02  2.4108890E-02
   10.0000  1.4708874E-02  6.0710175E-02  2.5217811E-02
   10.2500  1.5801582E-02  6.2891102E-02  2.6485747E-02
   10.5000  1.6942397E-02  6.3298149E-02  2.7625455E-02
   10.7500  1.8110988E-02  6.2013452E-02  2.8625576E-02
   11.0000  1.9287269E-02  5.9392527E-02  2.9463972E-02
   11.2500  2.0454120E-02  5.5908633E-02  3.0120929E-02
   11.5000  2.1600611E-02  5.2011123E-02  3.0591396E-02
   11.7500  2.2722895E-02  4.8049895E-02  3.0890814E-02
   12.0000  2.3820734E-02  4.4258271E-02  3.1053095E-02
   12.2500  2.4892084E-02  4.0768211E-02  3.1123365E-02
   12.5000  2.5930321E-02  3.7637623E-02  3.1149578E-02
   12.7500  2.6925386E-02  3.4876977E-02  3.1175288E-02
   13.0000  2.7867663E-02  3.2469722E-02  3.1234015E-02
   13.2500  2.8751886E-02  3.0386258E-02  3.1346993E-02
   13.5000  2.9577766E-02  2.8592856E-02  3.1525953E-02
   13.7500  3.0348323E-02  2.7056719E-02  3.1777926E-02
   14.0000  3.1069226E-02  2.5747924E-02  3.2107835E-02
   14.2500  3.1748744E-02  2.4639666E-02  3.2518894E-02
   14.5000  3.2396804E-02  2.3708118E-02  3.3012477E-02
   14.7500  3.3023391E-02  2.2932269E-02  3.3587782E-02
   15.0000  3.3637012E-02  2.2293727E-02  3.4241083E-02
   15.2500  3.4243658E-02  2.1776464E-02  3.4964820E-02
   15.5000  3.4846346E-02  2.1366549E-02  3.5746835E-02
   15.7500  3.5445135E-02  2.1051880E-02  3.6569961E-02
   16.0000  3.6037458E-02  2.0821950E-02  3.7412055E-02
   16.2500  3.6618618E-02  2.0667622E-02  3.8246534E-02
   16.5000  3.7182327E-02  2.0580944E-02  3.9043469E-02
   16.7500  3.7721274E-02  2.0554978E-02  3.9771301E-02
   17.0000  3.8227710E-02  2.0583642E-02  4.0399141E-02
   17.2500  3.8694073E-02  2.0661572E-02  4.0899496E-02
   17.5000  3.9113676E-02  2.0783983E-02  4.1251072E-02
   17.7500  3.9481371E-02  2.0946559E-02  4.1441149E-02
   18.0000  3.9794131E-02  2.1145366E-02  4.1467009E-02
   18.2500  4.0051423E-02  2.1376796E-02  4.1336067E-02
   18.5000  4.0255292E-02  2.1637559E-02  4.1064635E-02
   18.7500  4.0410144E-02  2.1924693E-02  4.0675608E-02
   19.0000  4.0522256E-02  2.2235617E-02  4.0195542E-02
   19.2500  4.0599092E-02  2.2568187E-02  3.9651670E-02
   19.5000  4.0648535E-02  2.2920749E-02  3.9069331E-02
   19.7500  4.0678144E-02  2.3292115E-02  3.8470155E-02
   20.0000  4.0694570E-02  2.3681361E-02  3.7871351E-02
   21.0000  4.0715633E-02  2.5389820E-02  3.5701796E-02
   22.0000  4.0689874E-02  2.7257801E-02  3.4094180E-02
   23.0000  4.0380438E-02  2.9146086E-02  3.2939823E-02
   24.0000  3.9478513E-02  3.0864433E-02  3.2030079E-02
   25.0000  3.7892599E-02  3.2227672E-02  3.1227897E-02
   26.0000  3.5831608E-02  3.3122676E-02  3.0468933E-02
   27.0000  3.3655685E-02  3.3525963E-02  2.9737149E-02
   28.0000  3.1663204E-02  3.3480649E-02  2.9058388E-02
   29.0000  2.9993935E-02  3.3069139E-02  2.8485765E-02
   30.0000  2.8663871E-02  3.2391877E-02  2.8065039E-02
   31.0000  2.7633893E-02  3.1545961E-02  2.7804867E-02
   32.0000  2.6850209E-02  3.0607399E-02  2.7673935E-02
   33.0000  2.6255896E-02  2.9630165E-02  2.7619063E-02
   34.0000  2.5796516E-02  2.8650637E-02  2.7585442E-02
   35.0000  2.5432340E-02  2.7678985E-02  2.7527372E-02
   36.0000  2.5135145E-02  2.6714326E-02  2.7413069E-02
   37.0000  2.4882108E-02  2.5762821E-02  2.7226998E-02
   38.0000  2.4655850E-02  2.4848079E-02  2.6973508E-02
   39.0000  2.4449693E-02  2.4019784E-02  2.6683875E-02
   40.0000  2.4274205E-02  2.3351754E-02  2.6418345E-02
