    Energy   (100,001)      (010,001)      (001,110)   
  -25.0000  1.7362448E-04  1.8242846E-04  1.8109546E-04
  -24.0000  1.7946504E-04  1.8948010E-04  1.8726277E-04
  -23.0000  1.8567578E-04  1.9704711E-04  1.9382920E-04
  -22.0000  1.9229219E-04  2.0518641E-04  2.0083397E-04
  -21.0000  1.9935439E-04  2.1396348E-04  2.0832159E-04
  -20.0000  2.0690794E-04  2.2345397E-04  2.1634276E-04
  -19.0000  2.1500478E-04  2.3374583E-04  2.2495549E-04
  -18.0000  2.2370441E-04  2.4494176E-04  2.3422648E-04
  -17.0000  2.3307528E-04  2.5716252E-04  2.4423280E-04
  -16.0000  2.4319659E-04  2.7055092E-04  2.5506401E-04
  -15.0000  2.5416049E-04  2.8527711E-04  2.6682482E-04
  -14.0000  2.6607487E-04  3.0154534E-04  2.7963844E-04
  -13.0000  2.7906689E-04  3.1960281E-04  2.9365092E-04
  -12.0000  2.9328757E-04  3.3975147E-04  3.0903677E-04
  -11.0000  3.0891776E-04  3.6236386E-04  3.2600635E-04
  -10.0000  3.2617608E-04  3.8790471E-04  3.4481577E-04
  -9.00000  3.4532952E-04  4.1696096E-04  3.6578037E-04
  -8.00000  3.6670813E-04  4.5028424E-04  3.8929339E-04
  -7.00000  3.9072550E-04  4.8885225E-04  4.1585247E-04
  -6.00000  4.1790826E-04  5.3395967E-04  4.4609835E-04
  -5.00000  4.4893986E-04  5.8735656E-04  4.8087290E-04
  -4.00000  4.8472773E-04  6.5146632E-04  5.2130985E-04
  -3.00000  5.2651129E-04  7.2974230E-04  5.6898303E-04
  -2.00000  5.7604541E-04  8.2728021E-04  6.2616264E-04
  -1.00000  6.3593486E-04  9.5193432E-04  6.9629149E-04
   0.00000  7.1030377E-04  1.1165154E-03  7.8495610E-04
   1.00000  8.0631498E-04  1.3435956E-03  9.0212938E-04
   2.00000  9.3828205E-04  1.6777008E-03  1.0683269E-03
   3.00000  1.1420742E-03  2.2241710E-03  1.3363604E-03
   4.00000  1.5494574E-03  3.3276811E-03  1.9037802E-03
   5.00000  2.7744097E-03  6.4918002E-03  3.6979683E-03
   5.20000  3.1113881E-03  7.4605554E-03  4.1963288E-03
   5.40000  3.3863953E-03  8.4037015E-03  4.6043064E-03
   5.60000  3.5882660E-03  9.3042394E-03  4.9139536E-03
   5.80000  3.7362688E-03  1.0195758E-02  5.1648983E-03
   6.00000  3.8560659E-03  1.1122812E-02  5.3974145E-03
   6.20000  3.9682946E-03  1.2121615E-02  5.6307112E-03
   6.40000  4.0869231E-03  1.3215998E-02  5.8646032E-03
   6.60000  4.2207759E-03  1.4418504E-02  6.0900510E-03
   6.80000  4.3753971E-03  1.5733650E-02  6.2999585E-03
   7.00000  4.5546244E-03  1.7163339E-02  6.4958028E-03
   7.20000  4.7617696E-03  1.8713137E-02  6.6880354E-03
   7.40000  5.0003173E-03  2.0396752E-02  6.8917731E-03
   7.60000  5.2741231E-03  2.2236910E-02  7.1218153E-03
   7.80000  5.5872391E-03  2.4262906E-02  7.3898332E-03
   8.00000  5.9436005E-03  2.6506604E-02  7.7038214E-03
   8.20000  6.3467276E-03  2.8997988E-02  8.0687451E-03
   8.40000  6.7994607E-03  3.1759831E-02  8.4877942E-03
   8.60000  7.3037099E-03  3.4800820E-02  8.9636297E-03
   8.80000  7.8602127E-03  3.8106968E-02  9.4988060E-03
   9.00000  8.4682839E-03  4.1631879E-02  1.0095570E-02
   9.20000  9.1255772E-03  4.5287774E-02  1.0755616E-02
   9.40000  9.8279578E-03  4.8941139E-02  1.1479971E-02
   9.60000  1.0569644E-02  5.2417995E-02  1.2269004E-02
   9.80000  1.1343755E-02  5.5522231E-02  1.3122520E-02
   10.0000  1.2143203E-02  5.8064824E-02  1.4039811E-02
   10.2500  1.3168626E-02  6.0228726E-02  1.5273892E-02
   10.5000  1.4214965E-02  6.1123358E-02  1.6600380E-02
   10.7500  1.5277826E-02  6.0750991E-02  1.8010964E-02
   11.0000  1.6355480E-02  5.9248228E-02  1.9492876E-02
   11.2500  1.7445803E-02  5.6839320E-02  2.1028044E-02
   11.5000  1.8543645E-02  5.3790604E-02  2.2592727E-02
   11.7500  1.9639644E-02  5.0369000E-02  2.4156873E-02
   12.0000  2.0722704E-02  4.6810058E-02  2.5684069E-02
   12.2500  2.1784681E-02  4.3301052E-02  2.7134496E-02
   12.5000  2.2821659E-02  3.9975608E-02  2.8470407E-02
   12.7500  2.3832286E-02  3.6916075E-02  2.9661991E-02
   13.0000  2.4817563E-02  3.4162231E-02  3.0692169E-02
   13.2500  2.5781741E-02  3.1723374E-02  3.1559821E-02
   13.5000  2.6732198E-02  2.9589762E-02  3.2280474E-02
   13.7500  2.7678047E-02  2.7740963E-02  3.2883183E-02
   14.0000  2.8628251E-02  2.6151380E-02  3.3404834E-02
   14.2500  2.9589928E-02  2.4793928E-02  3.3884355E-02
   14.5000  3.0567076E-02  2.3642348E-02  3.4358240E-02
   14.7500  3.1559759E-02  2.2672460E-02  3.4857728E-02
   15.0000  3.2563751E-02  2.1862704E-02  3.5407395E-02
   15.2500  3.3570625E-02  2.1194223E-02  3.6024692E-02
   15.5000  3.4568238E-02  2.0650716E-02  3.6719958E-02
   15.7500  3.5541543E-02  2.0218178E-02  3.7496525E-02
   16.0000  3.6473668E-02  1.9884607E-02  3.8350710E-02
   16.2500  3.7347161E-02  1.9639721E-02  3.9271659E-02
   16.5000  3.8145341E-02  1.9474709E-02  4.0241182E-02
   16.7500  3.8853614E-02  1.9382014E-02  4.1233817E-02
   17.0000  3.9460643E-02  1.9355154E-02  4.2217468E-02
   17.2500  3.9959240E-02  1.9388571E-02  4.3154910E-02
   17.5000  4.0346867E-02  1.9477507E-02  4.4006328E-02
   17.7500  4.0625718E-02  1.9617886E-02  4.4732801E-02
   18.0000  4.0802395E-02  1.9806200E-02  4.5300299E-02
   18.2500  4.0887252E-02  2.0039405E-02  4.5683502E-02
   18.5000  4.0893535E-02  2.0314805E-02  4.5868647E-02
   18.7500  4.0836410E-02  2.0629970E-02  4.5854748E-02
   19.0000  4.0731998E-02  2.0982670E-02  4.5652921E-02
   19.2500  4.0596436E-02  2.1370866E-02  4.5283996E-02
   19.5000  4.0445031E-02  2.1792726E-02  4.4775013E-02
   19.7500  4.0291563E-02  2.2246590E-02  4.4155543E-02
   20.0000  4.0147898E-02  2.2730744E-02  4.3454938E-02
   21.0000  3.9846237E-02  2.4915268E-02  4.0366754E-02
   22.0000  4.0155451E-02  2.7335962E-02  3.7632026E-02
   23.0000  4.0872322E-02  2.9753136E-02  3.5571888E-02
   24.0000  4.1477809E-02  3.1876426E-02  3.4091602E-02
   25.0000  4.1443630E-02  3.3439550E-02  3.3019769E-02
   26.0000  4.0493861E-02  3.4310208E-02  3.2202714E-02
   27.0000  3.8721221E-02  3.4524981E-02  3.1524148E-02
   28.0000  3.6498213E-02  3.4229207E-02  3.0920387E-02
   29.0000  3.4249247E-02  3.3590478E-02  3.0382831E-02
   30.0000  3.2264938E-02  3.2746732E-02  2.9932774E-02
   31.0000  3.0663247E-02  3.1802366E-02  2.9587444E-02
   32.0000  2.9441631E-02  3.0835471E-02  2.9341426E-02
   33.0000  2.8537618E-02  2.9881908E-02  2.9166071E-02
   34.0000  2.7876747E-02  2.8948665E-02  2.9022122E-02
   35.0000  2.7392156E-02  2.8031800E-02  2.8869732E-02
   36.0000  2.7026345E-02  2.7125199E-02  2.8674479E-02
   37.0000  2.6730174E-02  2.6228587E-02  2.8413643E-02
   38.0000  2.6465524E-02  2.5357672E-02  2.8085451E-02
   39.0000  2.6215041E-02  2.4556798E-02  2.7721027E-02
   40.0000  2.5993608E-02  2.3902037E-02  2.7389229E-02
