    Energy   (100,001)      (010,001)      (001,110)   
  -25.0000  1.7192905E-04  1.9197193E-04  1.7766708E-04
  -24.0000  1.7800040E-04  1.9892758E-04  1.8398534E-04
  -23.0000  1.8447307E-04  2.0637086E-04  1.9072808E-04
  -22.0000  1.9138694E-04  2.1435412E-04  1.9793843E-04
  -21.0000  1.9878735E-04  2.2293741E-04  2.0566549E-04
  -20.0000  2.0672593E-04  2.3218994E-04  2.1396543E-04
  -19.0000  2.1526184E-04  2.4219185E-04  2.2290275E-04
  -18.0000  2.2446311E-04  2.5303654E-04  2.3255193E-04
  -17.0000  2.3440842E-04  2.6483338E-04  2.4299941E-04
  -16.0000  2.4518922E-04  2.7771135E-04  2.5434610E-04
  -15.0000  2.5691251E-04  2.9182355E-04  2.6671053E-04
  -14.0000  2.6970422E-04  3.0735308E-04  2.8023287E-04
  -13.0000  2.8371368E-04  3.2452074E-04  2.9508014E-04
  -12.0000  2.9911934E-04  3.4359512E-04  3.1145301E-04
  -11.0000  3.1613630E-04  3.6490617E-04  3.2959470E-04
  -10.0000  3.3502641E-04  3.8886370E-04  3.4980309E-04
  -9.00000  3.5611189E-04  4.1598280E-04  3.7244710E-04
  -8.00000  3.7979424E-04  4.4691982E-04  3.9798959E-04
  -7.00000  4.0658093E-04  4.8252394E-04  4.2701979E-04
  -6.00000  4.3712405E-04  5.2391328E-04  4.6030070E-04
  -5.00000  4.7227816E-04  5.7259009E-04  4.9884011E-04
  -4.00000  5.1318970E-04  6.3062117E-04  5.4400114E-04
  -3.00000  5.6144169E-04  7.0093142E-04  5.9768129E-04
  -2.00000  6.1930078E-04  7.8780515E-04  6.6261866E-04
  -1.00000  6.9016872E-04  8.9779475E-04  7.4295090E-04
   0.00000  7.7948507E-04  1.0415008E-03  8.4532884E-04
   1.00000  8.9676098E-04  1.2374443E-03  9.8141112E-04
   2.00000  1.0609959E-03  1.5218452E-03  1.1744639E-03
   3.00000  1.3191212E-03  1.9795938E-03  1.4817342E-03
   4.00000  1.8372556E-03  2.8850263E-03  2.1054825E-03
   5.00000  3.3907428E-03  5.4440861E-03  3.9734943E-03
   5.20000  3.8623006E-03  6.2555976E-03  4.5146742E-03
   5.40000  4.3010983E-03  7.0737758E-03  4.9920703E-03
   5.60000  4.6849204E-03  7.8748772E-03  5.3864310E-03
   5.80000  5.0154481E-03  8.6665436E-03  5.7181451E-03
   6.00000  5.3015563E-03  9.4656787E-03  6.0183891E-03
   6.20000  5.5533223E-03  1.0287582E-02  6.3143681E-03
   6.40000  5.7816663E-03  1.1143491E-02  6.6258831E-03
   6.60000  5.9982389E-03  1.2041258E-02  6.9662363E-03
   6.80000  6.2146735E-03  1.2987136E-02  7.3441466E-03
   7.00000  6.4418388E-03  1.3987972E-02  7.7656631E-03
   7.20000  6.6894896E-03  1.5053450E-02  8.2360150E-03
   7.40000  6.9662914E-03  1.6198131E-02  8.7614689E-03
   7.60000  7.2800166E-03  1.7442787E-02  9.3509596E-03
   7.80000  7.6377267E-03  1.8814400E-02  1.0016939E-02
   8.00000  8.0458349E-03  2.0344439E-02  1.0774938E-02
   8.20000  8.5100246E-03  2.2065523E-02  1.1641755E-02
   8.40000  9.0350879E-03  2.4007091E-02  1.2632522E-02
   8.60000  9.6248157E-03  2.6190855E-02  1.3756859E-02
   8.80000  1.0281911E-02  2.8626752E-02  1.5014483E-02
   9.00000  1.1007772E-02  3.1309483E-02  1.6391222E-02
   9.20000  1.1802259E-02  3.4215494E-02  1.7856729E-02
   9.40000  1.2663730E-02  3.7300819E-02  1.9365448E-02
   9.60000  1.3589438E-02  4.0500062E-02  2.0862081E-02
   9.80000  1.4576172E-02  4.3726060E-02  2.2291265E-02
   10.0000  1.5620721E-02  4.6869551E-02  2.3608769E-02
   10.2500  1.7002629E-02  5.0481820E-02  2.5063144E-02
   10.5000  1.8461330E-02  5.3472259E-02  2.6305619E-02
   10.7500  1.9983064E-02  5.5561686E-02  2.7376562E-02
   11.0000  2.1544328E-02  5.6545446E-02  2.8332700E-02
   11.2500  2.3110622E-02  5.6354683E-02  2.9222819E-02
   11.5000  2.4640834E-02  5.5074616E-02  3.0075525E-02
   11.7500  2.6095132E-02  5.2911777E-02  3.0898825E-02
   12.0000  2.7441703E-02  5.0138075E-02  3.1681505E-02
   12.2500  2.8660923E-02  4.7033015E-02  3.2397380E-02
   12.5000  2.9746720E-02  4.3837655E-02  3.3017224E-02
   12.7500  3.0705190E-02  4.0730864E-02  3.3520990E-02
   13.0000  3.1551860E-02  3.7826965E-02  3.3904079E-02
   13.2500  3.2308247E-02  3.5186639E-02  3.4177538E-02
   13.5000  3.2998246E-02  3.2832279E-02  3.4363770E-02
   13.7500  3.3645071E-02  3.0761875E-02  3.4490902E-02
   14.0000  3.4269091E-02  2.8959469E-02  3.4588174E-02
   14.2500  3.4886628E-02  2.7402289E-02  3.4682910E-02
   14.5000  3.5509536E-02  2.6065264E-02  3.4798795E-02
   14.7500  3.6145292E-02  2.4923632E-02  3.4955053E-02
   15.0000  3.6797346E-02  2.3954314E-02  3.5166130E-02
   15.2500  3.7465547E-02  2.3136509E-02  3.5441612E-02
   15.5000  3.8146534E-02  2.2451858E-02  3.5786186E-02
   15.7500  3.8834067E-02  2.1884360E-02  3.6199599E-02
   16.0000  3.9519336E-02  2.1420175E-02  3.6676609E-02
   16.2500  4.0191317E-02  2.1047387E-02  3.7207029E-02
   16.5000  4.0837255E-02  2.0755765E-02  3.7775962E-02
   16.7500  4.1443295E-02  2.0536546E-02  3.8364360E-02
   17.0000  4.1995300E-02  2.0382240E-02  3.8949993E-02
   17.2500  4.2479804E-02  2.0286470E-02  3.9508855E-02
   17.5000  4.2885032E-02  2.0243828E-02  4.0016936E-02
   17.7500  4.3201878E-02  2.0249752E-02  4.0452167E-02
   18.0000  4.3424725E-02  2.0300411E-02  4.0796296E-02
   18.2500  4.3551963E-02  2.0392609E-02  4.1036393E-02
   18.5000  4.3586138E-02  2.0523685E-02  4.1165738E-02
   18.7500  4.3533673E-02  2.0691441E-02  4.1183961E-02
   19.0000  4.3404196E-02  2.0894078E-02  4.1096435E-02
   19.2500  4.3209556E-02  2.1130161E-02  4.0913064E-02
   19.5000  4.2962673E-02  2.1398588E-02  4.0646710E-02
   19.7500  4.2676461E-02  2.1698520E-02  4.0311633E-02
   20.0000  4.2363118E-02  2.2029173E-02  3.9922401E-02
   21.0000  4.1050475E-02  2.3631099E-02  3.8104933E-02
   22.0000  3.9951606E-02  2.5591000E-02  3.6354930E-02
   23.0000  3.9100655E-02  2.7752064E-02  3.4931258E-02
   24.0000  3.8261262E-02  2.9887455E-02  3.3819763E-02
   25.0000  3.7147045E-02  3.1740470E-02  3.2905647E-02
   26.0000  3.5611706E-02  3.3108070E-02  3.2066224E-02
   27.0000  3.3738277E-02  3.3902864E-02  3.1219699E-02
   28.0000  3.1768317E-02  3.4152819E-02  3.0346140E-02
   29.0000  2.9957492E-02  3.3969546E-02  2.9493470E-02
   30.0000  2.8466495E-02  3.3508641E-02  2.8746743E-02
   31.0000  2.7316364E-02  3.2910805E-02  2.8155358E-02
   32.0000  2.6454865E-02  3.2275389E-02  2.7719130E-02
   33.0000  2.5817141E-02  3.1656995E-02  2.7402924E-02
   34.0000  2.5345112E-02  3.1072706E-02  2.7153035E-02
   35.0000  2.4990460E-02  3.0517513E-02  2.6914069E-02
   36.0000  2.4711932E-02  2.9980117E-02  2.6642051E-02
   37.0000  2.4472959E-02  2.9454033E-02  2.6313329E-02
   38.0000  2.4245075E-02  2.8944099E-02  2.5930946E-02
   39.0000  2.4018410E-02  2.8472968E-02  2.5530267E-02
   40.0000  2.3813125E-02  2.8085666E-02  2.5177368E-02
