    Energy   (100,001)      (010,001)      (001,110)   
  -25.0000  1.6965802E-04  1.8758044E-04  1.8440094E-04
  -24.0000  1.7576197E-04  1.9453189E-04  1.9108860E-04
  -23.0000  1.8227428E-04  2.0197651E-04  1.9823822E-04
  -22.0000  1.8923586E-04  2.0996755E-04  2.0589829E-04
  -21.0000  1.9669315E-04  2.1856611E-04  2.1412429E-04
  -20.0000  2.0469913E-04  2.2784263E-04  2.2297996E-04
  -19.0000  2.1331445E-04  2.3787872E-04  2.3253888E-04
  -18.0000  2.2260890E-04  2.4876946E-04  2.4288651E-04
  -17.0000  2.3266319E-04  2.6062624E-04  2.5412258E-04
  -16.0000  2.4357112E-04  2.7358044E-04  2.6636432E-04
  -15.0000  2.5544238E-04  2.8778799E-04  2.7975036E-04
  -14.0000  2.6840604E-04  3.0343538E-04  2.9444595E-04
  -13.0000  2.8261498E-04  3.2074742E-04  3.1064961E-04
  -12.0000  2.9825172E-04  3.3999752E-04  3.2860206E-04
  -11.0000  3.1553591E-04  3.6152140E-04  3.4859806E-04
  -10.0000  3.3473437E-04  3.8573569E-04  3.7100263E-04
  -9.00000  3.5617451E-04  4.1316362E-04  3.9627352E-04
  -8.00000  3.8026277E-04  4.4447100E-04  4.2499298E-04
  -7.00000  4.0751034E-04  4.8051784E-04  4.5791384E-04
  -6.00000  4.3856986E-04  5.2243394E-04  4.9602807E-04
  -5.00000  4.7428929E-04  5.7173289E-04  5.4067207E-04
  -4.00000  5.1579331E-04  6.3048909E-04  5.9369443E-04
  -3.00000  5.6461139E-04  7.0162354E-04  6.5773553E-04
  -2.00000  6.2288877E-04  7.8938652E-04  7.3671931E-04
  -1.00000  6.9375564E-04  9.0022143E-04  8.3677966E-04
   0.00000  7.8202701E-04  1.0444304E-03  9.6816435E-04
   1.00000  8.9568175E-04  1.2397311E-03  1.1496323E-03
   2.00000  1.0495212E-03  1.5200565E-03  1.4203937E-03
   3.00000  1.2766660E-03  1.9628755E-03  1.8812551E-03
   4.00000  1.6812509E-03  2.8117111E-03  2.8989223E-03
   5.00000  2.7169535E-03  5.1124520E-03  6.2556512E-03
   5.20000  3.0320268E-03  5.8247912E-03  7.3226703E-03
   5.40000  3.3404236E-03  6.5324287E-03  8.2835369E-03
   5.60000  3.6290972E-03  7.2136809E-03  9.0282738E-03
   5.80000  3.9006877E-03  7.8790904E-03  9.5585418E-03
   6.00000  4.1656690E-03  8.5517821E-03  9.9643535E-03
   6.20000  4.4362364E-03  9.2560132E-03  1.0360404E-02
   6.40000  4.7232476E-03  1.0013318E-02  1.0836591E-02
   6.60000  5.0354828E-03  1.0842314E-02  1.1442589E-02
   6.80000  5.3799802E-03  1.1759767E-02  1.2191755E-02
   7.00000  5.7624834E-03  1.2781840E-02  1.3068142E-02
   7.20000  6.1876551E-03  1.3925325E-02  1.4031988E-02
   7.40000  6.6591000E-03  1.5209000E-02  1.5026586E-02
   7.60000  7.1793850E-03  1.6655125E-02  1.5990520E-02
   7.80000  7.7502464E-03  1.8290888E-02  1.6875151E-02
   8.00000  8.3730780E-03  2.0149055E-02  1.7660831E-02
   8.20000  9.0496309E-03  2.2266927E-02  1.8362728E-02
   8.40000  9.7826933E-03  2.4683410E-02  1.9022659E-02
   8.60000  1.0576464E-02  2.7434445E-02  1.9692152E-02
   8.80000  1.1436387E-02  3.0546770E-02  2.0415728E-02
   9.00000  1.2368315E-02  3.4029681E-02  2.1220424E-02
   9.20000  1.3377102E-02  3.7864686E-02  2.2112654E-02
   9.40000  1.4465038E-02  4.1993940E-02  2.3080581E-02
   9.60000  1.5630944E-02  4.6309474E-02  2.4099672E-02
   9.80000  1.6870689E-02  5.0646331E-02  2.5139429E-02
   10.0000  1.8179034E-02  5.4783595E-02  2.6169511E-02
   10.2500  1.9904439E-02  5.9272016E-02  2.7404413E-02
   10.5000  2.1725323E-02  6.2513456E-02  2.8547063E-02
   10.7500  2.3637227E-02  6.4108847E-02  2.9576917E-02
   11.0000  2.5626340E-02  6.3914224E-02  3.0488114E-02
   11.2500  2.7654415E-02  6.2084555E-02  3.1287035E-02
   11.5000  2.9650801E-02  5.9004665E-02  3.1989465E-02
   11.7500  3.1524632E-02  5.5151390E-02  3.2616516E-02
   12.0000  3.3187992E-02  5.0967122E-02  3.3189539E-02
   12.2500  3.4575709E-02  4.6790952E-02  3.3725428E-02
   12.5000  3.5655931E-02  4.2844419E-02  3.4233039E-02
   12.7500  3.6430972E-02  3.9248580E-02  3.4711632E-02
   13.0000  3.6930809E-02  3.6051839E-02  3.5152018E-02
   13.2500  3.7203185E-02  3.3256524E-02  3.5540176E-02
   13.5000  3.7304032E-02  3.0839215E-02  3.5862079E-02
   13.7500  3.7290290E-02  2.8764233E-02  3.6107899E-02
   14.0000  3.7215160E-02  2.6991751E-02  3.6274749E-02
   14.2500  3.7124559E-02  2.5482608E-02  3.6368434E-02
   14.5000  3.7054409E-02  2.4201182E-02  3.6404193E-02
   14.7500  3.7029978E-02  2.3116657E-02  3.6405173E-02
   15.0000  3.7067336E-02  2.2202924E-02  3.6398287E-02
   15.2500  3.7175421E-02  2.1437879E-02  3.6409402E-02
   15.5000  3.7357666E-02  2.0802750E-02  3.6459708E-02
   15.7500  3.7613039E-02  2.0281589E-02  3.6563609E-02
   16.0000  3.7936719E-02  1.9860878E-02  3.6727776E-02
   16.2500  3.8320575E-02  1.9529196E-02  3.6950982E-02
   16.5000  3.8753586E-02  1.9276913E-02  3.7224504E-02
   16.7500  3.9222301E-02  1.9095922E-02  3.7533047E-02
   17.0000  3.9711412E-02  1.8979394E-02  3.7856173E-02
   17.2500  4.0204481E-02  1.8921566E-02  3.8170250E-02
   17.5000  4.0684829E-02  1.8917557E-02  3.8450797E-02
   17.7500  4.1136510E-02  1.8963211E-02  3.8675024E-02
   18.0000  4.1545301E-02  1.9054971E-02  3.8824214E-02
   18.2500  4.1899559E-02  1.9189769E-02  3.8885565E-02
   18.5000  4.2190825E-02  1.9364952E-02  3.8853185E-02
   18.7500  4.2414094E-02  1.9578220E-02  3.8728101E-02
   19.0000  4.2567716E-02  1.9827594E-02  3.8517340E-02
   19.2500  4.2652959E-02  2.0111410E-02  3.8232328E-02
   19.5000  4.2673349E-02  2.0428320E-02  3.7886982E-02
   19.7500  4.2633940E-02  2.0777256E-02  3.7495900E-02
   20.0000  4.2540718E-02  2.1157230E-02  3.7073149E-02
   21.0000  4.1761540E-02  2.2955834E-02  3.5311572E-02
   22.0000  4.0594807E-02  2.5112492E-02  3.3805156E-02
   23.0000  3.9258317E-02  2.7498178E-02  3.2665852E-02
   24.0000  3.7833735E-02  2.9928178E-02  3.1790512E-02
   25.0000  3.6255607E-02  3.2162532E-02  3.1045008E-02
   26.0000  3.4395950E-02  3.3957522E-02  3.0333826E-02
   27.0000  3.2287138E-02  3.5136752E-02  2.9623996E-02
   28.0000  3.0197659E-02  3.5652560E-02  2.8943741E-02
   29.0000  2.8398513E-02  3.5602959E-02  2.8343903E-02
   30.0000  2.7022164E-02  3.5153030E-02  2.7876871E-02
   31.0000  2.6068407E-02  3.4458659E-02  2.7573925E-02
   32.0000  2.5456731E-02  3.3633542E-02  2.7424875E-02
   33.0000  2.5076839E-02  3.2745715E-02  2.7379822E-02
   34.0000  2.4821144E-02  3.1828867E-02  2.7369750E-02
   35.0000  2.4600656E-02  3.0897399E-02  2.7329283E-02
   36.0000  2.4351195E-02  2.9959553E-02  2.7210553E-02
   37.0000  2.4037531E-02  2.9027307E-02  2.6988952E-02
   38.0000  2.3658850E-02  2.8125225E-02  2.6667826E-02
   39.0000  2.3253655E-02  2.7301619E-02  2.6288040E-02
   40.0000  2.2893155E-02  2.6633006E-02  2.5933064E-02
