    Energy   (100,001)      (010,001)      (001,110)   
  -25.0000  1.7130012E-04  1.8721661E-04  1.8560788E-04
  -24.0000  1.7717508E-04  1.9429511E-04  1.9188756E-04
  -23.0000  1.8342880E-04  2.0188412E-04  1.9857505E-04
  -22.0000  1.9009814E-04  2.1003957E-04  2.0571085E-04
  -21.0000  1.9722481E-04  2.1882570E-04  2.1334102E-04
  -20.0000  2.0485626E-04  2.2831673E-04  2.2151814E-04
  -19.0000  2.1304668E-04  2.3859881E-04  2.3030250E-04
  -18.0000  2.2185821E-04  2.4977250E-04  2.3976359E-04
  -17.0000  2.3136250E-04  2.6195589E-04  2.4998196E-04
  -16.0000  2.4164258E-04  2.7528858E-04  2.6105145E-04
  -15.0000  2.5279519E-04  2.8993667E-04  2.7308217E-04
  -14.0000  2.6493383E-04  3.0609937E-04  2.8620415E-04
  -13.0000  2.7819248E-04  3.2401756E-04  3.0057214E-04
  -12.0000  2.9273058E-04  3.4398513E-04  3.1637189E-04
  -11.0000  3.0873935E-04  3.6636431E-04  3.3382840E-04
  -10.0000  3.2645031E-04  3.9160643E-04  3.5321706E-04
  -9.00000  3.4614665E-04  4.2028085E-04  3.7487901E-04
  -8.00000  3.6817888E-04  4.5311583E-04  3.9924239E-04
  -7.00000  3.9298656E-04  4.9105746E-04  4.2685289E-04
  -6.00000  4.2112960E-04  5.3535695E-04  4.5841848E-04
  -5.00000  4.5333410E-04  5.8770345E-04  4.9487707E-04
  -4.00000  4.9056227E-04  6.5043291E-04  5.3750260E-04
  -3.00000  5.3412301E-04  7.2686987E-04  5.8807892E-04
  -2.00000  5.8585609E-04  8.2191406E-04  6.4920041E-04
  -1.00000  6.4845885E-04  9.4310983E-04  7.2482803E-04
   0.00000  7.2611613E-04  1.1027528E-03  8.2141168E-04
   1.00000  8.2586020E-04  1.3224994E-03  9.5043576E-04
   2.00000  9.6101787E-04  1.6450733E-03  1.1352146E-03
   3.00000  1.1623246E-03  2.1715721E-03  1.4339868E-03
   4.00000  1.5300336E-03  3.2322264E-03  2.0537442E-03
   5.00000  2.5099786E-03  6.2813819E-03  3.9508831E-03
   5.20000  2.8086704E-03  7.2396482E-03  4.5178244E-03
   5.40000  3.0996675E-03  8.1938873E-03  5.0358839E-03
   5.60000  3.3722936E-03  9.1179119E-03  5.4856127E-03
   5.80000  3.6292345E-03  1.0026127E-02  5.8842416E-03
   6.00000  3.8774842E-03  1.0944075E-02  6.2586878E-03
   6.20000  4.1240698E-03  1.1894569E-02  6.6317272E-03
   6.40000  4.3751816E-03  1.2895120E-02  7.0184181E-03
   6.60000  4.6364003E-03  1.3959232E-02  7.4266081E-03
   6.80000  4.9131493E-03  1.5098700E-02  7.8589698E-03
   7.00000  5.2110670E-03  1.6326258E-02  8.3156775E-03
   7.20000  5.5361195E-03  1.7658281E-02  8.7971231E-03
   7.40000  5.8943867E-03  1.9116721E-02  9.3059406E-03
   7.60000  6.2916154E-03  2.0729302E-02  9.8476267E-03
   7.80000  6.7327126E-03  2.2527480E-02  1.0429440E-02
   8.00000  7.2213021E-03  2.4542616E-02  1.1057930E-02
   8.20000  7.7593559E-03  2.6801409E-02  1.1736041E-02
   8.40000  8.3468634E-03  2.9321449E-02  1.2460901E-02
   8.60000  8.9815667E-03  3.2106967E-02  1.3223134E-02
   8.80000  9.6589502E-03  3.5144668E-02  1.4008035E-02
   9.00000  1.0372692E-02  3.8399499E-02  1.4798362E-02
   9.20000  1.1115606E-02  4.1810333E-02  1.5577870E-02
   9.40000  1.1880914E-02  4.5286200E-02  1.6334443E-02
   9.60000  1.2663568E-02  4.8704883E-02  1.7061839E-02
   9.80000  1.3461242E-02  5.1916462E-02  1.7759424E-02
   10.0000  1.4274572E-02  5.4753885E-02  1.8430091E-02
   10.2500  1.5317904E-02  5.7522958E-02  1.9236437E-02
   10.5000  1.6398383E-02  5.9184832E-02  2.0012919E-02
   10.7500  1.7522376E-02  5.9605415E-02  2.0763553E-02
   11.0000  1.8689613E-02  5.8813253E-02  2.1491303E-02
   11.2500  1.9889060E-02  5.6978575E-02  2.2199989E-02
   11.5000  2.1097643E-02  5.4357315E-02  2.2894760E-02
   11.7500  2.2283019E-02  5.1230012E-02  2.3579717E-02
   12.0000  2.3410621E-02  4.7855483E-02  2.4255253E-02
   12.2500  2.4453483E-02  4.4445960E-02  2.4919018E-02
   12.5000  2.5400673E-02  4.1160118E-02  2.5569395E-02
   12.7500  2.6259771E-02  3.8104595E-02  2.6206934E-02
   13.0000  2.7052376E-02  3.5339676E-02  2.6833491E-02
   13.2500  2.7805715E-02  3.2888589E-02  2.7451909E-02
   13.5000  2.8545519E-02  3.0748435E-02  2.8066908E-02
   13.7500  2.9292814E-02  2.8900331E-02  2.8685225E-02
   14.0000  3.0063280E-02  2.7317459E-02  2.9315020E-02
   14.2500  3.0867238E-02  2.5970585E-02  2.9965694E-02
   14.5000  3.1709650E-02  2.4831314E-02  3.0647607E-02
   14.7500  3.2590203E-02  2.3873694E-02  3.1371091E-02
   15.0000  3.3503490E-02  2.3074788E-02  3.2144988E-02
   15.2500  3.4439295E-02  2.2414682E-02  3.2975160E-02
   15.5000  3.5382997E-02  2.1876226E-02  3.3863202E-02
   15.7500  3.6316202E-02  2.1444693E-02  3.4805440E-02
   16.0000  3.7217717E-02  2.1107428E-02  3.5792210E-02
   16.2500  3.8064951E-02  2.0853548E-02  3.6807479E-02
   16.5000  3.8835694E-02  2.0673673E-02  3.7828884E-02
   16.7500  3.9510099E-02  2.0559719E-02  3.8828360E-02
   17.0000  4.0072598E-02  2.0504709E-02  3.9773516E-02
   17.2500  4.0513442E-02  2.0502622E-02  4.0629858E-02
   17.5000  4.0829640E-02  2.0548247E-02  4.1363777E-02
   17.7500  4.1025176E-02  2.0637057E-02  4.1946003E-02
   18.0000  4.1110503E-02  2.0765089E-02  4.2354977E-02
   18.2500  4.1101426E-02  2.0928848E-02  4.2579467E-02
   18.5000  4.1017534E-02  2.1125238E-02  4.2619851E-02
   18.7500  4.0880409E-02  2.1351516E-02  4.2487737E-02
   19.0000  4.0711823E-02  2.1605306E-02  4.2204017E-02
   19.2500  4.0532119E-02  2.1884632E-02  4.1795782E-02
   19.5000  4.0358909E-02  2.2187977E-02  4.1292774E-02
   19.7500  4.0206193E-02  2.2514285E-02  4.0724169E-02
   20.0000  4.0083982E-02  2.2862814E-02  4.0116507E-02
   21.0000  3.9980061E-02  2.4460427E-02  3.7718293E-02
   22.0000  4.0386417E-02  2.6332902E-02  3.5946408E-02
   23.0000  4.0828813E-02  2.8379730E-02  3.4922489E-02
   24.0000  4.0757512E-02  3.0405015E-02  3.4421816E-02
   25.0000  3.9860278E-02  3.2145531E-02  3.4146640E-02
   26.0000  3.8187216E-02  3.3372697E-02  3.3834810E-02
   27.0000  3.6053757E-02  3.3991782E-02  3.3330957E-02
   28.0000  3.3835547E-02  3.4064003E-02  3.2625414E-02
   29.0000  3.1809493E-02  3.3742518E-02  3.1822021E-02
   30.0000  3.0109538E-02  3.3186729E-02  3.1053097E-02
   31.0000  2.8761338E-02  3.2511281E-02  3.0409627E-02
   32.0000  2.7731391E-02  3.1778155E-02  2.9923208E-02
   33.0000  2.6959679E-02  3.1017030E-02  2.9582919E-02
   34.0000  2.6379584E-02  3.0243566E-02  2.9356587E-02
   35.0000  2.5934213E-02  2.9455979E-02  2.9203214E-02
   36.0000  2.5583406E-02  2.8648669E-02  2.9082672E-02
   37.0000  2.5302087E-02  2.7827013E-02  2.8961402E-02
   38.0000  2.5075239E-02  2.7014811E-02  2.8817336E-02
   39.0000  2.4893691E-02  2.6262077E-02  2.8649387E-02
   40.0000  2.4752950E-02  2.5646036E-02  2.8487001E-02
