    Energy   (100,001)      (010,001)      (001,110)   
  -25.0000  1.7062431E-04  1.8138799E-04  1.7677820E-04
  -24.0000  1.7693469E-04  1.8842349E-04  1.8342426E-04
  -23.0000  1.8367810E-04  1.9597580E-04  1.9053965E-04
  -22.0000  1.9089895E-04  2.0410235E-04  1.9817427E-04
  -21.0000  1.9864780E-04  2.1286927E-04  2.0638521E-04
  -20.0000  2.0698247E-04  2.2235308E-04  2.1523812E-04
  -19.0000  2.1596937E-04  2.3264276E-04  2.2480883E-04
  -18.0000  2.2568514E-04  2.4384243E-04  2.3518542E-04
  -17.0000  2.3621870E-04  2.5607458E-04  2.4647073E-04
  -16.0000  2.4767376E-04  2.6948436E-04  2.5878563E-04
  -15.0000  2.6017203E-04  2.8424491E-04  2.7227307E-04
  -14.0000  2.7385726E-04  3.0056441E-04  2.8710334E-04
  -13.0000  2.8890045E-04  3.1869531E-04  3.0348094E-04
  -12.0000  3.0550660E-04  3.3894656E-04  3.2165353E-04
  -11.0000  3.2392356E-04  3.6170012E-04  3.4192395E-04
  -10.0000  3.4445386E-04  3.8743364E-04  3.6466644E-04
  -9.00000  3.6747068E-04  4.1675190E-04  3.9034904E-04
  -8.00000  3.9343982E-04  4.5043160E-04  4.1956495E-04
  -7.00000  4.2295057E-04  4.8948617E-04  4.5307755E-04
  -6.00000  4.5675996E-04  5.3526217E-04  4.9188662E-04
  -5.00000  4.9585801E-04  5.8958664E-04  5.3732850E-04
  -4.00000  5.4156686E-04  6.5499979E-04  5.9123294E-04
  -3.00000  5.9569717E-04  7.3513724E-04  6.5617893E-04
  -2.00000  6.6080625E-04  8.3538813E-04  7.3593331E-04
  -1.00000  7.4064982E-04  9.6409675E-04  8.3625076E-04
   0.00000  8.4103406E-04  1.1349276E-03  9.6645522E-04
   1.00000  9.7159790E-04  1.3720124E-03  1.1429177E-03
   2.00000  1.1501363E-03  1.7228619E-03  1.3979378E-03
   3.00000  1.4157735E-03  2.2985569E-03  1.8080607E-03
   4.00000  1.8869355E-03  3.4510839E-03  2.6219540E-03
   5.00000  3.0606640E-03  6.6982625E-03  4.9582595E-03
   5.20000  3.4209258E-03  7.7481235E-03  5.7437895E-03
   5.40000  3.7861996E-03  8.8366431E-03  6.5777411E-03
   5.60000  4.1483376E-03  9.9422905E-03  7.4343965E-03
   5.80000  4.5126204E-03  1.1079754E-02  8.3032050E-03
   6.00000  4.8887733E-03  1.2275228E-02  9.1732409E-03
   6.20000  5.2868800E-03  1.3554994E-02  1.0026496E-02
   6.40000  5.7167286E-03  1.4943240E-02  1.0839539E-02
   6.60000  6.1880699E-03  1.6462169E-02  1.1590184E-02
   6.80000  6.7108297E-03  1.8131867E-02  1.2266497E-02
   7.00000  7.2950067E-03  1.9969511E-02  1.2874890E-02
   7.20000  7.9501130E-03  2.1987661E-02  1.3443891E-02
   7.40000  8.6839972E-03  2.4191107E-02  1.4021416E-02
   7.60000  9.5008900E-03  2.6571874E-02  1.4665959E-02
   7.80000  1.0398701E-02  2.9103076E-02  1.5434479E-02
   8.00000  1.1366280E-02  3.1734976E-02  1.6370510E-02
   8.20000  1.2382615E-02  3.4399519E-02  1.7495439E-02
   8.40000  1.3420737E-02  3.7027846E-02  1.8805551E-02
   8.60000  1.4457502E-02  3.9575648E-02  2.0276807E-02
   8.80000  1.5485545E-02  4.2039188E-02  2.1876145E-02
   9.00000  1.6519643E-02  4.4444845E-02  2.3573171E-02
   9.20000  1.7592445E-02  4.6815023E-02  2.5344937E-02
   9.40000  1.8742537E-02  4.9134076E-02  2.7171911E-02
   9.60000  2.0002216E-02  5.1335806E-02  2.9029844E-02
   9.80000  2.1389840E-02  5.3314839E-02  3.0884153E-02
   10.0000  2.2907137E-02  5.4949758E-02  3.2690561E-02
   10.2500  2.4962555E-02  5.6336417E-02  3.4807334E-02
   10.5000  2.7138326E-02  5.6837240E-02  3.6684682E-02
   10.7500  2.9351476E-02  5.6369060E-02  3.8252081E-02
   11.0000  3.1502264E-02  5.4952748E-02  3.9462000E-02
   11.2500  3.3483319E-02  5.2715450E-02  4.0295117E-02
   11.5000  3.5197783E-02  4.9866411E-02  4.0768417E-02
   11.7500  3.6580418E-02  4.6651043E-02  4.0933376E-02
   12.0000  3.7609742E-02  4.3302690E-02  4.0861719E-02
   12.2500  3.8306423E-02  4.0009582E-02  4.0627734E-02
   12.5000  3.8722685E-02  3.6902797E-02  4.0294635E-02
   12.7500  3.8927357E-02  3.4060117E-02  3.9908925E-02
   13.0000  3.8991296E-02  3.1517362E-02  3.9502398E-02
   13.2500  3.8978065E-02  2.9280814E-02  3.9097492E-02
   13.5000  3.8939427E-02  2.7338077E-02  3.8711016E-02
   13.7500  3.8913638E-02  2.5666600E-02  3.8355575E-02
   14.0000  3.8926265E-02  2.4239489E-02  3.8040728E-02
   14.2500  3.8992683E-02  2.3029050E-02  3.7773870E-02
   14.5000  3.9120698E-02  2.2008854E-02  3.7560157E-02
   14.7500  3.9312510E-02  2.1154885E-02  3.7401875E-02
   15.0000  3.9565995E-02  2.0446050E-02  3.7297840E-02
   15.2500  3.9875492E-02  1.9864268E-02  3.7243127E-02
   15.5000  4.0232295E-02  1.9394300E-02  3.7229187E-02
   15.7500  4.0624979E-02  1.9023454E-02  3.7244340E-02
   16.0000  4.1039708E-02  1.8741240E-02  3.7274608E-02
   16.2500  4.1460644E-02  1.8539034E-02  3.7304858E-02
   16.5000  4.1870531E-02  1.8409756E-02  3.7320136E-02
   16.7500  4.2251494E-02  1.8347600E-02  3.7307054E-02
   17.0000  4.2586033E-02  1.8347779E-02  3.7254997E-02
   17.2500  4.2858142E-02  1.8406316E-02  3.7156973E-02
   17.5000  4.3054442E-02  1.8519855E-02  3.7009949E-02
   17.7500  4.3165189E-02  1.8685508E-02  3.6814657E-02
   18.0000  4.3185014E-02  1.8900730E-02  3.6574965E-02
   18.2500  4.3113280E-02  1.9163219E-02  3.6296978E-02
   18.5000  4.2953979E-02  1.9470855E-02  3.5988080E-02
   18.7500  4.2715176E-02  1.9821656E-02  3.5656065E-02
   19.0000  4.2408042E-02  2.0213782E-02  3.5308452E-02
   19.2500  4.2045597E-02  2.0645563E-02  3.4951991E-02
   19.5000  4.1641327E-02  2.1115543E-02  3.4592366E-02
   19.7500  4.1207929E-02  2.1622447E-02  3.4234080E-02
   20.0000  4.0756518E-02  2.2164920E-02  3.3880586E-02
   21.0000  3.8935214E-02  2.4638766E-02  3.2566362E-02
   22.0000  3.7252178E-02  2.7429873E-02  3.1476455E-02
   23.0000  3.5625978E-02  3.0248351E-02  3.0592433E-02
   24.0000  3.3929115E-02  3.2707366E-02  2.9836932E-02
   25.0000  3.2139843E-02  3.4434005E-02  2.9134043E-02
   26.0000  3.0351892E-02  3.5240136E-02  2.8452461E-02
   27.0000  2.8730861E-02  3.5197210E-02  2.7818613E-02
   28.0000  2.7398285E-02  3.4553973E-02  2.7279909E-02
   29.0000  2.6400218E-02  3.3582842E-02  2.6874846E-02
   30.0000  2.5719103E-02  3.2491554E-02  2.6611602E-02
   31.0000  2.5293950E-02  3.1404889E-02  2.6461293E-02
   32.0000  2.5042829E-02  3.0377920E-02  2.6369184E-02
   33.0000  2.4877491E-02  2.9418633E-02  2.6272843E-02
   34.0000  2.4712947E-02  2.8509607E-02  2.6116986E-02
   35.0000  2.4478894E-02  2.7626080E-02  2.5861608E-02
   36.0000  2.4134914E-02  2.6750131E-02  2.5486376E-02
   37.0000  2.3682622E-02  2.5880783E-02  2.4995446E-02
   38.0000  2.3165046E-02  2.5040113E-02  2.4424012E-02
   39.0000  2.2653190E-02  2.4276867E-02  2.3843061E-02
   40.0000  2.2225737E-02  2.3660937E-02  2.3348770E-02
