    Energy   (100,001)      (010,001)      (001,110)   
  -25.0000  1.7188052E-04  1.8275350E-04  1.7796419E-04
  -24.0000  1.7777909E-04  1.8984256E-04  1.8400149E-04
  -23.0000  1.8405740E-04  1.9745110E-04  1.9042647E-04
  -22.0000  1.9075230E-04  2.0563663E-04  1.9727685E-04
  -21.0000  1.9790553E-04  2.1446529E-04  2.0459536E-04
  -20.0000  2.0556453E-04  2.2401354E-04  2.1243064E-04
  -19.0000  2.1378344E-04  2.3437026E-04  2.2083820E-04
  -18.0000  2.2262435E-04  2.4563931E-04  2.2988180E-04
  -17.0000  2.3215882E-04  2.5794278E-04  2.3963495E-04
  -16.0000  2.4246972E-04  2.7142515E-04  2.5018291E-04
  -15.0000  2.5365360E-04  2.8625859E-04  2.6162512E-04
  -14.0000  2.6582364E-04  3.0264982E-04  2.7407833E-04
  -13.0000  2.7911340E-04  3.2084915E-04  2.8768050E-04
  -12.0000  2.9368168E-04  3.4116240E-04  3.0259600E-04
  -11.0000  3.0971886E-04  3.6396705E-04  3.1902226E-04
  -10.0000  3.2745522E-04  3.8973416E-04  3.3719870E-04
  -9.00000  3.4717226E-04  4.1905897E-04  3.5741876E-04
  -8.00000  3.6921803E-04  4.5270412E-04  3.8004646E-04
  -7.00000  3.9402861E-04  4.9166221E-04  4.0553962E-04
  -6.00000  4.2215886E-04  5.3724852E-04  4.3448337E-04
  -5.00000  4.5432753E-04  5.9124245E-04  4.6763976E-04
  -4.00000  4.9148596E-04  6.5611036E-04  5.0602395E-04
  -3.00000  5.3492685E-04  7.3537123E-04  5.5102620E-04
  -2.00000  5.8646574E-04  8.3422589E-04  6.0461766E-04
  -1.00000  6.4876399E-04  9.6070785E-04  6.6972170E-04
   0.00000  7.2595580E-04  1.1279592E-03  7.5094429E-04
   1.00000  8.2501677E-04  1.3592337E-03  8.5619039E-04
   2.00000  9.5929286E-04  1.7006817E-03  1.0008839E-03
   3.00000  1.1601652E-03  2.2624029E-03  1.2220563E-03
   4.00000  1.5335088E-03  3.4080429E-03  1.6470245E-03
   5.00000  2.5558365E-03  6.7523942E-03  2.8467998E-03
   5.20000  2.8576469E-03  7.8034591E-03  3.1947982E-03
   5.40000  3.1401873E-03  8.8448134E-03  3.5153561E-03
   5.60000  3.3939445E-03  9.8458662E-03  3.8045139E-03
   5.80000  3.6245463E-03  1.0819950E-02  4.0785925E-03
   6.00000  3.8409364E-03  1.1790147E-02  4.3552723E-03
   6.20000  4.0508462E-03  1.2773446E-02  4.6451504E-03
   6.40000  4.2604179E-03  1.3778949E-02  4.9500576E-03
   6.60000  4.4747215E-03  1.4812801E-02  5.2643245E-03
   6.80000  4.6982925E-03  1.5886569E-02  5.5783725E-03
   7.00000  4.9355641E-03  1.7025048E-02  5.8840140E-03
   7.20000  5.1911078E-03  1.8268698E-02  6.1791767E-03
   7.40000  5.4696607E-03  1.9669226E-02  6.4694810E-03
   7.60000  5.7760323E-03  2.1281663E-02  6.7662836E-03
   7.80000  6.1150151E-03  2.3157421E-02  7.0831622E-03
   8.00000  6.4913979E-03  2.5340445E-02  7.4330699E-03
   8.20000  6.9100971E-03  2.7865415E-02  7.8270141E-03
   8.40000  7.3763351E-03  3.0755656E-02  8.2738888E-03
   8.60000  7.8957916E-03  3.4018925E-02  8.7807183E-03
   8.80000  8.4746692E-03  3.7640268E-02  9.3527132E-03
   9.00000  9.1196253E-03  4.1572223E-02  9.9928462E-03
   9.20000  9.8375349E-03  4.5723975E-02  1.0701060E-02
   9.40000  1.0635060E-02  4.9952949E-02  1.1473645E-02
   9.60000  1.1517956E-02  5.4064124E-02  1.2303453E-02
   9.80000  1.2490019E-02  5.7822100E-02  1.3181295E-02
   10.0000  1.3551638E-02  6.0976985E-02  1.4098154E-02
   10.2500  1.4996694E-02  6.3728360E-02  1.5288718E-02
   10.5000  1.6549319E-02  6.4873624E-02  1.6521340E-02
   10.7500  1.8166275E-02  6.4334103E-02  1.7790265E-02
   11.0000  1.9785949E-02  6.2282990E-02  1.9085375E-02
   11.2500  2.1335170E-02  5.9084153E-02  2.0387337E-02
   11.5000  2.2744876E-02  5.5180173E-02  2.1668188E-02
   11.7500  2.3969457E-02  5.0982570E-02  2.2897050E-02
   12.0000  2.4998957E-02  4.6807109E-02  2.4047272E-02
   12.2500  2.5858725E-02  4.2859776E-02  2.5101488E-02
   12.5000  2.6598940E-02  3.9254057E-02  2.6054634E-02
   12.7500  2.7279009E-02  3.6038031E-02  2.6914511E-02
   13.0000  2.7953981E-02  3.3217899E-02  2.7699111E-02
   13.2500  2.8666559E-02  3.0775309E-02  2.8432170E-02
   13.5000  2.9444138E-02  2.8679512E-02  2.9138805E-02
   13.7500  3.0299186E-02  2.6894787E-02  2.9841898E-02
   14.0000  3.1231310E-02  2.5384514E-02  3.0559829E-02
   14.2500  3.2229791E-02  2.4113679E-02  3.1305949E-02
   14.5000  3.3275976E-02  2.3050444E-02  3.2089048E-02
   14.7500  3.4345383E-02  2.2166817E-02  3.2913887E-02
   15.0000  3.5409578E-02  2.1438720E-02  3.3781486E-02
   15.2500  3.6438018E-02  2.0845751E-02  3.4689218E-02
   15.5000  3.7399968E-02  2.0370820E-02  3.5630789E-02
   15.7500  3.8266526E-02  1.9999750E-02  3.6596231E-02
   16.0000  3.9012676E-02  1.9720865E-02  3.7572014E-02
   16.2500  3.9619169E-02  1.9524593E-02  3.8541391E-02
   16.5000  4.0073987E-02  1.9403073E-02  3.9485053E-02
   16.7500  4.0373149E-02  1.9349795E-02  4.0382141E-02
   17.0000  4.0520722E-02  1.9359274E-02  4.1211576E-02
   17.2500  4.0528039E-02  1.9426768E-02  4.1953599E-02
   17.5000  4.0412298E-02  1.9548061E-02  4.2591337E-02
   17.7500  4.0194781E-02  1.9719303E-02  4.3112176E-02
   18.0000  3.9898983E-02  1.9936906E-02  4.3508724E-02
   18.2500  3.9548877E-02  2.0197491E-02  4.3779222E-02
   18.5000  3.9167496E-02  2.0497861E-02  4.3927349E-02
   18.7500  3.8775880E-02  2.0835013E-02  4.3961490E-02
   19.0000  3.8392392E-02  2.1206161E-02  4.3893588E-02
   19.2500  3.8032336E-02  2.1608796E-02  4.3737769E-02
   19.5000  3.7707805E-02  2.2040740E-02  4.3508944E-02
   19.7500  3.7427722E-02  2.2500134E-02  4.3221630E-02
   20.0000  3.7198126E-02  2.2985202E-02  4.2889286E-02
   21.0000  3.6837164E-02  2.5129757E-02  4.1341424E-02
   22.0000  3.7333485E-02  2.7454411E-02  3.9802244E-02
   23.0000  3.8402025E-02  2.9752901E-02  3.8414370E-02
   24.0000  3.9567135E-02  3.1783541E-02  3.7114229E-02
   25.0000  4.0291861E-02  3.3311840E-02  3.5807305E-02
   26.0000  4.0160942E-02  3.4189221E-02  3.4465713E-02
   27.0000  3.9064668E-02  3.4409296E-02  3.3151012E-02
   28.0000  3.7243847E-02  3.4096869E-02  3.1967726E-02
   29.0000  3.5127372E-02  3.3436015E-02  3.0995393E-02
   30.0000  3.3091804E-02  3.2593092E-02  3.0256066E-02
   31.0000  3.1337287E-02  3.1677750E-02  2.9724604E-02
   32.0000  2.9909471E-02  3.0742262E-02  2.9352409E-02
   33.0000  2.8772098E-02  2.9806183E-02  2.9083036E-02
   34.0000  2.7863589E-02  2.8877480E-02  2.8860949E-02
   35.0000  2.7128483E-02  2.7948538E-02  2.8639316E-02
   36.0000  2.6525262E-02  2.7013333E-02  2.8381544E-02
   37.0000  2.6023371E-02  2.6083817E-02  2.8063810E-02
   38.0000  2.5600593E-02  2.5192987E-02  2.7683597E-02
   39.0000  2.5245711E-02  2.4394579E-02  2.7272901E-02
   40.0000  2.4963647E-02  2.3757015E-02  2.6903450E-02
