    Energy   (100,001)      (010,001)      (001,110)   
  -25.0000  1.7104439E-04  1.8592964E-04  1.7347863E-04
  -24.0000  1.7746019E-04  1.9280591E-04  1.8001466E-04
  -23.0000  1.8432624E-04  2.0016941E-04  1.8701111E-04
  -22.0000  1.9169003E-04  2.0807272E-04  1.9451665E-04
  -21.0000  1.9960587E-04  2.1657619E-04  2.0258689E-04
  -20.0000  2.0813615E-04  2.2574937E-04  2.1128574E-04
  -19.0000  2.1735289E-04  2.3567288E-04  2.2068689E-04
  -18.0000  2.2733962E-04  2.4644066E-04  2.3087584E-04
  -17.0000  2.3819383E-04  2.5816278E-04  2.4195225E-04
  -16.0000  2.5002992E-04  2.7096907E-04  2.5403305E-04
  -15.0000  2.6298309E-04  2.8501370E-04  2.6725625E-04
  -14.0000  2.7721424E-04  3.0048109E-04  2.8178592E-04
  -13.0000  2.9291636E-04  3.1759370E-04  2.9781855E-04
  -12.0000  3.1032295E-04  3.3662220E-04  3.1559147E-04
  -11.0000  3.2971923E-04  3.5789916E-04  3.3539391E-04
  -10.0000  3.5145733E-04  3.8183767E-04  3.5758202E-04
  -9.00000  3.7597722E-04  4.0895704E-04  3.8259922E-04
  -8.00000  4.0383598E-04  4.3991889E-04  4.1100474E-04
  -7.00000  4.3574993E-04  4.7557909E-04  4.4351395E-04
  -6.00000  4.7265646E-04  5.1706413E-04  4.8105717E-04
  -5.00000  5.1580756E-04  5.6588657E-04  5.2486729E-04
  -4.00000  5.6691632E-04  6.2412522E-04  5.7661492E-04
  -3.00000  6.2839550E-04  6.9471746E-04  6.3862444E-04
  -2.00000  7.0376585E-04  7.8195591E-04  7.1423561E-04
  -1.00000  7.9839864E-04  8.9238309E-04  8.0844398E-04
   0.00000  9.2097551E-04  1.0365296E-03  9.2912062E-04
   1.00000  1.0866718E-03  1.2326545E-03  1.0895730E-03
   2.00000  1.3251791E-03  1.5160659E-03  1.3147157E-03
   3.00000  1.7058085E-03  1.9681991E-03  1.6594013E-03
   4.00000  2.4482762E-03  2.8470359E-03  2.2849570E-03
   5.00000  4.5144699E-03  5.2631502E-03  3.8512675E-03
   5.20000  5.2009994E-03  6.0164954E-03  4.3583649E-03
   5.40000  5.9308401E-03  6.7712676E-03  4.9081042E-03
   5.60000  6.6869852E-03  7.5093712E-03  5.4998028E-03
   5.80000  7.4701999E-03  8.2445472E-03  6.1446527E-03
   6.00000  8.2863688E-03  9.0001980E-03  6.8546384E-03
   6.20000  9.1398428E-03  9.7987989E-03  7.6365455E-03
   6.40000  1.0032287E-02  1.0659979E-02  8.4894377E-03
   6.60000  1.0964054E-02  1.1601318E-02  9.4035140E-03
   6.80000  1.1935717E-02  1.2639248E-02  1.0360837E-02
   7.00000  1.2948213E-02  1.3789445E-02  1.1339794E-02
   7.20000  1.4001485E-02  1.5067112E-02  1.2323904E-02
   7.40000  1.5092230E-02  1.6487620E-02  1.3311084E-02
   7.60000  1.6211139E-02  1.8067011E-02  1.4315997E-02
   7.80000  1.7340063E-02  1.9821165E-02  1.5362168E-02
   8.00000  1.8450837E-02  2.1762785E-02  1.6469558E-02
   8.20000  1.9508331E-02  2.3897043E-02  1.7646751E-02
   8.40000  2.0479380E-02  2.6218652E-02  1.8892493E-02
   8.60000  2.1346370E-02  2.8713344E-02  2.0204901E-02
   8.80000  2.2119830E-02  3.1364084E-02  2.1592005E-02
   9.00000  2.2841527E-02  3.4157747E-02  2.3075770E-02
   9.20000  2.3573088E-02  3.7085557E-02  2.4685482E-02
   9.40000  2.4374518E-02  4.0133928E-02  2.6443780E-02
   9.60000  2.5283587E-02  4.3268704E-02  2.8353014E-02
   9.80000  2.6305055E-02  4.6419299E-02  3.0387648E-02
   10.0000  2.7411714E-02  4.9469227E-02  3.2494047E-02
   10.2500  2.8838744E-02  5.2892583E-02  3.5111000E-02
   10.5000  3.0210879E-02  5.5541342E-02  3.7549879E-02
   10.7500  3.1432860E-02  5.7083889E-02  3.9649666E-02
   11.0000  3.2441717E-02  5.7328057E-02  4.1288968E-02
   11.2500  3.3212546E-02  5.6287725E-02  4.2400795E-02
   11.5000  3.3753435E-02  5.4173031E-02  4.2974956E-02
   11.7500  3.4093417E-02  5.1312831E-02  4.3051996E-02
   12.0000  3.4272575E-02  4.8055783E-02  4.2710850E-02
   12.2500  3.4335907E-02  4.4695505E-02  4.2053408E-02
   12.5000  3.4327401E-02  4.1438439E-02  4.1189397E-02
   12.7500  3.4284760E-02  3.8406993E-02  4.0222847E-02
   13.0000  3.4237106E-02  3.5659906E-02  3.9241254E-02
   13.2500  3.4205323E-02  3.3214779E-02  3.8310219E-02
   13.5000  3.4203588E-02  3.1065125E-02  3.7474674E-02
   13.7500  3.4241197E-02  2.9191402E-02  3.6763402E-02
   14.0000  3.4323988E-02  2.7568096E-02  3.6193332E-02
   14.2500  3.4454820E-02  2.6168422E-02  3.5772351E-02
   14.5000  3.4633498E-02  2.4967134E-02  3.5501082E-02
   14.7500  3.4856872E-02  2.3941668E-02  3.5374346E-02
   15.0000  3.5119144E-02  2.3072244E-02  3.5382314E-02
   15.2500  3.5412083E-02  2.2341617E-02  3.5511148E-02
   15.5000  3.5725201E-02  2.1734772E-02  3.5743259E-02
   15.7500  3.6046033E-02  2.1238608E-02  3.6057456E-02
   16.0000  3.6360650E-02  2.0841658E-02  3.6429288E-02
   16.2500  3.6654436E-02  2.0533824E-02  3.6831775E-02
   16.5000  3.6913133E-02  2.0306162E-02  3.7236634E-02
   16.7500  3.7124041E-02  2.0150703E-02  3.7615974E-02
   17.0000  3.7277241E-02  2.0060328E-02  3.7944258E-02
   17.2500  3.7366653E-02  2.0028678E-02  3.8200247E-02
   17.5000  3.7390720E-02  2.0050090E-02  3.8368560E-02
   17.7500  3.7352611E-02  2.0119562E-02  3.8440576E-02
   18.0000  3.7259857E-02  2.0232708E-02  3.8414524E-02
   18.2500  3.7123520E-02  2.0385724E-02  3.8294787E-02
   18.5000  3.6957013E-02  2.0575342E-02  3.8090624E-02
   18.7500  3.6774795E-02  2.0798779E-02  3.7814559E-02
   19.0000  3.6591128E-02  2.1053694E-02  3.7480728E-02
   19.2500  3.6419020E-02  2.1338160E-02  3.7103369E-02
   19.5000  3.6269446E-02  2.1650641E-02  3.6695613E-02
   19.7500  3.6150852E-02  2.1989930E-02  3.6268686E-02
   20.0000  3.6068950E-02  2.2354939E-02  3.5831680E-02
   21.0000  3.6138640E-02  2.4039704E-02  3.4111401E-02
   22.0000  3.6691325E-02  2.5997659E-02  3.2585008E-02
   23.0000  3.7195845E-02  2.8114594E-02  3.1253655E-02
   24.0000  3.6953346E-02  3.0239873E-02  3.0055476E-02
   25.0000  3.5539927E-02  3.2172292E-02  2.8962327E-02
   26.0000  3.3165366E-02  3.3682727E-02  2.8000520E-02
   27.0000  3.0498167E-02  3.4596943E-02  2.7217265E-02
   28.0000  2.8101714E-02  3.4903187E-02  2.6614553E-02
   29.0000  2.6215099E-02  3.4715017E-02  2.6157144E-02
   30.0000  2.4843356E-02  3.4190998E-02  2.5811269E-02
   31.0000  2.3891495E-02  3.3477054E-02  2.5551365E-02
   32.0000  2.3247110E-02  3.2676693E-02  2.5347026E-02
   33.0000  2.2812842E-02  3.1847729E-02  2.5158456E-02
   34.0000  2.2513983E-02  3.1013783E-02  2.4943435E-02
   35.0000  2.2297746E-02  3.0179722E-02  2.4666820E-02
   36.0000  2.2130065E-02  2.9345362E-02  2.4308305E-02
   37.0000  2.1990812E-02  2.8515839E-02  2.3869006E-02
   38.0000  2.1868090E-02  2.7710345E-02  2.3376929E-02
   39.0000  2.1755800E-02  2.6971912E-02  2.2888592E-02
   40.0000  2.1657126E-02  2.6370580E-02  2.2478094E-02
