    Energy   (100,001)      (010,001)      (001,110)   
  -25.0000  1.6830787E-04  1.8735791E-04  1.7383478E-04
  -24.0000  1.7436742E-04  1.9434645E-04  1.8011531E-04
  -23.0000  1.8083324E-04  2.0183508E-04  1.8682114E-04
  -22.0000  1.8774622E-04  2.0987834E-04  1.9399559E-04
  -21.0000  1.9515285E-04  2.1853888E-04  2.0168800E-04
  -20.0000  2.0310620E-04  2.2788907E-04  2.0995479E-04
  -19.0000  2.1166713E-04  2.3801291E-04  2.1886076E-04
  -18.0000  2.2090573E-04  2.4900841E-04  2.2848072E-04
  -17.0000  2.3090323E-04  2.6099070E-04  2.3890148E-04
  -16.0000  2.4175418E-04  2.7409584E-04  2.5022434E-04
  -15.0000  2.5356940E-04  2.8848574E-04  2.6256828E-04
  -14.0000  2.6647960E-04  3.0435465E-04  2.7607396E-04
  -13.0000  2.8064004E-04  3.2193746E-04  2.9090896E-04
  -12.0000  2.9623668E-04  3.4152092E-04  3.0727448E-04
  -11.0000  3.1349415E-04  3.6345860E-04  3.2541438E-04
  -10.0000  3.3268653E-04  3.8819142E-04  3.4562717E-04
  -9.00000  3.5415189E-04  4.1627615E-04  3.6828246E-04
  -8.00000  3.7831247E-04  4.4842582E-04  3.9384380E-04
  -7.00000  4.0570323E-04  4.8556833E-04  4.2290125E-04
  -6.00000  4.3701319E-04  5.2893341E-04  4.5621884E-04
  -5.00000  4.7314714E-04  5.8018570E-04  4.9480600E-04
  -4.00000  5.1532093E-04  6.4163517E-04  5.4002882E-04
  -3.00000  5.6521493E-04  7.1658379E-04  5.9379102E-04
  -2.00000  6.2523413E-04  8.0992528E-04  6.5884421E-04
  -1.00000  6.9897872E-04  9.2924839E-04  7.3935598E-04
   0.00000  7.9217028E-04  1.0870336E-03  8.4204256E-04
   1.00000  9.1469448E-04  1.3055142E-03  9.7869632E-04
   2.00000  1.0858869E-03  1.6291668E-03  1.1727781E-03
   3.00000  1.3518880E-03  2.1648797E-03  1.4810140E-03
   4.00000  1.8681144E-03  3.2663654E-03  2.0938465E-03
   5.00000  3.3317899E-03  6.5177471E-03  3.8948363E-03
   5.20000  3.7769603E-03  7.5690323E-03  4.5035770E-03
   5.40000  4.2066754E-03  8.6368515E-03  5.1447349E-03
   5.60000  4.6127448E-03  9.6860847E-03  5.7924171E-03
   5.80000  5.0103911E-03  1.0715212E-02  6.4310662E-03
   6.00000  5.4170469E-03  1.1729159E-02  7.0437616E-03
   6.20000  5.8390890E-03  1.2732153E-02  7.6072472E-03
   6.40000  6.2689448E-03  1.3736239E-02  8.0938275E-03
   6.60000  6.6925067E-03  1.4771738E-02  8.4799564E-03
   6.80000  7.1009079E-03  1.5886570E-02  8.7595632E-03
   7.00000  7.4963440E-03  1.7131192E-02  8.9534632E-03
   7.20000  7.8889906E-03  1.8540521E-02  9.1063293E-03
   7.40000  8.2908184E-03  2.0125883E-02  9.2727799E-03
   7.60000  8.7116610E-03  2.1878049E-02  9.5013347E-03
   7.80000  9.1584790E-03  2.3774341E-02  9.8229320E-03
   8.00000  9.6367083E-03  2.5784303E-02  1.0246113E-02
   8.20000  1.0152442E-02  2.7872291E-02  1.0759092E-02
   8.40000  1.0714184E-02  2.9997789E-02  1.1338331E-02
   8.60000  1.1332981E-02  3.2116359E-02  1.1961117E-02
   8.80000  1.2020592E-02  3.4184755E-02  1.2616771E-02
   9.00000  1.2786682E-02  3.6170236E-02  1.3311140E-02
   9.20000  1.3636620E-02  3.8059025E-02  1.4063106E-02
   9.40000  1.4570742E-02  3.9857794E-02  1.4896531E-02
   9.60000  1.5584865E-02  4.1586324E-02  1.5832344E-02
   9.80000  1.6671323E-02  4.3264922E-02  1.6883559E-02
   10.0000  1.7819723E-02  4.4901769E-02  1.8053416E-02
   10.2500  1.9321936E-02  4.6861829E-02  1.9672013E-02
   10.5000  2.0866912E-02  4.8616176E-02  2.1434785E-02
   10.7500  2.2413652E-02  4.9960326E-02  2.3295485E-02
   11.0000  2.3918874E-02  5.0668252E-02  2.5197444E-02
   11.2500  2.5344651E-02  5.0589528E-02  2.7079508E-02
   11.5000  2.6661974E-02  4.9707638E-02  2.8882787E-02
   11.7500  2.7853318E-02  4.8134865E-02  3.0557301E-02
   12.0000  2.8915696E-02  4.6061313E-02  3.2066819E-02
   12.2500  2.9861401E-02  4.3694955E-02  3.3390995E-02
   12.5000  3.0714855E-02  4.1218734E-02  3.4524796E-02
   12.7500  3.1506651E-02  3.8771285E-02  3.5476396E-02
   13.0000  3.2267423E-02  3.6445849E-02  3.6264620E-02
   13.2500  3.3023163E-02  3.4298000E-02  3.6916063E-02
   13.5000  3.3792046E-02  3.2355088E-02  3.7462368E-02
   13.7500  3.4582936E-02  3.0624634E-02  3.7937459E-02
   14.0000  3.5395558E-02  2.9101191E-02  3.8374532E-02
   14.2500  3.6221712E-02  2.7771644E-02  3.8803253E-02
   14.5000  3.7046957E-02  2.6619093E-02  3.9247621E-02
   14.7500  3.7852431E-02  2.5625497E-02  3.9724614E-02
   15.0000  3.8616688E-02  2.4773341E-02  4.0243533E-02
   15.2500  3.9317502E-02  2.4046556E-02  4.0805844E-02
   15.5000  3.9933588E-02  2.3430921E-02  4.1405429E-02
   15.7500  4.0446176E-02  2.2914139E-02  4.2029198E-02
   16.0000  4.0840373E-02  2.2485731E-02  4.2658070E-02
   16.2500  4.1106215E-02  2.2136860E-02  4.3268375E-02
   16.5000  4.1239352E-02  2.1860116E-02  4.3833660E-02
   16.7500  4.1241311E-02  2.1649326E-02  4.4326842E-02
   17.0000  4.1119338E-02  2.1499366E-02  4.4722531E-02
   17.2500  4.0885857E-02  2.1405997E-02  4.4999294E-02
   17.5000  4.0557591E-02  2.1365704E-02  4.5141558E-02
   17.7500  4.0154444E-02  2.1375543E-02  4.5140904E-02
   18.0000  3.9698253E-02  2.1432993E-02  4.4996559E-02
   18.2500  3.9211507E-02  2.1535817E-02  4.4715056E-02
   18.5000  3.8716154E-02  2.1681948E-02  4.4309165E-02
   18.7500  3.8232579E-02  2.1869403E-02  4.3796293E-02
   19.0000  3.7778793E-02  2.2096249E-02  4.3196625E-02
   19.2500  3.7369864E-02  2.2360595E-02  4.2531234E-02
   19.5000  3.7017544E-02  2.2660620E-02  4.1820367E-02
   19.7500  3.6730103E-02  2.2994557E-02  4.1082200E-02
   20.0000  3.6512407E-02  2.3360506E-02  4.0332387E-02
   21.0000  3.6343938E-02  2.5087359E-02  3.7468355E-02
   22.0000  3.7088099E-02  2.7072500E-02  3.5176125E-02
   23.0000  3.8165724E-02  2.9082344E-02  3.3523121E-02
   24.0000  3.8865915E-02  3.0860861E-02  3.2342326E-02
   25.0000  3.8652265E-02  3.2187159E-02  3.1421744E-02
   26.0000  3.7411840E-02  3.2953016E-02  3.0596690E-02
   27.0000  3.5459243E-02  3.3194133E-02  2.9785619E-02
   28.0000  3.3249893E-02  3.3045809E-02  2.8972442E-02
   29.0000  3.1152608E-02  3.2655261E-02  2.8190136E-02
   30.0000  2.9372275E-02  3.2136267E-02  2.7489295E-02
   31.0000  2.7968967E-02  3.1563778E-02  2.6904355E-02
   32.0000  2.6912750E-02  3.0978868E-02  2.6440489E-02
   33.0000  2.6131912E-02  3.0395546E-02  2.6078362E-02
   34.0000  2.5542699E-02  2.9809029E-02  2.5783491E-02
   35.0000  2.5064646E-02  2.9205860E-02  2.5514662E-02
   36.0000  2.4629054E-02  2.8575454E-02  2.5231996E-02
   37.0000  2.4186426E-02  2.7920970E-02  2.4905918E-02
   38.0000  2.3716178E-02  2.7266474E-02  2.4528244E-02
   39.0000  2.3238943E-02  2.6659424E-02  2.4125569E-02
   40.0000  2.2819261E-02  2.6165083E-02  2.3764178E-02
