    Energy   (100,001)      (010,001)      (001,110)   
  -25.0000  1.6597769E-04  1.7484689E-04  1.6977803E-04
  -24.0000  1.7212445E-04  1.8163347E-04  1.7612902E-04
  -23.0000  1.7869318E-04  1.8891527E-04  1.8292226E-04
  -22.0000  1.8572719E-04  1.9674675E-04  1.9020382E-04
  -21.0000  1.9327580E-04  2.0519052E-04  1.9802628E-04
  -20.0000  2.0139544E-04  2.1431888E-04  2.0644989E-04
  -19.0000  2.1015095E-04  2.2421577E-04  2.1554399E-04
  -18.0000  2.1961718E-04  2.3497920E-04  2.2538882E-04
  -17.0000  2.2988101E-04  2.4672422E-04  2.3607769E-04
  -16.0000  2.4104385E-04  2.5958683E-04  2.4771973E-04
  -15.0000  2.5322474E-04  2.7372884E-04  2.6044335E-04
  -14.0000  2.6656444E-04  2.8934428E-04  2.7440071E-04
  -13.0000  2.8123048E-04  3.0666767E-04  2.8977334E-04
  -12.0000  2.9742394E-04  3.2598508E-04  3.0677966E-04
  -11.0000  3.1538819E-04  3.4764889E-04  3.2568467E-04
  -10.0000  3.3542071E-04  3.7209796E-04  3.4681313E-04
  -9.00000  3.5788905E-04  3.9988550E-04  3.7056729E-04
  -8.00000  3.8325284E-04  4.3171844E-04  3.9745155E-04
  -7.00000  4.1209492E-04  4.6851419E-04  4.2810710E-04
  -6.00000  4.4516609E-04  5.1148429E-04  4.6336207E-04
  -5.00000  4.8345151E-04  5.6226145E-04  5.0430580E-04
  -4.00000  5.2827220E-04  6.2309851E-04  5.5240242E-04
  -3.00000  5.8144647E-04  6.9719244E-04  6.0967158E-04
  -2.00000  6.4555879E-04  7.8923727E-04  6.7898956E-04
  -1.00000  7.2443524E-04  9.0642467E-04  7.6462185E-04
   0.00000  8.2405197E-04  1.0603975E-03  8.7324224E-04
   1.00000  9.5446199E-04  1.2714763E-03  1.0161019E-03
   2.00000  1.1345405E-03  1.5792526E-03  1.2144100E-03
   3.00000  1.4066461E-03  2.0758400E-03  1.5161570E-03
   4.00000  1.9017504E-03  3.0558282E-03  2.0719297E-03
   5.00000  3.1742838E-03  5.8041148E-03  3.5477795E-03
   5.20000  3.5666523E-03  6.6721910E-03  4.0259968E-03
   5.40000  3.9656955E-03  7.5427883E-03  4.5206274E-03
   5.60000  4.3673839E-03  8.3851122E-03  5.0069196E-03
   5.80000  4.7836241E-03  9.2025626E-03  5.4677714E-03
   6.00000  5.2298076E-03  1.0012973E-02  5.8896873E-03
   6.20000  5.7179161E-03  1.0840107E-02  6.2676050E-03
   6.40000  6.2532274E-03  1.1712009E-02  6.6123975E-03
   6.60000  6.8323950E-03  1.2660227E-02  6.9517996E-03
   6.80000  7.4442153E-03  1.3718453E-02  7.3222901E-03
   7.00000  8.0748507E-03  1.4920766E-02  7.7579008E-03
   7.20000  8.7151401E-03  1.6299728E-02  8.2832901E-03
   7.40000  9.3645811E-03  1.7884564E-02  8.9128868E-03
   7.60000  1.0029775E-02  1.9699641E-02  9.6533221E-03
   7.80000  1.0719991E-02  2.1763324E-02  1.0506248E-02
   8.00000  1.1443291E-02  2.4087407E-02  1.1470437E-02
   8.20000  1.2204777E-02  2.6677435E-02  1.2543481E-02
   8.40000  1.3006997E-02  2.9533897E-02  1.3723786E-02
   8.60000  1.3851940E-02  3.2653156E-02  1.5013033E-02
   8.80000  1.4743646E-02  3.6025454E-02  1.6418265E-02
   9.00000  1.5690176E-02  3.9626935E-02  1.7952073E-02
   9.20000  1.6703859E-02  4.3404973E-02  1.9629780E-02
   9.40000  1.7799603E-02  4.7260670E-02  2.1464033E-02
   9.60000  1.8991969E-02  5.1036683E-02  2.3458675E-02
   9.80000  2.0291995E-02  5.4519642E-02  2.5603972E-02
   10.0000  2.1704321E-02  5.7462791E-02  2.7874225E-02
   10.2500  2.3620278E-02  6.0022830E-02  3.0822653E-02
   10.5000  2.5672604E-02  6.1041162E-02  3.3788373E-02
   10.7500  2.7800165E-02  6.0447504E-02  3.6637571E-02
   11.0000  2.9912651E-02  5.8447301E-02  3.9227318E-02
   11.2500  3.1901242E-02  5.5430407E-02  4.1420355E-02
   11.5000  3.3659207E-02  5.1835999E-02  4.3103313E-02
   11.7500  3.5104576E-02  4.8044622E-02  4.4206672E-02
   12.0000  3.6197067E-02  4.4328205E-02  4.4720567E-02
   12.2500  3.6943656E-02  4.0849401E-02  4.4697636E-02
   12.5000  3.7391425E-02  3.7686905E-02  4.4240060E-02
   12.7500  3.7612548E-02  3.4865758E-02  4.3476972E-02
   13.0000  3.7687983E-02  3.2380837E-02  4.2539924E-02
   13.2500  3.7693869E-02  3.0211722E-02  4.1543868E-02
   13.5000  3.7692833E-02  2.8331198E-02  4.0578123E-02
   13.7500  3.7730492E-02  2.6709961E-02  3.9705476E-02
   14.0000  3.7835683E-02  2.5319270E-02  3.8965422E-02
   14.2500  3.8022579E-02  2.4132408E-02  3.8378785E-02
   14.5000  3.8293331E-02  2.3125369E-02  3.7952232E-02
   14.7500  3.8640511E-02  2.2277057E-02  3.7681999E-02
   15.0000  3.9049124E-02  2.1569209E-02  3.7556643E-02
   15.2500  3.9498277E-02  2.0986158E-02  3.7558964E-02
   15.5000  3.9962688E-02  2.0514534E-02  3.7667341E-02
   15.7500  4.0414258E-02  2.0142944E-02  3.7856807E-02
   16.0000  4.0823830E-02  1.9861662E-02  3.8100098E-02
   16.2500  4.1163160E-02  1.9662353E-02  3.8368867E-02
   16.5000  4.1407018E-02  1.9537822E-02  3.8635101E-02
   16.7500  4.1535213E-02  1.9481808E-02  3.8872717E-02
   17.0000  4.1534297E-02  1.9488811E-02  3.9059149E-02
   17.2500  4.1398661E-02  1.9553955E-02  3.9176716E-02
   17.5000  4.1130877E-02  1.9672880E-02  3.9213542E-02
   17.7500  4.0741215E-02  1.9841647E-02  3.9163895E-02
   18.0000  4.0246438E-02  2.0056674E-02  3.9027907E-02
   18.2500  3.9668095E-02  2.0314676E-02  3.8810761E-02
   18.5000  3.9030549E-02  2.0612627E-02  3.8521519E-02
   18.7500  3.8359030E-02  2.0947736E-02  3.8171766E-02
   19.0000  3.7677884E-02  2.1317453E-02  3.7774276E-02
   19.2500  3.7009143E-02  2.1719499E-02  3.7341793E-02
   19.5000  3.6371470E-02  2.2151913E-02  3.6886050E-02
   19.7500  3.5779549E-02  2.2613032E-02  3.6417116E-02
   20.0000  3.5244081E-02  2.3101259E-02  3.5943240E-02
   21.0000  3.3781716E-02  2.5276106E-02  3.4120831E-02
   22.0000  3.3419442E-02  2.7665690E-02  3.2568221E-02
   23.0000  3.3793921E-02  3.0062485E-02  3.1287122E-02
   24.0000  3.4305048E-02  3.2200631E-02  3.0190221E-02
   25.0000  3.4372394E-02  3.3790435E-02  2.9205113E-02
   26.0000  3.3702158E-02  3.4623525E-02  2.8307303E-02
   27.0000  3.2396704E-02  3.4689109E-02  2.7504180E-02
   28.0000  3.0810324E-02  3.4144721E-02  2.6823948E-02
   29.0000  2.9277833E-02  3.3215838E-02  2.6292770E-02
   30.0000  2.7966079E-02  3.2105892E-02  2.5909012E-02
   31.0000  2.6895105E-02  3.0953046E-02  2.5637607E-02
   32.0000  2.6015147E-02  2.9829460E-02  2.5423597E-02
   33.0000  2.5261884E-02  2.8759153E-02  2.5210617E-02
   34.0000  2.4581346E-02  2.7738343E-02  2.4953025E-02
   35.0000  2.3938543E-02  2.6752395E-02  2.4620314E-02
   36.0000  2.3319489E-02  2.5788912E-02  2.4198330E-02
   37.0000  2.2729838E-02  2.4847629E-02  2.3691812E-02
   38.0000  2.2190440E-02  2.3948230E-02  2.3129867E-02
   39.0000  2.1729669E-02  2.3136888E-02  2.2571687E-02
   40.0000  2.1373016E-02  2.2483184E-02  2.2100030E-02
