    Energy   (100,001)      (010,001)      (001,110)   
  -25.0000  1.6933812E-04  1.7643798E-04  1.8029205E-04
  -24.0000  1.7553015E-04  1.8336077E-04  1.8706772E-04
  -23.0000  1.8214523E-04  1.9079395E-04  1.9432611E-04
  -22.0000  1.8922674E-04  1.9879421E-04  2.0211930E-04
  -21.0000  1.9682412E-04  2.0742682E-04  2.1050703E-04
  -20.0000  2.0499392E-04  2.1676725E-04  2.1955817E-04
  -19.0000  2.1380115E-04  2.2690327E-04  2.2935249E-04
  -18.0000  2.2332088E-04  2.3793749E-04  2.3998295E-04
  -17.0000  2.3364030E-04  2.4999060E-04  2.5155847E-04
  -16.0000  2.4486118E-04  2.6320550E-04  2.6420754E-04
  -15.0000  2.5710314E-04  2.7775257E-04  2.7808276E-04
  -14.0000  2.7050764E-04  2.9383652E-04  2.9336681E-04
  -13.0000  2.8524329E-04  3.1170541E-04  3.1028017E-04
  -12.0000  3.0151259E-04  3.3166255E-04  3.2909145E-04
  -11.0000  3.1956104E-04  3.5408259E-04  3.5013124E-04
  -10.0000  3.3968916E-04  3.7943354E-04  3.7381117E-04
  -9.00000  3.6226897E-04  4.0830737E-04  4.0065030E-04
  -8.00000  3.8776689E-04  4.4146335E-04  4.3131287E-04
  -7.00000  4.1677612E-04  4.7989091E-04  4.6666310E-04
  -6.00000  4.5006381E-04  5.2490290E-04  5.0784722E-04
  -5.00000  4.8864157E-04  5.7827802E-04  5.5641992E-04
  -4.00000  5.3387470E-04  6.4248570E-04  6.1454669E-04
  -3.00000  5.8765859E-04  7.2105540E-04  6.8534180E-04
  -2.00000  6.5271863E-04  8.1921320E-04  7.7346330E-04
  -1.00000  7.3315477E-04  9.4504719E-04  8.8623146E-04
   0.00000  8.3551803E-04  1.1118137E-03  1.0359126E-03
   1.00000  9.7119955E-04  1.3430073E-03  1.2449209E-03
   2.00000  1.1626684E-03  1.6853009E-03  1.5595883E-03
   3.00000  1.4642205E-03  2.2499931E-03  2.0955761E-03
   4.00000  2.0622095E-03  3.4035732E-03  3.2483718E-03
   5.00000  3.8120576E-03  6.7879316E-03  6.8904136E-03
   5.20000  4.3494244E-03  7.8707458E-03  8.1716786E-03
   5.40000  4.8603412E-03  8.9456421E-03  9.5282700E-03
   5.60000  5.3206693E-03  9.9581401E-03  1.0871348E-02
   5.80000  5.7326179E-03  1.0902889E-02  1.2144378E-02
   6.00000  6.1068456E-03  1.1805929E-02  1.3335913E-02
   6.20000  6.4542200E-03  1.2709347E-02  1.4469867E-02
   6.40000  6.7846087E-03  1.3657661E-02  1.5569498E-02
   6.60000  7.1084432E-03  1.4689514E-02  1.6626763E-02
   6.80000  7.4388607E-03  1.5836993E-02  1.7604786E-02
   7.00000  7.7923734E-03  1.7128948E-02  1.8466008E-02
   7.20000  8.1871055E-03  1.8594085E-02  1.9196981E-02
   7.40000  8.6398183E-03  2.0262546E-02  1.9810965E-02
   7.60000  9.1636882E-03  2.2166590E-02  2.0333554E-02
   7.80000  9.7677092E-03  2.4340849E-02  2.0787993E-02
   8.00000  1.0457400E-02  2.6821669E-02  2.1190650E-02
   8.20000  1.1236157E-02  2.9644438E-02  2.1556163E-02
   8.40000  1.2106728E-02  3.2837610E-02  2.1905876E-02
   8.60000  1.3072376E-02  3.6412389E-02  2.2273031E-02
   8.80000  1.4137267E-02  4.0347718E-02  2.2701398E-02
   9.00000  1.5305680E-02  4.4571661E-02  2.3238047E-02
   9.20000  1.6579920E-02  4.8942513E-02  2.3923705E-02
   9.40000  1.7957362E-02  5.3236531E-02  2.4784328E-02
   9.60000  1.9427282E-02  5.7153297E-02  2.5825858E-02
   9.80000  2.0968403E-02  6.0350701E-02  2.7031488E-02
   10.0000  2.2548252E-02  6.2511032E-02  2.8361028E-02
   10.2500  2.4513832E-02  6.3440013E-02  3.0105495E-02
   10.5000  2.6387259E-02  6.2365723E-02  3.1816228E-02
   10.7500  2.8093254E-02  5.9636948E-02  3.3374557E-02
   11.0000  2.9586839E-02  5.5841809E-02  3.4706213E-02
   11.2500  3.0859757E-02  5.1577611E-02  3.5785493E-02
   11.5000  3.1934078E-02  4.7301824E-02  3.6620422E-02
   11.7500  3.2849245E-02  4.3295469E-02  3.7236821E-02
   12.0000  3.3648742E-02  3.9693604E-02  3.7667163E-02
   12.2500  3.4369956E-02  3.6535320E-02  3.7943720E-02
   12.5000  3.5038741E-02  3.3807589E-02  3.8095728E-02
   12.7500  3.5668770E-02  3.1473829E-02  3.8149316E-02
   13.0000  3.6264291E-02  2.9489115E-02  3.8128139E-02
   13.2500  3.6824145E-02  2.7807774E-02  3.8053918E-02
   13.5000  3.7345341E-02  2.6387196E-02  3.7946780E-02
   13.7500  3.7825446E-02  2.5189561E-02  3.7825213E-02
   14.0000  3.8263599E-02  2.4182361E-02  3.7705584E-02
   14.2500  3.8660355E-02  2.3338245E-02  3.7601343E-02
   14.5000  3.9016838E-02  2.2634529E-02  3.7522153E-02
   14.7500  3.9333694E-02  2.2052562E-02  3.7473187E-02
   15.0000  3.9610290E-02  2.1577078E-02  3.7454758E-02
   15.2500  3.9844369E-02  2.1195583E-02  3.7462372E-02
   15.5000  4.0032228E-02  2.0897807E-02  3.7487239E-02
   15.7500  4.0169342E-02  2.0675236E-02  3.7517205E-02
   16.0000  4.0251294E-02  2.0520725E-02  3.7538049E-02
   16.2500  4.0274826E-02  2.0428188E-02  3.7534985E-02
   16.5000  4.0238829E-02  2.0392360E-02  3.7494209E-02
   16.7500  4.0145079E-02  2.0408605E-02  3.7404275E-02
   17.0000  3.9998611E-02  2.0472781E-02  3.7257141E-02
   17.2500  3.9807647E-02  2.0581130E-02  3.7048758E-02
   17.5000  3.9583086E-02  2.0730202E-02  3.6779159E-02
   17.7500  3.9337630E-02  2.0916796E-02  3.6452115E-02
   18.0000  3.9084681E-02  2.1137921E-02  3.6074447E-02
   18.2500  3.8837188E-02  2.1390766E-02  3.5655138E-02
   18.5000  3.8606591E-02  2.1672682E-02  3.5204401E-02
   18.7500  3.8402022E-02  2.1981173E-02  3.4732787E-02
   19.0000  3.8229805E-02  2.2313905E-02  3.4250433E-02
   19.2500  3.8093272E-02  2.2668741E-02  3.3766457E-02
   19.5000  3.7992855E-02  2.3043778E-02  3.3288530E-02
   19.7500  3.7926330E-02  2.3437342E-02  3.2822662E-02
   20.0000  3.7889092E-02  2.3847800E-02  3.2373328E-02
   21.0000  3.7876821E-02  2.5611391E-02  3.0802744E-02
   22.0000  3.7645065E-02  2.7446993E-02  2.9661903E-02
   23.0000  3.6725962E-02  2.9214866E-02  2.8917610E-02
   24.0000  3.5012215E-02  3.0785539E-02  2.8472214E-02
   25.0000  3.2803958E-02  3.2036645E-02  2.8203866E-02
   26.0000  3.0585286E-02  3.2870295E-02  2.7994403E-02
   27.0000  2.8731173E-02  3.3246244E-02  2.7766278E-02
   28.0000  2.7356034E-02  3.3201416E-02  2.7496236E-02
   29.0000  2.6393260E-02  3.2823751E-02  2.7204938E-02
   30.0000  2.5722040E-02  3.2212671E-02  2.6926792E-02
   31.0000  2.5237931E-02  3.1449468E-02  2.6683554E-02
   32.0000  2.4868225E-02  3.0585013E-02  2.6476166E-02
   33.0000  2.4561961E-02  2.9643608E-02  2.6289239E-02
   34.0000  2.4280399E-02  2.8635212E-02  2.6099036E-02
   35.0000  2.3995195E-02  2.7568498E-02  2.5879953E-02
   36.0000  2.3691000E-02  2.6461074E-02  2.5609416E-02
   37.0000  2.3366933E-02  2.5345397E-02  2.5273408E-02
   38.0000  2.3035282E-02  2.4271572E-02  2.4876439E-02
   39.0000  2.2720375E-02  2.3309599E-02  2.4455640E-02
   40.0000  2.2457112E-02  2.2543288E-02  2.4083784E-02
