    Energy   (100,001)      (010,001)      (001,110)   
  -25.0000  1.6800151E-04  1.8115645E-04  1.7190533E-04
  -24.0000  1.7436470E-04  1.8827795E-04  1.7854653E-04
  -23.0000  1.8117402E-04  1.9592922E-04  1.8566588E-04
  -22.0000  1.8847610E-04  2.0416984E-04  1.9331500E-04
  -21.0000  1.9632419E-04  2.1306848E-04  2.0155299E-04
  -20.0000  2.0477929E-04  2.2270476E-04  2.1044797E-04
  -19.0000  2.1391165E-04  2.3317140E-04  2.2007872E-04
  -18.0000  2.2380253E-04  2.4457707E-04  2.3053693E-04
  -17.0000  2.3454646E-04  2.5704988E-04  2.4192984E-04
  -16.0000  2.4625401E-04  2.7074191E-04  2.5438372E-04
  -15.0000  2.5905531E-04  2.8583497E-04  2.6804820E-04
  -14.0000  2.7310452E-04  3.0254817E-04  2.8310191E-04
  -13.0000  2.8858561E-04  3.2114782E-04  2.9975979E-04
  -12.0000  3.0571989E-04  3.4196071E-04  3.1828270E-04
  -11.0000  3.2477588E-04  3.6539202E-04  3.3899037E-04
  -10.0000  3.4608257E-04  3.9194994E-04  3.6227882E-04
  -9.00000  3.7004739E-04  4.2228012E-04  3.8864447E-04
  -8.00000  3.9718104E-04  4.5721472E-04  4.1871801E-04
  -7.00000  4.2813250E-04  4.9784390E-04  4.5331298E-04
  -6.00000  4.6373942E-04  5.4562253E-04  4.9349727E-04
  -5.00000  5.0510272E-04  6.0253412E-04  5.4070124E-04
  -4.00000  5.5370055E-04  6.7135126E-04  5.9688686E-04
  -3.00000  6.1156869E-04  7.5606582E-04  6.6482274E-04
  -2.00000  6.8160010E-04  8.6263439E-04  7.4855353E-04
  -1.00000  7.6807172E-04  1.0003483E-03  8.5425009E-04
   0.00000  8.7764477E-04  1.1845485E-03  9.9187205E-04
   1.00000  1.0214732E-03  1.4425742E-03  1.1787698E-03
   2.00000  1.2203713E-03  1.8287750E-03  1.4487022E-03
   3.00000  1.5207794E-03  2.4714508E-03  1.8799371E-03
   4.00000  2.0662749E-03  3.7802931E-03  2.7197376E-03
   5.00000  3.4695136E-03  7.5257271E-03  5.0310182E-03
   5.20000  3.8999826E-03  8.7413249E-03  5.7680376E-03
   5.40000  4.3303419E-03  1.0006377E-02  6.5266527E-03
   5.60000  4.7485907E-03  1.1302929E-02  7.2940044E-03
   5.80000  5.1600312E-03  1.2655308E-02  8.0855639E-03
   6.00000  5.5757849E-03  1.4098041E-02  8.9261153E-03
   6.20000  6.0073460E-03  1.5660241E-02  9.8402021E-03
   6.40000  6.4654699E-03  1.7361758E-02  1.0849341E-02
   6.60000  6.9603514E-03  1.9213156E-02  1.1971075E-02
   6.80000  7.5018952E-03  2.1216790E-02  1.3217909E-02
   7.00000  8.0997682E-03  2.3368120E-02  1.4595045E-02
   7.20000  8.7632414E-03  2.5656357E-02  1.6095481E-02
   7.40000  9.5009925E-03  2.8064126E-02  1.7692018E-02
   7.60000  1.0321194E-02  3.0569108E-02  1.9330443E-02
   7.80000  1.1232166E-02  3.3153502E-02  2.0934681E-02
   8.00000  1.2243306E-02  3.5820628E-02  2.2431597E-02
   8.20000  1.3365365E-02  3.8603041E-02  2.3783461E-02
   8.40000  1.4609493E-02  4.1545230E-02  2.5001376E-02
   8.60000  1.5985533E-02  4.4665925E-02  2.6130005E-02
   8.80000  1.7500388E-02  4.7923266E-02  2.7221708E-02
   9.00000  1.9156285E-02  5.1197854E-02  2.8319438E-02
   9.20000  2.0948090E-02  5.4292938E-02  2.9450290E-02
   9.40000  2.2859986E-02  5.6955364E-02  3.0625080E-02
   9.60000  2.4863621E-02  5.8924457E-02  3.1842074E-02
   9.80000  2.6919666E-02  5.9995870E-02  3.3090744E-02
   10.0000  2.8981790E-02  6.0073766E-02  3.4352272E-02
   10.2500  3.1492328E-02  5.8832279E-02  3.5903795E-02
   10.5000  3.3840357E-02  5.6376419E-02  3.7361326E-02
   10.7500  3.5946273E-02  5.3106909E-02  3.8651887E-02
   11.0000  3.7752333E-02  4.9421167E-02  3.9712671E-02
   11.2500  3.9224518E-02  4.5643542E-02  4.0501223E-02
   11.5000  4.0354238E-02  4.2002036E-02  4.0999750E-02
   11.7500  4.1158565E-02  3.8634155E-02  4.1213067E-02
   12.0000  4.1675904E-02  3.5606850E-02  4.1165481E-02
   12.2500  4.1958440E-02  3.2938924E-02  4.0897236E-02
   12.5000  4.2064574E-02  3.0619651E-02  4.0459690E-02
   12.7500  4.2053003E-02  2.8622265E-02  3.9909660E-02
   13.0000  4.1978205E-02  2.6913171E-02  3.9302730E-02
   13.2500  4.1886784E-02  2.5457692E-02  3.8686999E-02
   13.5000  4.1814861E-02  2.4222994E-02  3.8101185E-02
   13.7500  4.1786736E-02  2.3179354E-02  3.7576257E-02
   14.0000  4.1814868E-02  2.2300660E-02  3.7135926E-02
   14.2500  4.1900620E-02  2.1564492E-02  3.6795721E-02
   14.5000  4.2035370E-02  2.0951950E-02  3.6562541E-02
   14.7500  4.2201971E-02  2.0447348E-02  3.6435111E-02
   15.0000  4.2376691E-02  2.0037845E-02  3.6404955E-02
   15.2500  4.2531674E-02  1.9713069E-02  3.6457570E-02
   15.5000  4.2637847E-02  1.9464736E-02  3.6573695E-02
   15.7500  4.2668069E-02  1.9286290E-02  3.6730672E-02
   16.0000  4.2600172E-02  1.9172572E-02  3.6903938E-02
   16.2500  4.2419437E-02  1.9119518E-02  3.7068622E-02
   16.5000  4.2120056E-02  1.9123887E-02  3.7201198E-02
   16.7500  4.1705345E-02  1.9183019E-02  3.7281064E-02
   17.0000  4.1186734E-02  1.9294630E-02  3.7291912E-02
   17.2500  4.0581882E-02  1.9456629E-02  3.7222732E-02
   17.5000  3.9912371E-02  1.9666971E-02  3.7068351E-02
   17.7500  3.9201454E-02  1.9923539E-02  3.6829442E-02
   18.0000  3.8472148E-02  2.0224056E-02  3.6511988E-02
   18.2500  3.7745810E-02  2.0566033E-02  3.6126305E-02
   18.5000  3.7041183E-02  2.0946744E-02  3.5685736E-02
   18.7500  3.6373833E-02  2.1363252E-02  3.5205222E-02
   19.0000  3.5755912E-02  2.1812474E-02  3.4699911E-02
   19.2500  3.5196133E-02  2.2291306E-02  3.4183954E-02
   19.5000  3.4699910E-02  2.2796774E-02  3.3669565E-02
   19.7500  3.4269617E-02  2.3326111E-02  3.3166466E-02
   20.0000  3.3904981E-02  2.3876590E-02  3.2681835E-02
   21.0000  3.3037457E-02  2.6217230E-02  3.1011367E-02
   22.0000  3.2835336E-02  2.8595014E-02  2.9813684E-02
   23.0000  3.2778441E-02  3.0763704E-02  2.8960560E-02
   24.0000  3.2347674E-02  3.2447626E-02  2.8279387E-02
   25.0000  3.1273444E-02  3.3461531E-02  2.7660846E-02
   26.0000  2.9701845E-02  3.3768265E-02  2.7084250E-02
   27.0000  2.8040907E-02  3.3475375E-02  2.6590459E-02
   28.0000  2.6639022E-02  3.2776522E-02  2.6228515E-02
   29.0000  2.5623878E-02  3.1868271E-02  2.6012074E-02
   30.0000  2.4946807E-02  3.0894624E-02  2.5907589E-02
   31.0000  2.4488316E-02  2.9935342E-02  2.5849745E-02
   32.0000  2.4131117E-02  2.9020972E-02  2.5766071E-02
   33.0000  2.3790349E-02  2.8154532E-02  2.5596058E-02
   34.0000  2.3418909E-02  2.7328946E-02  2.5300368E-02
   35.0000  2.3002031E-02  2.6536098E-02  2.4862861E-02
   36.0000  2.2547981E-02  2.5768783E-02  2.4290278E-02
   37.0000  2.2079287E-02  2.5021946E-02  2.3612884E-02
   38.0000  2.1627293E-02  2.4300698E-02  2.2887414E-02
   39.0000  2.1228702E-02  2.3635905E-02  2.2197937E-02
   40.0000  2.0916747E-02  2.3089788E-02  2.1638077E-02
