    Energy   (100,001)      (010,001)      (001,110)   
  -25.0000  1.7362211E-04  1.8533489E-04  1.7849898E-04
  -24.0000  1.8010175E-04  1.9224414E-04  1.8522775E-04
  -23.0000  1.8703582E-04  1.9964702E-04  1.9243644E-04
  -22.0000  1.9447226E-04  2.0759723E-04  2.0017675E-04
  -21.0000  2.0246591E-04  2.1615648E-04  2.0850798E-04
  -20.0000  2.1107972E-04  2.2539600E-04  2.1749844E-04
  -19.0000  2.2038633E-04  2.3539843E-04  2.2722722E-04
  -18.0000  2.3047000E-04  2.4626020E-04  2.3778640E-04
  -17.0000  2.4142899E-04  2.5809447E-04  2.4928379E-04
  -16.0000  2.5337855E-04  2.7103490E-04  2.6184644E-04
  -15.0000  2.6645477E-04  2.8524051E-04  2.7562506E-04
  -14.0000  2.8081947E-04  3.0090186E-04  2.9079981E-04
  -13.0000  2.9666650E-04  3.1824925E-04  3.0758777E-04
  -12.0000  3.1423005E-04  3.3756354E-04  3.2625292E-04
  -11.0000  3.3379568E-04  3.5919065E-04  3.4711940E-04
  -10.0000  3.5571512E-04  3.8356142E-04  3.7058967E-04
  -9.00000  3.8042658E-04  4.1121904E-04  3.9716964E-04
  -8.00000  4.0848305E-04  4.4285788E-04  4.2750414E-04
  -7.00000  4.4059243E-04  4.7937958E-04  4.6242822E-04
  -6.00000  4.7767614E-04  5.2197584E-04  5.0304302E-04
  -5.00000  5.2095657E-04  5.7225446E-04  5.5083162E-04
  -4.00000  5.7209214E-04  6.3243739E-04  6.0784190E-04
  -3.00000  6.3339375E-04  7.0568414E-04  6.7698725E-04
  -2.00000  7.0818798E-04  7.9664594E-04  7.6256658E-04
  -1.00000  8.0146252E-04  9.1247243E-04  8.7122079E-04
   0.00000  9.2110132E-04  1.0647848E-03  1.0138372E-03
   1.00000  1.0804964E-03  1.2739575E-03  1.2097626E-03
   2.00000  1.3049140E-03  1.5798526E-03  1.4975994E-03
   3.00000  1.6507819E-03  2.0753228E-03  1.9696499E-03
   4.00000  2.2889101E-03  3.0550323E-03  2.9274009E-03
   5.00000  3.9333259E-03  5.7925325E-03  5.7078968E-03
   5.20000  4.4537793E-03  6.6707038E-03  6.6201024E-03
   5.40000  4.9958765E-03  7.5754049E-03  7.5703715E-03
   5.60000  5.5507838E-03  8.4884169E-03  8.5413478E-03
   5.80000  6.1263652E-03  9.4228839E-03  9.5476861E-03
   6.00000  6.7357532E-03  1.0401573E-02  1.0610750E-02
   6.20000  7.3925869E-03  1.1446688E-02  1.1744041E-02
   6.40000  8.1106964E-03  1.2577175E-02  1.2948506E-02
   6.60000  8.9045070E-03  1.3807311E-02  1.4211680E-02
   6.80000  9.7883979E-03  1.5144327E-02  1.5507461E-02
   7.00000  1.0774166E-02  1.6584989E-02  1.6796640E-02
   7.20000  1.1866475E-02  1.8113277E-02  1.8030529E-02
   7.40000  1.3057689E-02  1.9702945E-02  1.9159822E-02
   7.60000  1.4325693E-02  2.1327882E-02  2.0148369E-02
   7.80000  1.5639395E-02  2.2978278E-02  2.0988105E-02
   8.00000  1.6972860E-02  2.4673223E-02  2.1708701E-02
   8.20000  1.8320955E-02  2.6459046E-02  2.2375523E-02
   8.40000  1.9705065E-02  2.8392821E-02  2.3074501E-02
   8.60000  2.1164130E-02  3.0522432E-02  2.3890358E-02
   8.80000  2.2737209E-02  3.2874022E-02  2.4887578E-02
   9.00000  2.4447185E-02  3.5447730E-02  2.6099145E-02
   9.20000  2.6290758E-02  3.8216458E-02  2.7522686E-02
   9.40000  2.8234844E-02  4.1123758E-02  2.9121654E-02
   9.60000  3.0217763E-02  4.4080815E-02  3.0830178E-02
   9.80000  3.2154301E-02  4.6965380E-02  3.2561673E-02
   10.0000  3.3946040E-02  4.9627129E-02  3.4221700E-02
   10.2500  3.5839517E-02  5.2392327E-02  3.6066480E-02
   10.5000  3.7230404E-02  5.4265558E-02  3.7550060E-02
   10.7500  3.8083981E-02  5.5063075E-02  3.8633027E-02
   11.0000  3.8458470E-02  5.4752476E-02  3.9340102E-02
   11.2500  3.8472251E-02  5.3445002E-02  3.9727407E-02
   11.5000  3.8262253E-02  5.1349503E-02  3.9852555E-02
   11.7500  3.7950157E-02  4.8715503E-02  3.9760644E-02
   12.0000  3.7625313E-02  4.5785786E-02  3.9486266E-02
   12.2500  3.7342681E-02  4.2766328E-02  3.9061175E-02
   12.5000  3.7129015E-02  3.9812068E-02  3.8520786E-02
   12.7500  3.6991504E-02  3.7026146E-02  3.7906180E-02
   13.0000  3.6926016E-02  3.4468153E-02  3.7261299E-02
   13.2500  3.6924078E-02  3.2165218E-02  3.6628233E-02
   13.5000  3.6977307E-02  3.0122314E-02  3.6043073E-02
   13.7500  3.7078471E-02  2.8330607E-02  3.5533298E-02
   14.0000  3.7220454E-02  2.6773598E-02  3.5116860E-02
   14.2500  3.7394732E-02  2.5431307E-02  3.4802648E-02
   14.5000  3.7590205E-02  2.4282903E-02  3.4591729E-02
   14.7500  3.7792666E-02  2.3308225E-02  3.4478844E-02
   15.0000  3.7984970E-02  2.2488565E-02  3.4453846E-02
   15.2500  3.8147868E-02  2.1806996E-02  3.4502975E-02
   15.5000  3.8261386E-02  2.1248418E-02  3.4609935E-02
   15.7500  3.8306534E-02  2.0799474E-02  3.4756857E-02
   16.0000  3.8267135E-02  2.0448387E-02  3.4925188E-02
   16.2500  3.8131528E-02  2.0184801E-02  3.5096590E-02
   16.5000  3.7893904E-02  1.9999628E-02  3.5253849E-02
   16.7500  3.7555072E-02  1.9884922E-02  3.5381782E-02
   17.0000  3.7122541E-02  1.9833774E-02  3.5468055E-02
   17.2500  3.6609897E-02  1.9840199E-02  3.5503825E-02
   17.5000  3.6035576E-02  1.9899044E-02  3.5484095E-02
   17.7500  3.5421203E-02  2.0005872E-02  3.5407732E-02
   18.0000  3.4789748E-02  2.0156862E-02  3.5277126E-02
   18.2500  3.4163735E-02  2.0348693E-02  3.5097566E-02
   18.5000  3.3563723E-02  2.0578449E-02  3.4876413E-02
   18.7500  3.3007175E-02  2.0843533E-02  3.4622202E-02
   19.0000  3.2507774E-02  2.1141614E-02  3.4343791E-02
   19.2500  3.2075145E-02  2.1470606E-02  3.4049608E-02
   19.5000  3.1714882E-02  2.1828682E-02  3.3747070E-02
   19.7500  3.1428806E-02  2.2214233E-02  3.3442226E-02
   20.0000  3.1215337E-02  2.2625672E-02  3.3139698E-02
   21.0000  3.0970666E-02  2.4483574E-02  3.2011525E-02
   22.0000  3.1291065E-02  2.6556713E-02  3.1062070E-02
   23.0000  3.1611371E-02  2.8685696E-02  3.0241058E-02
   24.0000  3.1609177E-02  3.0685711E-02  2.9467380E-02
   25.0000  3.1292823E-02  3.2351771E-02  2.8689263E-02
   26.0000  3.0774041E-02  3.3509355E-02  2.7902758E-02
   27.0000  3.0053728E-02  3.4079602E-02  2.7143556E-02
   28.0000  2.9095866E-02  3.4112419E-02  2.6464878E-02
   29.0000  2.7979255E-02  3.3751594E-02  2.5912288E-02
   30.0000  2.6859159E-02  3.3151204E-02  2.5496129E-02
   31.0000  2.5861001E-02  3.2430803E-02  2.5196644E-02
   32.0000  2.5036347E-02  3.1667679E-02  2.4977905E-02
   33.0000  2.4380755E-02  3.0902472E-02  2.4798545E-02
   34.0000  2.3866956E-02  3.0149716E-02  2.4621673E-02
   35.0000  2.3466058E-02  2.9408621E-02  2.4423221E-02
   36.0000  2.3154915E-02  2.8672487E-02  2.4197147E-02
   37.0000  2.2915727E-02  2.7937379E-02  2.3954334E-02
   38.0000  2.2733453E-02  2.7212544E-02  2.3714536E-02
   39.0000  2.2595027E-02  2.6534635E-02  2.3498477E-02
   40.0000  2.2491008E-02  2.5973948E-02  2.3325558E-02
