    Energy   (100,001)      (010,001)      (001,110)   
  -25.0000  1.7067296E-04  1.8416500E-04  1.8472686E-04
  -24.0000  1.7667130E-04  1.9120087E-04  1.9109099E-04
  -23.0000  1.8306491E-04  1.9874665E-04  1.9787509E-04
  -22.0000  1.8989302E-04  2.0685824E-04  2.0512139E-04
  -21.0000  1.9720014E-04  2.1559991E-04  2.1287790E-04
  -20.0000  2.0503702E-04  2.2504585E-04  2.2119946E-04
  -19.0000  2.1346177E-04  2.3528217E-04  2.3014903E-04
  -18.0000  2.2254118E-04  2.4640937E-04  2.3979919E-04
  -17.0000  2.3235250E-04  2.5854541E-04  2.5023405E-04
  -16.0000  2.4298547E-04  2.7182966E-04  2.6155171E-04
  -15.0000  2.5454502E-04  2.8642788E-04  2.7386716E-04
  -14.0000  2.6715464E-04  3.0253872E-04  2.8731622E-04
  -13.0000  2.8096064E-04  3.2040219E-04  3.0206038E-04
  -12.0000  2.9613771E-04  3.4031083E-04  3.1829327E-04
  -11.0000  3.1289630E-04  3.6262474E-04  3.3624903E-04
  -10.0000  3.3149226E-04  3.8779197E-04  3.5621364E-04
  -9.00000  3.5224000E-04  4.1637673E-04  3.7854016E-04
  -8.00000  3.7553061E-04  4.4909909E-04  4.0366999E-04
  -7.00000  4.0185725E-04  4.8689204E-04  4.3216263E-04
  -6.00000  4.3185172E-04  5.3098538E-04  4.6473899E-04
  -5.00000  4.6633865E-04  5.8303254E-04  5.0234561E-04
  -4.00000  5.0641838E-04  6.4530823E-04  5.4625353E-04
  -3.00000  5.5359902E-04  7.2102850E-04  5.9821668E-04
  -2.00000  6.1001774E-04  8.1489276E-04  6.6073868E-04
  -1.00000  6.7883557E-04  9.3405548E-04  7.3755228E-04
   0.00000  7.6500260E-04  1.0900004E-03  8.3455588E-04
   1.00000  8.7691697E-04  1.3025324E-03  9.6186426E-04
   2.00000  1.0306414E-03  1.6095767E-03  1.1390830E-03
   3.00000  1.2635139E-03  2.0971369E-03  1.4125442E-03
   4.00000  1.6979631E-03  3.0303432E-03  1.9367571E-03
   5.00000  2.8805238E-03  5.5265785E-03  3.4245766E-03
   5.20000  3.2431525E-03  6.3097874E-03  3.9042101E-03
   5.40000  3.5953527E-03  7.1098164E-03  4.3840559E-03
   5.60000  3.9218729E-03  7.9119159E-03  4.8331330E-03
   5.80000  4.2239060E-03  8.7301058E-03  5.2328781E-03
   6.00000  4.5096798E-03  9.5862050E-03  5.5731530E-03
   6.20000  4.7903266E-03  1.0500615E-02  5.8549542E-03
   6.40000  5.0785124E-03  1.1491601E-02  6.0927334E-03
   6.60000  5.3870987E-03  1.2577082E-02  6.3109809E-03
   6.80000  5.7278516E-03  1.3776284E-02  6.5371259E-03
   7.00000  6.1108382E-03  1.5110627E-02  6.7954194E-03
   7.20000  6.5445448E-03  1.6603904E-02  7.1041889E-03
   7.40000  7.0362764E-03  1.8281877E-02  7.4760083E-03
   7.60000  7.5923765E-03  2.0171241E-02  7.9193069E-03
   7.80000  8.2179607E-03  2.2297722E-02  8.4402707E-03
   8.00000  8.9160495E-03  2.4683244E-02  9.0444918E-03
   8.20000  9.6862005E-03  2.7342583E-02  9.7381900E-03
   8.40000  1.0522789E-02  3.0279566E-02  1.0528958E-02
   8.60000  1.1413241E-02  3.3482435E-02  1.1426015E-02
   8.80000  1.2337115E-02  3.6919130E-02  1.2439958E-02
   9.00000  1.3267231E-02  4.0533869E-02  1.3582009E-02
   9.20000  1.4173603E-02  4.4245971E-02  1.4862666E-02
   9.40000  1.5029733E-02  4.7951417E-02  1.6289656E-02
   9.60000  1.5819385E-02  5.1527175E-02  1.7865231E-02
   9.80000  1.6541163E-02  5.4837952E-02  1.9583169E-02
   10.0000  1.7208948E-02  5.7744477E-02  2.1426097E-02
   10.2500  1.8006825E-02  6.0605425E-02  2.3858540E-02
   10.5000  1.8818163E-02  6.2398789E-02  2.6354277E-02
   10.7500  1.9692485E-02  6.2972964E-02  2.8810540E-02
   11.0000  2.0657851E-02  6.2288115E-02  3.1119248E-02
   11.2500  2.1717538E-02  6.0438499E-02  3.3181195E-02
   11.5000  2.2854402E-02  5.7645826E-02  3.4919906E-02
   11.7500  2.4039466E-02  5.4211604E-02  3.6290833E-02
   12.0000  2.5240488E-02  5.0445657E-02  3.7282108E-02
   12.2500  2.6426928E-02  4.6609427E-02  3.7908863E-02
   12.5000  2.7572884E-02  4.2893411E-02  3.8205992E-02
   12.7500  2.8661082E-02  3.9419760E-02  3.8222527E-02
   13.0000  2.9685232E-02  3.6256466E-02  3.8017184E-02
   13.2500  3.0648780E-02  3.3433344E-02  3.7653216E-02
   13.5000  3.1562193E-02  3.0954152E-02  3.7192935E-02
   13.7500  3.2439462E-02  2.8804916E-02  3.6693207E-02
   14.0000  3.3294344E-02  2.6960423E-02  3.6202642E-02
   14.2500  3.4137683E-02  2.5389760E-02  3.5760528E-02
   14.5000  3.4976043E-02  2.4060658E-02  3.5396721E-02
   14.7500  3.5811243E-02  2.2942380E-02  3.5131818E-02
   15.0000  3.6640470E-02  2.2007279E-02  3.4977466E-02
   15.2500  3.7456807E-02  2.1231404E-02  3.4936859E-02
   15.5000  3.8250014E-02  2.0594493E-02  3.5005461E-02
   15.7500  3.9007461E-02  2.0079642E-02  3.5171937E-02
   16.0000  3.9715118E-02  1.9672840E-02  3.5419283E-02
   16.2500  4.0358554E-02  1.9362490E-02  3.5726164E-02
   16.5000  4.0923919E-02  1.9138953E-02  3.6068446E-02
   16.7500  4.1398869E-02  1.8994157E-02  3.6420904E-02
   17.0000  4.1773414E-02  1.8921264E-02  3.6759015E-02
   17.2500  4.2040639E-02  1.8914381E-02  3.7060708E-02
   17.5000  4.2197290E-02  1.8968324E-02  3.7307889E-02
   17.7500  4.2244165E-02  1.9078421E-02  3.7487555E-02
   18.0000  4.2186286E-02  1.9240362E-02  3.7592366E-02
   18.2500  4.2032796E-02  1.9450097E-02  3.7620591E-02
   18.5000  4.1796536E-02  1.9703763E-02  3.7575496E-02
   18.7500  4.1493287E-02  1.9997674E-02  3.7464286E-02
   19.0000  4.1140702E-02  2.0328340E-02  3.7296804E-02
   19.2500  4.0757024E-02  2.0692542E-02  3.7084164E-02
   19.5000  4.0359723E-02  2.1087417E-02  3.6837514E-02
   19.7500  3.9964317E-02  2.1510491E-02  3.6567091E-02
   20.0000  3.9583691E-02  2.1959516E-02  3.6281739E-02
   21.0000  3.8382925E-02  2.3960623E-02  3.5125201E-02
   22.0000  3.7838876E-02  2.6163604E-02  3.4113517E-02
   23.0000  3.7749593E-02  2.8425305E-02  3.3258681E-02
   24.0000  3.7700694E-02  3.0576666E-02  3.2478401E-02
   25.0000  3.7264183E-02  3.2413739E-02  3.1711273E-02
   26.0000  3.6161019E-02  3.3747112E-02  3.0945516E-02
   27.0000  3.4413220E-02  3.4471941E-02  3.0203136E-02
   28.0000  3.2343022E-02  3.4601373E-02  2.9524340E-02
   29.0000  3.0362187E-02  3.4241912E-02  2.8957835E-02
   30.0000  2.8746778E-02  3.3541036E-02  2.8544655E-02
   31.0000  2.7574137E-02  3.2639149E-02  2.8298710E-02
   32.0000  2.6782510E-02  3.1647782E-02  2.8198238E-02
   33.0000  2.6254014E-02  3.0644408E-02  2.8195359E-02
   34.0000  2.5880779E-02  2.9660626E-02  2.8236248E-02
   35.0000  2.5582664E-02  2.8701537E-02  2.8275191E-02
   36.0000  2.5304007E-02  2.7767815E-02  2.8278529E-02
   37.0000  2.5010246E-02  2.6865587E-02  2.8224475E-02
   38.0000  2.4688271E-02  2.6012674E-02  2.8105139E-02
   39.0000  2.4353573E-02  2.5246985E-02  2.7935244E-02
   40.0000  2.4054513E-02  2.4630275E-02  2.7761495E-02
