    Energy   (100,001)      (010,001)      (001,110)   
  -25.0000  1.6450334E-04  1.8946125E-04  1.7516911E-04
  -24.0000  1.7058577E-04  1.9639823E-04  1.8157245E-04
  -23.0000  1.7708296E-04  2.0382442E-04  1.8841417E-04
  -22.0000  1.8403716E-04  2.1179254E-04  1.9573938E-04
  -21.0000  1.9149644E-04  2.2036308E-04  2.0359947E-04
  -20.0000  1.9951575E-04  2.2960578E-04  2.1205325E-04
  -19.0000  2.0815817E-04  2.3960150E-04  2.2116838E-04
  -18.0000  2.1749650E-04  2.5044441E-04  2.3102299E-04
  -17.0000  2.2761513E-04  2.6224494E-04  2.4170786E-04
  -16.0000  2.3861254E-04  2.7513335E-04  2.5332906E-04
  -15.0000  2.5060428E-04  2.8926438E-04  2.6601124E-04
  -14.0000  2.6372686E-04  3.0482322E-04  2.7990193E-04
  -13.0000  2.7814279E-04  3.2203335E-04  2.9517704E-04
  -12.0000  2.9404705E-04  3.4116689E-04  3.1204797E-04
  -11.0000  3.1167576E-04  3.6255847E-04  3.3077110E-04
  -10.0000  3.3131766E-04  3.8662417E-04  3.5166047E-04
  -9.00000  3.5332994E-04  4.1388771E-04  3.7510505E-04
  -8.00000  3.7816012E-04  4.4501746E-04  4.0159276E-04
  -7.00000  4.0637723E-04  4.8087978E-04  4.3174449E-04
  -6.00000  4.3871721E-04  5.2261798E-04  4.6636360E-04
  -5.00000  4.7615117E-04  5.7177231E-04  5.0651000E-04
  -4.00000  5.1999169E-04  6.3046896E-04  5.5361480E-04
  -3.00000  5.7206544E-04  7.0172949E-04  6.0966551E-04
  -2.00000  6.3500915E-04  7.9000357E-04  6.7752061E-04
  -1.00000  7.1281177E-04  9.0214434E-04  7.6148009E-04
   0.00000  8.1189754E-04  1.0493434E-03  8.6841136E-04
   1.00000  9.4355529E-04  1.2514096E-03  1.0102403E-03
   2.00000  1.1303435E-03  1.5478019E-03  1.2104257E-03
   3.00000  1.4275247E-03  2.0335227E-03  1.5253473E-03
   4.00000  2.0264975E-03  3.0275616E-03  2.1467125E-03
   5.00000  3.8190083E-03  5.9624142E-03  3.9505429E-03
   5.20000  4.3881174E-03  6.8766121E-03  4.5075669E-03
   5.40000  4.9443286E-03  7.7672587E-03  5.0404455E-03
   5.60000  5.4559053E-03  8.6022777E-03  5.5239457E-03
   5.80000  5.9105329E-03  9.3903782E-03  5.9625118E-03
   6.00000  6.3060658E-03  1.0153924E-02  6.3728735E-03
   6.20000  6.6511126E-03  1.0918396E-02  6.7738740E-03
   6.40000  6.9644611E-03  1.1709409E-02  7.1822557E-03
   6.60000  7.2690013E-03  1.2550056E-02  7.6103785E-03
   6.80000  7.5852393E-03  1.3459276E-02  8.0648240E-03
   7.00000  7.9282139E-03  1.4452081E-02  8.5467279E-03
   7.20000  8.3074669E-03  1.5540664E-02  9.0543132E-03
   7.40000  8.7284687E-03  1.6735489E-02  9.5865526E-03
   7.60000  9.1943724E-03  1.8046119E-02  1.0146030E-02
   7.80000  9.7074938E-03  1.9481944E-02  1.0739761E-02
   8.00000  1.0270288E-02  2.1052946E-02  1.1378137E-02
   8.20000  1.0885805E-02  2.2770373E-02  1.2073070E-02
   8.40000  1.1557635E-02  2.4646817E-02  1.2836548E-02
   8.60000  1.2289551E-02  2.6695233E-02  1.3679785E-02
   8.80000  1.3085182E-02  2.8926636E-02  1.4612328E-02
   9.00000  1.3947711E-02  3.1346118E-02  1.5641002E-02
   9.20000  1.4879461E-02  3.3947190E-02  1.6768980E-02
   9.40000  1.5881275E-02  3.6705314E-02  1.7995084E-02
   9.60000  1.6951703E-02  3.9572322E-02  1.9313454E-02
   9.80000  1.8086040E-02  4.2473868E-02  2.0713755E-02
   10.0000  1.9275302E-02  4.5310957E-02  2.2181956E-02
   10.2500  2.0816840E-02  4.8585041E-02  2.4087370E-02
   10.5000  2.2381033E-02  5.1325114E-02  2.6038811E-02
   10.7500  2.3916006E-02  5.3310324E-02  2.8003307E-02
   11.0000  2.5365662E-02  5.4391198E-02  2.9950201E-02
   11.2500  2.6679446E-02  5.4515192E-02  3.1850412E-02
   11.5000  2.7821544E-02  5.3727244E-02  3.3672261E-02
   11.7500  2.8777412E-02  5.2150845E-02  3.5376568E-02
   12.0000  2.9556234E-02  4.9962522E-02  3.6917970E-02
   12.2500  3.0188124E-02  4.7363330E-02  3.8252676E-02
   12.5000  3.0716489E-02  4.4549791E-02  3.9348068E-02
   12.7500  3.1188730E-02  4.1690840E-02  4.0189946E-02
   13.0000  3.1648891E-02  3.8915317E-02  4.0785019E-02
   13.2500  3.2133275E-02  3.6310043E-02  4.1158461E-02
   13.5000  3.2668341E-02  3.3925184E-02  4.1348269E-02
   13.7500  3.3270175E-02  3.1782847E-02  4.1398775E-02
   14.0000  3.3945022E-02  2.9885832E-02  4.1354992E-02
   14.2500  3.4690441E-02  2.8224940E-02  4.1258506E-02
   14.5000  3.5496768E-02  2.6784354E-02  4.1144926E-02
   14.7500  3.6348738E-02  2.5545265E-02  4.1042542E-02
   15.0000  3.7227124E-02  2.4488132E-02  4.0971813E-02
   15.2500  3.8110342E-02  2.3593985E-02  4.0945394E-02
   15.5000  3.8975914E-02  2.2845087E-02  4.0968506E-02
   15.7500  3.9801773E-02  2.2225225E-02  4.1039580E-02
   16.0000  4.0567371E-02  2.1719779E-02  4.1151131E-02
   16.2500  4.1254590E-02  2.1315681E-02  4.1290876E-02
   16.5000  4.1848458E-02  2.1001330E-02  4.1443048E-02
   16.7500  4.2337699E-02  2.0766481E-02  4.1589910E-02
   17.0000  4.2715106E-02  2.0602135E-02  4.1713349E-02
   17.2500  4.2977767E-02  2.0500440E-02  4.1796471E-02
   17.5000  4.3127093E-02  2.0454597E-02  4.1825020E-02
   17.7500  4.3168652E-02  2.0458774E-02  4.1788479E-02
   18.0000  4.3111760E-02  2.0508030E-02  4.1680747E-02
   18.2500  4.2968868E-02  2.0598235E-02  4.1500293E-02
   18.5000  4.2754742E-02  2.0725990E-02  4.1249847E-02
   18.7500  4.2485523E-02  2.0888558E-02  4.0935675E-02
   19.0000  4.2177734E-02  2.1083782E-02  4.0566591E-02
   19.2500  4.1847290E-02  2.1310027E-02  4.0152822E-02
   19.5000  4.1508622E-02  2.1566112E-02  3.9704911E-02
   19.7500  4.1174004E-02  2.1851198E-02  3.9232821E-02
   20.0000  4.0853284E-02  2.2164549E-02  3.8745520E-02
   21.0000  3.9837236E-02  2.3674214E-02  3.6797059E-02
   22.0000  3.9331570E-02  2.5506527E-02  3.5074473E-02
   23.0000  3.9103307E-02  2.7510826E-02  3.3630898E-02
   24.0000  3.8711968E-02  2.9492473E-02  3.2384101E-02
   25.0000  3.7764363E-02  3.1253777E-02  3.1236062E-02
   26.0000  3.6129191E-02  3.2642236E-02  3.0123445E-02
   27.0000  3.4010344E-02  3.3576644E-02  2.9045718E-02
   28.0000  3.1792665E-02  3.4055818E-02  2.8060564E-02
   29.0000  2.9755104E-02  3.4150925E-02  2.7220240E-02
   30.0000  2.8018816E-02  3.3961573E-02  2.6550586E-02
   31.0000  2.6604862E-02  3.3580482E-02  2.6049646E-02
   32.0000  2.5481147E-02  3.3077210E-02  2.5691298E-02
   33.0000  2.4593434E-02  3.2494116E-02  2.5435718E-02
   34.0000  2.3882122E-02  3.1851096E-02  2.5238643E-02
   35.0000  2.3290119E-02  3.1154965E-02  2.5056519E-02
   36.0000  2.2767152E-02  3.0410310E-02  2.4849921E-02
   37.0000  2.2274481E-02  2.9629622E-02  2.4588690E-02
   38.0000  2.1792706E-02  2.8842249E-02  2.4261707E-02
   39.0000  2.1333078E-02  2.8103720E-02  2.3892777E-02
   40.0000  2.0941023E-02  2.7496872E-02  2.3550436E-02
