    Energy   (100,001)      (010,001)      (001,110)   
  -25.0000  1.7130679E-04  1.8325065E-04  1.8547416E-04
  -24.0000  1.7723810E-04  1.9020141E-04  1.9184094E-04
  -23.0000  1.8355434E-04  1.9765309E-04  1.9862506E-04
  -22.0000  1.9029316E-04  2.0566042E-04  2.0586817E-04
  -21.0000  1.9749725E-04  2.1428625E-04  2.1361758E-04
  -20.0000  2.0521521E-04  2.2360320E-04  2.2192732E-04
  -19.0000  2.1350254E-04  2.3369548E-04  2.3085934E-04
  -18.0000  2.2242301E-04  2.4466138E-04  2.4048498E-04
  -17.0000  2.3205021E-04  2.5661628E-04  2.5088693E-04
  -16.0000  2.4246953E-04  2.6969646E-04  2.6216146E-04
  -15.0000  2.5378063E-04  2.8406403E-04  2.7442145E-04
  -14.0000  2.6610061E-04  2.9991331E-04  2.8780006E-04
  -13.0000  2.7956798E-04  3.1747911E-04  3.0245562E-04
  -12.0000  2.9434793E-04  3.3704779E-04  3.1857786E-04
  -11.0000  3.1063913E-04  3.5897202E-04  3.3639626E-04
  -10.0000  3.2868282E-04  3.8369097E-04  3.5619112E-04
  -9.00000  3.4877521E-04  4.1175829E-04  3.7830880E-04
  -8.00000  3.7128445E-04  4.4388157E-04  4.0318279E-04
  -7.00000  3.9667473E-04  4.8097942E-04  4.3136369E-04
  -6.00000  4.2554104E-04  5.2426572E-04  4.6356306E-04
  -5.00000  4.5866110E-04  5.7537788E-04  5.0071913E-04
  -4.00000  4.9707553E-04  6.3657837E-04  5.4409949E-04
  -3.00000  5.4221731E-04  7.1108436E-04  5.9546807E-04
  -2.00000  5.9613201E-04  8.0363328E-04  6.5737231E-04
  -1.00000  6.6187857E-04  9.2151336E-04  7.3367131E-04
   0.00000  7.4432479E-04  1.0765938E-03  8.3059706E-04
   1.00000  8.5191947E-04  1.2897673E-03  9.5915350E-04
   2.00000  1.0013279E-03  1.6022426E-03  1.1415128E-03
   3.00000  1.2327734E-03  2.1115967E-03  1.4327649E-03
   4.00000  1.6828731E-03  3.1373891E-03  2.0282685E-03
   5.00000  2.9835381E-03  6.0826085E-03  3.8358694E-03
   5.20000  3.4050383E-03  6.9980242E-03  4.3810577E-03
   5.40000  3.8339115E-03  7.9029070E-03  4.8831500E-03
   5.60000  4.2515937E-03  8.7767662E-03  5.3179763E-03
   5.80000  4.6460023E-03  9.6386226E-03  5.6929394E-03
   6.00000  5.0038857E-03  1.0515698E-02  6.0260731E-03
   6.20000  5.3156323E-03  1.1430536E-02  6.3368635E-03
   6.40000  5.5822399E-03  1.2400203E-02  6.6438312E-03
   6.60000  5.8152460E-03  1.3438553E-02  6.9638153E-03
   6.80000  6.0311716E-03  1.4558322E-02  7.3120831E-03
   7.00000  6.2461009E-03  1.5772599E-02  7.7025600E-03
   7.20000  6.4731073E-03  1.7095768E-02  8.1471823E-03
   7.40000  6.7220668E-03  1.8543913E-02  8.6539503E-03
   7.60000  7.0004447E-03  2.0134848E-02  9.2239057E-03
   7.80000  7.3139779E-03  2.1887839E-02  9.8478737E-03
   8.00000  7.6669024E-03  2.3822883E-02  1.0504731E-02
   8.20000  8.0618964E-03  2.5959116E-02  1.1163653E-02
   8.40000  8.5001156E-03  2.8311789E-02  1.1791920E-02
   8.60000  8.9816273E-03  3.0887599E-02  1.2366536E-02
   8.80000  9.5061915E-03  3.3679137E-02  1.2883907E-02
   9.00000  1.0073971E-02  3.6659911E-02  1.3361604E-02
   9.20000  1.0685751E-02  3.9781215E-02  1.3831294E-02
   9.40000  1.1342672E-02  4.2971076E-02  1.4327649E-02
   9.60000  1.2045823E-02  4.6134517E-02  1.4879346E-02
   9.80000  1.2796011E-02  4.9154083E-02  1.5505556E-02
   10.0000  1.3593575E-02  5.1892248E-02  1.6216945E-02
   10.2500  1.4656086E-02  5.4692111E-02  1.7232411E-02
   10.5000  1.5786892E-02  5.6547652E-02  1.8388148E-02
   10.7500  1.6976647E-02  5.7278136E-02  1.9679795E-02
   11.0000  1.8210640E-02  5.6855264E-02  2.1100546E-02
   11.2500  1.9467817E-02  5.5408226E-02  2.2638605E-02
   11.5000  2.0721208E-02  5.3173030E-02  2.4271903E-02
   11.7500  2.1940986E-02  5.0423676E-02  2.5965230E-02
   12.0000  2.3098891E-02  4.7413798E-02  2.7670682E-02
   12.2500  2.4173795E-02  4.4343159E-02  2.9333393E-02
   12.5000  2.5156479E-02  4.1351650E-02  3.0901642E-02
   12.7500  2.6050799E-02  3.8528817E-02  3.2335273E-02
   13.0000  2.6871221E-02  3.5926555E-02  3.3609979E-02
   13.2500  2.7638634E-02  3.3570003E-02  3.4718140E-02
   13.5000  2.8376299E-02  3.1465899E-02  3.5666918E-02
   13.7500  2.9106512E-02  2.9608777E-02  3.6474642E-02
   14.0000  2.9847653E-02  2.7985551E-02  3.7166779E-02
   14.2500  3.0612151E-02  2.6578866E-02  3.7772134E-02
   14.5000  3.1406223E-02  2.5369494E-02  3.8319327E-02
   14.7500  3.2230874E-02  2.4337952E-02  3.8833763E-02
   15.0000  3.3083108E-02  2.3465541E-02  3.9335370E-02
   15.2500  3.3956931E-02  2.2734938E-02  3.9837153E-02
   15.5000  3.4844110E-02  2.2130485E-02  4.0344482E-02
   15.7500  3.5734719E-02  2.1638282E-02  4.0855047E-02
   16.0000  3.6617545E-02  2.1246135E-02  4.1359465E-02
   16.2500  3.7480429E-02  2.0943455E-02  4.1842540E-02
   16.5000  3.8310623E-02  2.0721099E-02  4.2285105E-02
   16.7500  3.9095215E-02  2.0571218E-02  4.2666330E-02
   17.0000  3.9821661E-02  2.0487080E-02  4.2966222E-02
   17.2500  4.0478426E-02  2.0462908E-02  4.3168010E-02
   17.5000  4.1055679E-02  2.0493714E-02  4.3260057E-02
   17.7500  4.1545988E-02  2.0575145E-02  4.3237037E-02
   18.0000  4.1944927E-02  2.0703340E-02  4.3100232E-02
   18.2500  4.2251487E-02  2.0874814E-02  4.2857007E-02
   18.5000  4.2468243E-02  2.1086363E-02  4.2519639E-02
   18.7500  4.2601198E-02  2.1334999E-02  4.2103760E-02
   19.0000  4.2659324E-02  2.1617936E-02  4.1626674E-02
   19.2500  4.2653811E-02  2.1932603E-02  4.1105770E-02
   19.5000  4.2597123E-02  2.2276690E-02  4.0557173E-02
   19.7500  4.2502036E-02  2.2648142E-02  3.9994825E-02
   20.0000  4.2380908E-02  2.3044981E-02  3.9430219E-02
   21.0000  4.1852846E-02  2.4833517E-02  3.7319620E-02
   22.0000  4.1565183E-02  2.6809052E-02  3.5656337E-02
   23.0000  4.1512360E-02  2.8803658E-02  3.4431628E-02
   24.0000  4.1360645E-02  3.0641185E-02  3.3492753E-02
   25.0000  4.0707212E-02  3.2153723E-02  3.2679883E-02
   26.0000  3.9315287E-02  3.3219553E-02  3.1881888E-02
   27.0000  3.7243008E-02  3.3795251E-02  3.1058262E-02
   28.0000  3.4802193E-02  3.3920163E-02  3.0237723E-02
   29.0000  3.2401368E-02  3.3696819E-02  2.9498666E-02
   30.0000  3.0363261E-02  3.3250801E-02  2.8925038E-02
   31.0000  2.8790177E-02  3.2671694E-02  2.8546894E-02
   32.0000  2.7639330E-02  3.2006685E-02  2.8345986E-02
   33.0000  2.6821633E-02  3.1274666E-02  2.8280437E-02
   34.0000  2.6243940E-02  3.0477568E-02  2.8298812E-02
   35.0000  2.5824928E-02  2.9611714E-02  2.8347837E-02
   36.0000  2.5499318E-02  2.8679065E-02  2.8377391E-02
   37.0000  2.5217827E-02  2.7697006E-02  2.8346048E-02
   38.0000  2.4947991E-02  2.6706719E-02  2.8230534E-02
   39.0000  2.4680854E-02  2.5781586E-02  2.8041743E-02
   40.0000  2.4440372E-02  2.5024439E-02  2.7837756E-02
