    Energy   (100,001)      (010,001)      (001,110)   
  -25.0000  1.7377640E-04  1.8924201E-04  1.8585052E-04
  -24.0000  1.7968828E-04  1.9627866E-04  1.9213503E-04
  -23.0000  1.8597860E-04  2.0381602E-04  1.9882581E-04
  -22.0000  1.9268398E-04  2.1190830E-04  2.0596292E-04
  -21.0000  1.9984590E-04  2.2061774E-04  2.1359181E-04
  -20.0000  2.0751151E-04  2.3001610E-04  2.2176428E-04
  -19.0000  2.1573465E-04  2.4018657E-04  2.3053966E-04
  -18.0000  2.2457706E-04  2.5122611E-04  2.3998621E-04
  -17.0000  2.3410992E-04  2.6324841E-04  2.5018288E-04
  -16.0000  2.4441576E-04  2.7638759E-04  2.6122148E-04
  -15.0000  2.5559073E-04  2.9080297E-04  2.7320947E-04
  -14.0000  2.6774771E-04  3.0668526E-04  2.8627344E-04
  -13.0000  2.8102005E-04  3.2426457E-04  3.0056362E-04
  -12.0000  2.9556653E-04  3.4382103E-04  3.1625976E-04
  -11.0000  3.1157791E-04  3.6569907E-04  3.3357886E-04
  -10.0000  3.2928551E-04  3.9032678E-04  3.5278555E-04
  -9.00000  3.4897294E-04  4.1824271E-04  3.7420627E-04
  -8.00000  3.7099227E-04  4.5013365E-04  3.9824890E-04
  -7.00000  3.9578683E-04  4.8688903E-04  4.2543080E-04
  -6.00000  4.2392420E-04  5.2968111E-04  4.5641974E-04
  -5.00000  4.5614546E-04  5.8008664E-04  4.9209558E-04
  -4.00000  4.9344142E-04  6.4027758E-04  5.3364686E-04
  -3.00000  5.3717575E-04  7.1333217E-04  5.8272914E-04
  -2.00000  5.8929513E-04  8.0376730E-04  6.4173941E-04
  -1.00000  6.5271298E-04  9.1850654E-04  7.1432691E-04
   0.00000  7.3207485E-04  1.0687843E-03  8.0643540E-04
   1.00000  8.3547489E-04  1.2743104E-03  9.2870439E-04
   2.00000  9.7898798E-04  1.5738653E-03  1.1030075E-03
   3.00000  1.2018771E-03  2.0591983E-03  1.3851072E-03
   4.00000  1.6402879E-03  3.0311328E-03  1.9773274E-03
   5.00000  2.9218911E-03  5.8217579E-03  3.8830366E-03
   5.20000  3.3169296E-03  6.6981264E-03  4.5247008E-03
   5.40000  3.6958621E-03  7.5682525E-03  5.1568852E-03
   5.60000  4.0441827E-03  8.4047799E-03  5.7072663E-03
   5.80000  4.3670478E-03  9.2160792E-03  6.1157746E-03
   6.00000  4.6752286E-03  1.0021169E-02  6.3512102E-03
   6.20000  4.9780120E-03  1.0839834E-02  6.4289037E-03
   6.40000  5.2807280E-03  1.1691433E-02  6.4037174E-03
   6.60000  5.5840745E-03  1.2594479E-02  6.3417019E-03
   6.80000  5.8849378E-03  1.3565833E-02  6.2959767E-03
   7.00000  6.1785545E-03  1.4620444E-02  6.2995218E-03
   7.20000  6.4611213E-03  1.5771772E-02  6.3694403E-03
   7.40000  6.7317545E-03  1.7032492E-02  6.5139487E-03
   7.60000  6.9931509E-03  1.8415134E-02  6.7377585E-03
   7.80000  7.2510335E-03  1.9932562E-02  7.0451116E-03
   8.00000  7.5130024E-03  2.1598209E-02  7.4410154E-03
   8.20000  7.7873737E-03  2.3425807E-02  7.9312630E-03
   8.40000  8.0823245E-03  2.5428524E-02  8.5215719E-03
   8.60000  8.4054106E-03  2.7617552E-02  9.2160042E-03
   8.80000  8.7633768E-03  3.0000040E-02  1.0014839E-02
   9.00000  9.1621753E-03  3.2576293E-02  1.0912358E-02
   9.20000  9.6071326E-03  3.5336368E-02  1.1895353E-02
   9.40000  1.0103093E-02  3.8256404E-02  1.2942946E-02
   9.60000  1.0654269E-02  4.1295234E-02  1.4027738E-02
   9.80000  1.1263868E-02  4.4391729E-02  1.5119224E-02
   10.0000  1.1933767E-02  4.7463003E-02  1.6190128E-02
   10.2500  1.2856191E-02  5.1104278E-02  1.7474252E-02
   10.5000  1.3869809E-02  5.4294107E-02  1.8693172E-02
   10.7500  1.4967123E-02  5.6769298E-02  1.9865797E-02
   11.0000  1.6136517E-02  5.8296088E-02  2.1022499E-02
   11.2500  1.7361922E-02  5.8723565E-02  2.2191950E-02
   11.5000  1.8622429E-02  5.8026244E-02  2.3394128E-02
   11.7500  1.9892647E-02  5.6316319E-02  2.4638657E-02
   12.0000  2.1144334E-02  5.3816472E-02  2.5924920E-02
   12.2500  2.2349747E-02  5.0804511E-02  2.7241578E-02
   12.5000  2.3486354E-02  4.7553460E-02  2.8565933E-02
   12.7500  2.4540932E-02  4.4286986E-02  2.9865143E-02
   13.0000  2.5511800E-02  4.1160247E-02  3.1101178E-02
   13.2500  2.6408903E-02  3.8263731E-02  3.2239518E-02
   13.5000  2.7251184E-02  3.5638695E-02  3.3257455E-02
   13.7500  2.8061624E-02  3.3294169E-02  3.4146897E-02
   14.0000  2.8862271E-02  3.1220889E-02  3.4912611E-02
   14.2500  2.9671531E-02  2.9400611E-02  3.5569855E-02
   14.5000  3.0503278E-02  2.7811535E-02  3.6141668E-02
   14.7500  3.1366509E-02  2.6431338E-02  3.6655086E-02
   15.0000  3.2265168E-02  2.5238750E-02  3.7136997E-02
   15.2500  3.3198196E-02  2.4214249E-02  3.7610672E-02
   15.5000  3.4159835E-02  2.3340241E-02  3.8093458E-02
   15.7500  3.5140154E-02  2.2601017E-02  3.8595613E-02
   16.0000  3.6125718E-02  2.1982607E-02  3.9120061E-02
   16.2500  3.7100391E-02  2.1472615E-02  3.9662808E-02
   16.5000  3.8046241E-02  2.1060058E-02  4.0213820E-02
   16.7500  3.8944536E-02  2.0735210E-02  4.0758235E-02
   17.0000  3.9776802E-02  2.0489448E-02  4.1277830E-02
   17.2500  4.0525888E-02  2.0315122E-02  4.1752667E-02
   17.5000  4.1176991E-02  2.0205433E-02  4.2162841E-02
   17.7500  4.1718583E-02  2.0154333E-02  4.2490220E-02
   18.0000  4.2143151E-02  2.0156458E-02  4.2720029E-02
   18.2500  4.2447700E-02  2.0207072E-02  4.2842116E-02
   18.5000  4.2633950E-02  2.0302047E-02  4.2851750E-02
   18.7500  4.2708179E-02  2.0437837E-02  4.2749847E-02
   19.0000  4.2680687E-02  2.0611485E-02  4.2542573E-02
   19.2500  4.2564924E-02  2.0820619E-02  4.2240390E-02
   19.5000  4.2376354E-02  2.1063447E-02  4.1856711E-02
   19.7500  4.2131306E-02  2.1338691E-02  4.1406488E-02
   20.0000  4.1846147E-02  2.1645387E-02  4.0905213E-02
   21.0000  4.0617880E-02  2.3163048E-02  3.8699416E-02
   22.0000  3.9783195E-02  2.5081671E-02  3.6716330E-02
   23.0000  3.9567366E-02  2.7280350E-02  3.5228324E-02
   24.0000  3.9789721E-02  2.9548298E-02  3.4184533E-02
   25.0000  4.0061376E-02  3.1608831E-02  3.3429406E-02
   26.0000  3.9931755E-02  3.3208696E-02  3.2809598E-02
   27.0000  3.9060430E-02  3.4211250E-02  3.2218428E-02
   28.0000  3.7403208E-02  3.4629154E-02  3.1613311E-02
   29.0000  3.5252847E-02  3.4582358E-02  3.1010108E-02
   30.0000  3.3062620E-02  3.4230941E-02  3.0461806E-02
   31.0000  3.1192287E-02  3.3717368E-02  3.0022669E-02
   32.0000  2.9754498E-02  3.3120524E-02  2.9705139E-02
   33.0000  2.8703664E-02  3.2469638E-02  2.9489344E-02
   34.0000  2.7947286E-02  3.1769959E-02  2.9343722E-02
   35.0000  2.7392074E-02  3.1016049E-02  2.9234074E-02
   36.0000  2.6959759E-02  3.0201628E-02  2.9128094E-02
   37.0000  2.6591493E-02  2.9330324E-02  2.8998793E-02
   38.0000  2.6250229E-02  2.8428767E-02  2.8830395E-02
   39.0000  2.5926655E-02  2.7562144E-02  2.8629641E-02
   40.0000  2.5645443E-02  2.6837834E-02  2.8436047E-02
