    Energy   (100,001)      (010,001)      (001,110)   
  -25.0000  1.7647261E-04  1.8798372E-04  1.8235267E-04
  -24.0000  1.8270057E-04  1.9486736E-04  1.8885840E-04
  -23.0000  1.8934471E-04  2.0223458E-04  1.9580673E-04
  -22.0000  1.9644708E-04  2.1013717E-04  2.0324342E-04
  -21.0000  2.0405558E-04  2.1863451E-04  2.1122067E-04
  -20.0000  2.1222492E-04  2.2779500E-04  2.1979834E-04
  -19.0000  2.2101789E-04  2.3769782E-04  2.2904537E-04
  -18.0000  2.3050695E-04  2.4843514E-04  2.3904159E-04
  -17.0000  2.4077609E-04  2.6011485E-04  2.4987992E-04
  -16.0000  2.5192328E-04  2.7286407E-04  2.6166919E-04
  -15.0000  2.6406343E-04  2.8683355E-04  2.7453767E-04
  -14.0000  2.7733231E-04  3.0220344E-04  2.8863767E-04
  -13.0000  2.9189144E-04  3.1919071E-04  3.0415135E-04
  -12.0000  3.0793453E-04  3.3805901E-04  3.2129853E-04
  -11.0000  3.2569601E-04  3.5913185E-04  3.4034694E-04
  -10.0000  3.4546234E-04  3.8281044E-04  3.6162605E-04
  -9.00000  3.6758747E-04  4.0959835E-04  3.8554618E-04
  -8.00000  3.9251423E-04  4.4013618E-04  4.1262506E-04
  -7.00000  4.2080455E-04  4.7525126E-04  4.4352588E-04
  -6.00000  4.5318327E-04  5.1603075E-04  4.7911305E-04
  -5.00000  4.9060347E-04  5.6393213E-04  5.2053615E-04
  -4.00000  5.3434714E-04  6.2095569E-04  5.6936095E-04
  -3.00000  5.8618694E-04  6.8992457E-04  6.2778205E-04
  -2.00000  6.4865954E-04  7.7496144E-04  6.9898565E-04
  -1.00000  7.2555814E-04  8.8235010E-04  7.8780772E-04
   0.00000  8.2289783E-04  1.0222178E-03  9.0202664E-04
   1.00000  9.5103721E-04  1.2121838E-03  1.0551879E-03
   2.00000  1.1301629E-03  1.4865466E-03  1.2737789E-03
   3.00000  1.4083847E-03  1.9253400E-03  1.6201098E-03
   4.00000  1.9489004E-03  2.7865223E-03  2.2971896E-03
   5.00000  3.4868050E-03  5.1976957E-03  4.1859681E-03
   5.20000  3.9438195E-03  5.9526913E-03  4.7641788E-03
   5.40000  4.3683696E-03  6.7069598E-03  5.3362302E-03
   5.60000  4.7447830E-03  7.4401198E-03  5.8961869E-03
   5.80000  5.0839426E-03  8.1630103E-03  6.4633571E-03
   6.00000  5.4045668E-03  8.8956365E-03  7.0610872E-03
   6.20000  5.7244836E-03  9.6571128E-03  7.7086263E-03
   6.40000  6.0587227E-03  1.0463922E-02  8.4203489E-03
   6.60000  6.4195025E-03  1.1330344E-02  9.2062976E-03
   6.80000  6.8164807E-03  1.2268784E-02  1.0072421E-02
   7.00000  7.2571493E-03  1.3289696E-02  1.1020653E-02
   7.20000  7.7474363E-03  1.4401357E-02  1.2049125E-02
   7.40000  8.2923634E-03  1.5609861E-02  1.3152550E-02
   7.60000  8.8964848E-03  1.6919604E-02  1.4322526E-02
   7.80000  9.5639340E-03  1.8334388E-02  1.5547296E-02
   8.00000  1.0298097E-02  1.9859148E-02  1.6810413E-02
   8.20000  1.1100971E-02  2.1501889E-02  1.8088056E-02
   8.40000  1.1972344E-02  2.3274902E-02  1.9345845E-02
   8.60000  1.2909173E-02  2.5194573E-02  2.0537870E-02
   8.80000  1.3905589E-02  2.7279296E-02  2.1610801E-02
   9.00000  1.4953705E-02  2.9545301E-02  2.2514113E-02
   9.20000  1.6045406E-02  3.2001000E-02  2.3214588E-02
   9.40000  1.7174792E-02  3.4641123E-02  2.3709471E-02
   9.60000  1.8340265E-02  3.7442007E-02  2.4031170E-02
   9.80000  1.9545107E-02  4.0358753E-02  2.4240377E-02
   10.0000  2.0796037E-02  4.3323855E-02  2.4410829E-02
   10.2500  2.2435042E-02  4.6957699E-02  2.4674174E-02
   10.5000  2.4162728E-02  5.0299106E-02  2.5083581E-02
   10.7500  2.5967812E-02  5.3088965E-02  2.5687983E-02
   11.0000  2.7815653E-02  5.5068034E-02  2.6492881E-02
   11.2500  2.9646786E-02  5.6028052E-02  2.7470976E-02
   11.5000  3.1381481E-02  5.5868915E-02  2.8571600E-02
   11.7500  3.2932257E-02  5.4636899E-02  2.9729374E-02
   12.0000  3.4223273E-02  5.2518698E-02  3.0873576E-02
   12.2500  3.5209077E-02  4.9787402E-02  3.1939548E-02
   12.5000  3.5884392E-02  4.6729289E-02  3.2879022E-02
   12.7500  3.6280806E-02  4.3588627E-02  3.3664427E-02
   13.0000  3.6453949E-02  4.0543278E-02  3.4289361E-02
   13.2500  3.6468405E-02  3.7704800E-02  3.4767298E-02
   13.5000  3.6386044E-02  3.5131422E-02  3.5127296E-02
   13.7500  3.6259428E-02  3.2843840E-02  3.5407250E-02
   14.0000  3.6129123E-02  3.0838784E-02  3.5646733E-02
   14.2500  3.6023410E-02  2.9099210E-02  3.5881382E-02
   14.5000  3.5959445E-02  2.7601437E-02  3.6139887E-02
   14.7500  3.5945152E-02  2.6319731E-02  3.6442858E-02
   15.0000  3.5981374E-02  2.5228929E-02  3.6802463E-02
   15.2500  3.6063802E-02  2.4305740E-02  3.7222421E-02
   15.5000  3.6184387E-02  2.3529318E-02  3.7698286E-02
   15.7500  3.6332309E-02  2.2881415E-02  3.8218013E-02
   16.0000  3.6494708E-02  2.2346307E-02  3.8762846E-02
   16.2500  3.6657410E-02  2.1910573E-02  3.9308600E-02
   16.5000  3.6805823E-02  2.1562831E-02  3.9827449E-02
   16.7500  3.6926066E-02  2.1293450E-02  4.0290254E-02
   17.0000  3.7006274E-02  2.1094285E-02  4.0669301E-02
   17.2500  3.7037912E-02  2.0958426E-02  4.0941158E-02
   17.5000  3.7016838E-02  2.0879973E-02  4.1089175E-02
   17.7500  3.6943882E-02  2.0853849E-02  4.1105164E-02
   18.0000  3.6824789E-02  2.0875638E-02  4.0989900E-02
   18.2500  3.6669533E-02  2.0941465E-02  4.0752376E-02
   18.5000  3.6491147E-02  2.1047906E-02  4.0408045E-02
   18.7500  3.6304304E-02  2.1191936E-02  3.9976480E-02
   19.0000  3.6123902E-02  2.1370898E-02  3.9478928E-02
   19.2500  3.5963830E-02  2.1582508E-02  3.8936139E-02
   19.5000  3.5836007E-02  2.1824868E-02  3.8366697E-02
   19.7500  3.5749720E-02  2.2096425E-02  3.7786030E-02
   20.0000  3.5711266E-02  2.2395813E-02  3.7206229E-02
   21.0000  3.6064177E-02  2.3837877E-02  3.5058339E-02
   22.0000  3.7028063E-02  2.5589058E-02  3.3361608E-02
   23.0000  3.7965221E-02  2.7543298E-02  3.2088650E-02
   24.0000  3.8106224E-02  2.9564884E-02  3.1107555E-02
   25.0000  3.7050572E-02  3.1479988E-02  3.0290206E-02
   26.0000  3.5032013E-02  3.3098119E-02  2.9540744E-02
   27.0000  3.2654284E-02  3.4263704E-02  2.8810832E-02
   28.0000  3.0424678E-02  3.4905710E-02  2.8107521E-02
   29.0000  2.8572660E-02  3.5053395E-02  2.7481140E-02
   30.0000  2.7141861E-02  3.4808957E-02  2.6991874E-02
   31.0000  2.6104232E-02  3.4295571E-02  2.6674767E-02
   32.0000  2.5406055E-02  3.3615655E-02  2.6524199E-02
   33.0000  2.4976528E-02  3.2843608E-02  2.6498863E-02
   34.0000  2.4737096E-02  3.2030980E-02  2.6537664E-02
   35.0000  2.4625114E-02  3.1195108E-02  2.6579763E-02
   36.0000  2.4595524E-02  3.0337097E-02  2.6577727E-02
   37.0000  2.4614066E-02  2.9463756E-02  2.6504832E-02
   38.0000  2.4653308E-02  2.8599913E-02  2.6359735E-02
   39.0000  2.4690992E-02  2.7799275E-02  2.6169053E-02
   40.0000  2.4713905E-02  2.7145206E-02  2.5984407E-02
