    Energy   (100,001)      (010,001)      (001,110)   
  -25.0000  1.6263315E-04  1.8033833E-04  1.6681860E-04
  -24.0000  1.6875111E-04  1.8730799E-04  1.7314333E-04
  -23.0000  1.7529245E-04  1.9478800E-04  1.7991162E-04
  -22.0000  1.8230084E-04  2.0283490E-04  1.8716990E-04
  -21.0000  1.8982601E-04  2.1151369E-04  1.9497117E-04
  -20.0000  1.9792486E-04  2.2089959E-04  2.0337621E-04
  -19.0000  2.0666282E-04  2.3108000E-04  2.1245501E-04
  -18.0000  2.1611545E-04  2.4215708E-04  2.2228862E-04
  -17.0000  2.2637048E-04  2.5425099E-04  2.3297134E-04
  -16.0000  2.3753033E-04  2.6750392E-04  2.4461357E-04
  -15.0000  2.4971533E-04  2.8208537E-04  2.5734534E-04
  -14.0000  2.6306779E-04  2.9819893E-04  2.7132086E-04
  -13.0000  2.7775717E-04  3.1609119E-04  2.8672435E-04
  -12.0000  2.9398699E-04  3.3606356E-04  3.0377772E-04
  -11.0000  3.1200368E-04  3.5848817E-04  3.2275063E-04
  -10.0000  3.3210865E-04  3.8382964E-04  3.4397409E-04
  -9.00000  3.5467453E-04  4.1267529E-04  3.6785890E-04
  -8.00000  3.8016764E-04  4.4577790E-04  3.9492127E-04
  -7.00000  4.0917975E-04  4.8411760E-04  4.2581913E-04
  -6.00000  4.4247381E-04  5.2899347E-04  4.6140465E-04
  -5.00000  4.8105196E-04  5.8216310E-04  5.0280248E-04
  -4.00000  5.2625960E-04  6.4606213E-04  5.5152987E-04
  -3.00000  5.7995127E-04  7.2416303E-04  6.0968834E-04
  -2.00000  6.4476775E-04  8.2158948E-04  6.8028375E-04
  -1.00000  7.2462798E-04  9.4623069E-04  7.6779248E-04
   0.00000  8.2567360E-04  1.1109181E-03  8.7924040E-04
   1.00000  9.5828690E-04  1.3381208E-03  1.0264746E-03
   2.00000  1.1421105E-03  1.6716099E-03  1.2316761E-03
   3.00000  1.4217709E-03  2.2124104E-03  1.5439627E-03
   4.00000  1.9378884E-03  3.2762113E-03  2.1103008E-03
   5.00000  3.3008624E-03  6.2082789E-03  3.5471484E-03
   5.20000  3.7265347E-03  7.1471949E-03  4.0119164E-03
   5.40000  4.1560528E-03  8.1180693E-03  4.5065277E-03
   5.60000  4.5768698E-03  9.1025278E-03  5.0202624E-03
   5.80000  4.9928243E-03  1.0114374E-02  5.5526624E-03
   6.00000  5.4135640E-03  1.1176970E-02  6.1060690E-03
   6.20000  5.8492494E-03  1.2313465E-02  6.6832599E-03
   6.40000  6.3088921E-03  1.3545892E-02  7.2889857E-03
   6.60000  6.7996384E-03  1.4896518E-02  7.9324338E-03
   6.80000  7.3264458E-03  1.6389209E-02  8.6283540E-03
   7.00000  7.8924352E-03  1.8050610E-02  9.3954370E-03
   7.20000  8.4998580E-03  1.9910832E-02  1.0252229E-02
   7.40000  9.1510672E-03  2.2002237E-02  1.1212641E-02
   7.60000  9.8488741E-03  2.4354349E-02  1.2283273E-02
   7.80000  1.0596224E-02  2.6983583E-02  1.3463336E-02
   8.00000  1.1395678E-02  2.9878614E-02  1.4746345E-02
   8.20000  1.2249382E-02  3.2986882E-02  1.6121980E-02
   8.40000  1.3160029E-02  3.6214191E-02  1.7576665E-02
   8.60000  1.4132508E-02  3.9447710E-02  1.9092431E-02
   8.80000  1.5174901E-02  4.2594693E-02  2.0645044E-02
   9.00000  1.6297402E-02  4.5607731E-02  2.2202939E-02
   9.20000  1.7509181E-02  4.8471928E-02  2.3727896E-02
   9.40000  1.8814757E-02  5.1162599E-02  2.5177964E-02
   9.60000  2.0211390E-02  5.3606533E-02  2.6512994E-02
   9.80000  2.1687940E-02  5.5672216E-02  2.7701850E-02
   10.0000  2.3224728E-02  5.7192222E-02  2.8728385E-02
   10.2500  2.5187690E-02  5.8087039E-02  2.9786390E-02
   10.5000  2.7134474E-02  5.7709297E-02  3.0628264E-02
   10.7500  2.8992913E-02  5.6106884E-02  3.1312249E-02
   11.0000  3.0694871E-02  5.3527519E-02  3.1902860E-02
   11.2500  3.2184273E-02  5.0319055E-02  3.2454487E-02
   11.5000  3.3424637E-02  4.6825211E-02  3.3001674E-02
   11.7500  3.4406401E-02  4.3321773E-02  3.3560601E-02
   12.0000  3.5150208E-02  3.9996701E-02  3.4136098E-02
   12.2500  3.5702504E-02  3.6957847E-02  3.4727440E-02
   12.5000  3.6124787E-02  3.4252346E-02  3.5332199E-02
   12.7500  3.6481720E-02  3.1887295E-02  3.5948573E-02
   13.0000  3.6830584E-02  2.9846827E-02  3.6575383E-02
   13.2500  3.7213387E-02  2.8103995E-02  3.7210752E-02
   13.5000  3.7653708E-02  2.6627758E-02  3.7852223E-02
   13.7500  3.8157559E-02  2.5386703E-02  3.8497660E-02
   14.0000  3.8715930E-02  2.4351146E-02  3.9144950E-02
   14.2500  3.9308023E-02  2.3494259E-02  3.9790711E-02
   14.5000  3.9904963E-02  2.2792485E-02  4.0429070E-02
   14.7500  4.0473741E-02  2.2225496E-02  4.1050953E-02
   15.0000  4.0981078E-02  2.1775917E-02  4.1643969E-02
   15.2500  4.1396883E-02  2.1428962E-02  4.2192873E-02
   15.5000  4.1696997E-02  2.1172069E-02  4.2680525E-02
   15.7500  4.1864984E-02  2.0994543E-02  4.3089255E-02
   16.0000  4.1892878E-02  2.0887243E-02  4.3402429E-02
   16.2500  4.1780986E-02  2.0842328E-02  4.3606053E-02
   16.5000  4.1536966E-02  2.0853051E-02  4.3690189E-02
   16.7500  4.1174467E-02  2.0913603E-02  4.3649989E-02
   17.0000  4.0711621E-02  2.1018988E-02  4.3486217E-02
   17.2500  4.0169544E-02  2.1164921E-02  4.3205168E-02
   17.5000  3.9570977E-02  2.1347731E-02  4.2818014E-02
   17.7500  3.8939066E-02  2.1564274E-02  4.2339699E-02
   18.0000  3.8296296E-02  2.1811840E-02  4.1787562E-02
   18.2500  3.7663577E-02  2.2088062E-02  4.1179911E-02
   18.5000  3.7059487E-02  2.2390829E-02  4.0534722E-02
   18.7500  3.6499703E-02  2.2718213E-02  3.9868592E-02
   19.0000  3.5996631E-02  2.3068411E-02  3.9195995E-02
   19.2500  3.5559242E-02  2.3439735E-02  3.8528810E-02
   19.5000  3.5193074E-02  2.3830617E-02  3.7876103E-02
   19.7500  3.4900386E-02  2.4239583E-02  3.7244167E-02
   20.0000  3.4680443E-02  2.4665045E-02  3.6636927E-02
   21.0000  3.4438521E-02  2.6479952E-02  3.4492328E-02
   22.0000  3.4878010E-02  2.8328897E-02  3.2800546E-02
   23.0000  3.5451614E-02  3.0027385E-02  3.1446489E-02
   24.0000  3.5643544E-02  3.1402283E-02  3.0300182E-02
   25.0000  3.5140415E-02  3.2318243E-02  2.9281795E-02
   26.0000  3.3957124E-02  3.2721408E-02  2.8370834E-02
   27.0000  3.2366625E-02  3.2663997E-02  2.7576217E-02
   28.0000  3.0704708E-02  3.2254991E-02  2.6915038E-02
   29.0000  2.9204016E-02  3.1608322E-02  2.6392171E-02
   30.0000  2.7948852E-02  3.0818957E-02  2.5986572E-02
   31.0000  2.6916903E-02  2.9957372E-02  2.5655378E-02
   32.0000  2.6039932E-02  2.9072549E-02  2.5348219E-02
   33.0000  2.5246677E-02  2.8196751E-02  2.5019149E-02
   34.0000  2.4482614E-02  2.7350282E-02  2.4632173E-02
   35.0000  2.3715985E-02  2.6545850E-02  2.4163300E-02
   36.0000  2.2939728E-02  2.5791385E-02  2.3603456E-02
   37.0000  2.2171394E-02  2.5091186E-02  2.2963822E-02
   38.0000  2.1448402E-02  2.4449100E-02  2.2282066E-02
   39.0000  2.0818409E-02  2.3879954E-02  2.1625805E-02
   40.0000  2.0325928E-02  2.3420784E-02  2.1082041E-02
