    Energy   (100,001)      (010,001)      (001,110)   
  -25.0000  1.6941457E-04  1.7864625E-04  1.7662578E-04
  -24.0000  1.7571403E-04  1.8556326E-04  1.8323561E-04
  -23.0000  1.8245094E-04  1.9298534E-04  1.9031098E-04
  -22.0000  1.8967090E-04  2.0096814E-04  1.9790125E-04
  -21.0000  1.9742596E-04  2.0957568E-04  2.0606289E-04
  -20.0000  2.0577577E-04  2.1888191E-04  2.1486079E-04
  -19.0000  2.1478905E-04  2.2897270E-04  2.2436985E-04
  -18.0000  2.2454537E-04  2.3994836E-04  2.3467704E-04
  -17.0000  2.3513731E-04  2.5192672E-04  2.4588381E-04
  -16.0000  2.4667327E-04  2.6504709E-04  2.5810929E-04
  -15.0000  2.5928093E-04  2.7947535E-04  2.7149426E-04
  -14.0000  2.7311178E-04  2.9541045E-04  2.8620622E-04
  -13.0000  2.8834683E-04  3.1309308E-04  3.0244603E-04
  -12.0000  3.0520422E-04  3.3281695E-04  3.2045661E-04
  -11.0000  3.2394919E-04  3.5494413E-04  3.4053439E-04
  -10.0000  3.4490752E-04  3.7992579E-04  3.6304492E-04
  -9.00000  3.6848388E-04  4.0833115E-04  3.8844413E-04
  -8.00000  3.9518728E-04  4.4088808E-04  4.1730795E-04
  -7.00000  4.2566725E-04  4.7854191E-04  4.5037455E-04
  -6.00000  4.6076626E-04  5.2254201E-04  4.8860578E-04
  -5.00000  5.0159800E-04  5.7457328E-04  5.3327901E-04
  -4.00000  5.4966788E-04  6.3696207E-04  5.8612886E-04
  -3.00000  6.0706562E-04  7.1301122E-04  6.4957384E-04
  -2.00000  6.7678774E-04  8.0757091E-04  7.2709567E-04
  -1.00000  7.6330901E-04  9.2806870E-04  8.2390960E-04
   0.00000  8.7367280E-04  1.0865110E-03  9.4823616E-04
   1.00000  1.0197870E-03  1.3037804E-03  1.1139520E-03
   2.00000  1.2239849E-03  1.6202788E-03  1.3469069E-03
   3.00000  1.5357055E-03  2.1287558E-03  1.7034137E-03
   4.00000  2.1024257E-03  3.1190879E-03  2.3464229E-03
   5.00000  3.5302897E-03  5.8237582E-03  3.9205285E-03
   5.20000  3.9801551E-03  6.6740018E-03  4.4114976E-03
   5.40000  4.4521236E-03  7.5383589E-03  4.9321537E-03
   5.60000  4.9421396E-03  8.3997660E-03  5.4851983E-03
   5.80000  5.4610555E-03  9.2742545E-03  6.0889126E-03
   6.00000  6.0246408E-03  1.0188028E-02  6.7654838E-03
   6.20000  6.6490342E-03  1.1167017E-02  7.5367155E-03
   6.40000  7.3497279E-03  1.2235045E-02  8.4239870E-03
   6.60000  8.1411763E-03  1.3414310E-02  9.4485593E-03
   6.80000  9.0358393E-03  1.4725934E-02  1.0630420E-02
   7.00000  1.0042170E-02  1.6190240E-02  1.1984664E-02
   7.20000  1.1161279E-02  1.7826704E-02  1.3514881E-02
   7.40000  1.2382461E-02  1.9653579E-02  1.5204144E-02
   7.60000  1.3678860E-02  2.1687707E-02  1.7006630E-02
   7.80000  1.5006193E-02  2.3945281E-02  1.8846156E-02
   8.00000  1.6308299E-02  2.6443525E-02  2.0628826E-02
   8.20000  1.7530610E-02  2.9201407E-02  2.2270229E-02
   8.40000  1.8636360E-02  3.2235998E-02  2.3724255E-02
   8.60000  1.9616371E-02  3.5552410E-02  2.4994370E-02
   8.80000  2.0487689E-02  3.9129461E-02  2.6120606E-02
   9.00000  2.1284792E-02  4.2906125E-02  2.7154751E-02
   9.20000  2.2050174E-02  4.6772754E-02  2.8141159E-02
   9.40000  2.2827585E-02  5.0568656E-02  2.9110157E-02
   9.60000  2.3657385E-02  5.4087774E-02  3.0080221E-02
   9.80000  2.4572604E-02  5.7096150E-02  3.1062336E-02
   10.0000  2.5595147E-02  5.9364089E-02  3.2062448E-02
   10.2500  2.7033907E-02  6.0887872E-02  3.3338159E-02
   10.5000  2.8627456E-02  6.0822606E-02  3.4628330E-02
   10.7500  3.0308175E-02  5.9284680E-02  3.5900401E-02
   11.0000  3.1969347E-02  5.6606947E-02  3.7105458E-02
   11.2500  3.3486120E-02  5.3214625E-02  3.8185540E-02
   11.5000  3.4747665E-02  4.9508584E-02  3.9083459E-02
   11.7500  3.5684882E-02  4.5798793E-02  3.9751142E-02
   12.0000  3.6283112E-02  4.2286877E-02  4.0158443E-02
   12.2500  3.6578621E-02  3.9081658E-02  4.0305095E-02
   12.5000  3.6641416E-02  3.6226234E-02  4.0224983E-02
   12.7500  3.6553932E-02  3.3721865E-02  3.9973956E-02
   13.0000  3.6394157E-02  3.1546312E-02  3.9612734E-02
   13.2500  3.6225383E-02  2.9666848E-02  3.9195367E-02
   13.5000  3.6092239E-02  2.8048137E-02  3.8764192E-02
   13.7500  3.6021738E-02  2.6656335E-02  3.8349561E-02
   14.0000  3.6026870E-02  2.5460938E-02  3.7971750E-02
   14.2500  3.6110470E-02  2.4435463E-02  3.7642975E-02
   14.5000  3.6268306E-02  2.3557503E-02  3.7368984E-02
   14.7500  3.6491210E-02  2.2808403E-02  3.7150508E-02
   15.0000  3.6766391E-02  2.2172774E-02  3.6984508E-02
   15.2500  3.7078167E-02  2.1638011E-02  3.6865129E-02
   15.5000  3.7408441E-02  2.1193868E-02  3.6784377E-02
   15.7500  3.7737254E-02  2.0832086E-02  3.6732702E-02
   16.0000  3.8043633E-02  2.0546048E-02  3.6699599E-02
   16.2500  3.8306837E-02  2.0330467E-02  3.6674282E-02
   16.5000  3.8507950E-02  2.0181096E-02  3.6646431E-02
   16.7500  3.8631620E-02  2.0094459E-02  3.6606932E-02
   17.0000  3.8667673E-02  2.0067599E-02  3.6548514E-02
   17.2500  3.8612282E-02  2.0097855E-02  3.6466169E-02
   17.5000  3.8468455E-02  2.0182681E-02  3.6357303E-02
   17.7500  3.8245702E-02  2.0319499E-02  3.6221585E-02
   18.0000  3.7958950E-02  2.0505607E-02  3.6060568E-02
   18.2500  3.7626878E-02  2.0738133E-02  3.5877148E-02
   18.5000  3.7269978E-02  2.1014033E-02  3.5674997E-02
   18.7500  3.6908632E-02  2.1330136E-02  3.5458037E-02
   19.0000  3.6561434E-02  2.1683230E-02  3.5230009E-02
   19.2500  3.6243919E-02  2.2070184E-02  3.4994164E-02
   19.5000  3.5967727E-02  2.2488086E-02  3.4753065E-02
   19.7500  3.5740170E-02  2.2934310E-02  3.4508510E-02
   20.0000  3.5564188E-02  2.3406361E-02  3.4261621E-02
   21.0000  3.5309586E-02  2.5490024E-02  3.3262126E-02
   22.0000  3.5375824E-02  2.7733455E-02  3.2246039E-02
   23.0000  3.5120551E-02  2.9946873E-02  3.1198462E-02
   24.0000  3.4181783E-02  3.1904265E-02  3.0126167E-02
   25.0000  3.2683602E-02  3.3367089E-02  2.9062120E-02
   26.0000  3.1021597E-02  3.4174483E-02  2.8048538E-02
   27.0000  2.9505943E-02  3.4312730E-02  2.7128328E-02
   28.0000  2.8225765E-02  3.3909624E-02  2.6349278E-02
   29.0000  2.7148564E-02  3.3161580E-02  2.5755985E-02
   30.0000  2.6232459E-02  3.2238624E-02  2.5360679E-02
   31.0000  2.5457543E-02  3.1254145E-02  2.5137544E-02
   32.0000  2.4810098E-02  3.0270792E-02  2.5033829E-02
   33.0000  2.4269651E-02  2.9312079E-02  2.4985458E-02
   34.0000  2.3810083E-02  2.8376533E-02  2.4931123E-02
   35.0000  2.3406076E-02  2.7451900E-02  2.4821534E-02
   36.0000  2.3038658E-02  2.6527723E-02  2.4626054E-02
   37.0000  2.2698080E-02  2.5605956E-02  2.4338875E-02
   38.0000  2.2384193E-02  2.4709927E-02  2.3983666E-02
   39.0000  2.2106088E-02  2.3891835E-02  2.3612921E-02
   40.0000  2.1881059E-02  2.3229022E-02  2.3294829E-02
