    Energy   (100,001)      (010,001)      (001,110)   
  -25.0000  1.7242652E-04  1.8686916E-04  1.8255819E-04
  -24.0000  1.7859364E-04  1.9385056E-04  1.8933444E-04
  -23.0000  1.8517530E-04  2.0133134E-04  1.9658973E-04
  -22.0000  1.9221346E-04  2.0936587E-04  2.0437552E-04
  -21.0000  1.9975584E-04  2.1801659E-04  2.1275077E-04
  -20.0000  2.0785698E-04  2.2735559E-04  2.2178347E-04
  -19.0000  2.1657943E-04  2.3746652E-04  2.3155230E-04
  -18.0000  2.2599532E-04  2.4844693E-04  2.4214895E-04
  -17.0000  2.3618827E-04  2.6041132E-04  2.5368079E-04
  -16.0000  2.4725567E-04  2.7349490E-04  2.6627441E-04
  -15.0000  2.5931174E-04  2.8785848E-04  2.8008012E-04
  -14.0000  2.7249125E-04  3.0369472E-04  2.9527774E-04
  -13.0000  2.8695437E-04  3.2123636E-04  3.1208420E-04
  -12.0000  3.0289295E-04  3.4076712E-04  3.3076361E-04
  -11.0000  3.2053877E-04  3.6263620E-04  3.5164087E-04
  -10.0000  3.4017452E-04  3.8727821E-04  3.7512016E-04
  -9.00000  3.6214871E-04  4.1524057E-04  4.0171082E-04
  -8.00000  3.8689614E-04  4.4722228E-04  4.3206397E-04
  -7.00000  4.1496666E-04  4.8412955E-04  4.6702583E-04
  -6.00000  4.4706656E-04  5.2715798E-04  5.0771726E-04
  -5.00000  4.8411965E-04  5.7791682E-04  5.5565606E-04
  -4.00000  5.2736023E-04  6.3862335E-04  6.1295215E-04
  -3.00000  5.7848034E-04  7.1241844E-04  6.8263249E-04
  -2.00000  6.3987376E-04  8.0390321E-04  7.6921125E-04
  -1.00000  7.1506537E-04  9.2010527E-04  8.7975802E-04
   0.00000  8.0952721E-04  1.0723531E-03  1.0260745E-03
   1.00000  9.3240358E-04  1.2802945E-03  1.2296555E-03
   2.00000  1.1007593E-03  1.5818411E-03  1.5349158E-03
   3.00000  1.3528117E-03  2.0638349E-03  2.0537589E-03
   4.00000  1.8079405E-03  2.9972714E-03  3.1819912E-03
   5.00000  2.9743777E-03  5.5382188E-03  6.7345730E-03
   5.20000  3.3227138E-03  6.3421468E-03  7.8115617E-03
   5.40000  3.6626412E-03  7.1640426E-03  8.8099957E-03
   5.60000  3.9867579E-03  7.9858703E-03  9.6988416E-03
   5.80000  4.3045643E-03  8.8188646E-03  1.0518059E-02
   6.00000  4.6306645E-03  9.6831470E-03  1.1328038E-02
   6.20000  4.9788607E-03  1.0598192E-02  1.2182965E-02
   6.40000  5.3605096E-03  1.1581016E-02  1.3123430E-02
   6.60000  5.7845481E-03  1.2646806E-02  1.4176301E-02
   6.80000  6.2581562E-03  1.3810128E-02  1.5355824E-02
   7.00000  6.7874741E-03  1.5086382E-02  1.6663187E-02
   7.20000  7.3779834E-03  1.6493314E-02  1.8084171E-02
   7.40000  8.0344621E-03  1.8052223E-02  1.9586920E-02
   7.60000  8.7606166E-03  1.9788474E-02  2.1122303E-02
   7.80000  9.5585557E-03  2.1731061E-02  2.2627616E-02
   8.00000  1.0428373E-02  2.3910955E-02  2.4033171E-02
   8.20000  1.1368100E-02  2.6358093E-02  2.5270564E-02
   8.40000  1.2374131E-02  2.9097041E-02  2.6281976E-02
   8.60000  1.3442040E-02  3.2141283E-02  2.7030808E-02
   8.80000  1.4567460E-02  3.5485855E-02  2.7512456E-02
   9.00000  1.5746567E-02  3.9097988E-02  2.7760760E-02
   9.20000  1.6975732E-02  4.2906341E-02  2.7844840E-02
   9.40000  1.8250377E-02  4.6791398E-02  2.7854917E-02
   9.60000  1.9563679E-02  5.0581946E-02  2.7882334E-02
   9.80000  2.0906052E-02  5.4063447E-02  2.8002752E-02
   10.0000  2.2265523E-02  5.7001716E-02  2.8267537E-02
   10.2500  2.3967529E-02  5.9584230E-02  2.8838048E-02
   10.5000  2.5643418E-02  6.0693781E-02  2.9672656E-02
   10.7500  2.7258299E-02  6.0270204E-02  3.0730520E-02
   11.0000  2.8773245E-02  5.8485885E-02  3.1943590E-02
   11.2500  3.0148532E-02  5.5670777E-02  3.3228756E-02
   11.5000  3.1351647E-02  5.2211491E-02  3.4498551E-02
   11.7500  3.2363166E-02  4.8467896E-02  3.5670600E-02
   12.0000  3.3178084E-02  4.4724683E-02  3.6675252E-02
   12.2500  3.3806614E-02  4.1176659E-02  3.7461084E-02
   12.5000  3.4272746E-02  3.7936502E-02  3.7999365E-02
   12.7500  3.4608430E-02  3.5052855E-02  3.8285249E-02
   13.0000  3.4846581E-02  3.2530578E-02  3.8334476E-02
   13.2500  3.5016867E-02  3.0348765E-02  3.8178063E-02
   13.5000  3.5144251E-02  2.8474296E-02  3.7856648E-02
   13.7500  3.5248991E-02  2.6870319E-02  3.7415083E-02
   14.0000  3.5347237E-02  2.5500893E-02  3.6897747E-02
   14.2500  3.5451662E-02  2.4333339E-02  3.6344930E-02
   14.5000  3.5571922E-02  2.3339242E-02  3.5790473E-02
   14.7500  3.5714895E-02  2.2494625E-02  3.5260630E-02
   15.0000  3.5884746E-02  2.1779664E-02  3.4773940E-02
   15.2500  3.6082922E-02  2.1178177E-02  3.4341800E-02
   15.5000  3.6308175E-02  2.0677038E-02  3.3969463E-02
   15.7500  3.6556716E-02  2.0265616E-02  3.3657224E-02
   16.0000  3.6822591E-02  1.9935260E-02  3.3401671E-02
   16.2500  3.7098286E-02  1.9678862E-02  3.3196898E-02
   16.5000  3.7375549E-02  1.9490489E-02  3.3035619E-02
   16.7500  3.7646307E-02  1.9365094E-02  3.2910118E-02
   17.0000  3.7903574E-02  1.9298282E-02  3.2812989E-02
   17.2500  3.8142183E-02  1.9286142E-02  3.2737635E-02
   17.5000  3.8359235E-02  1.9325120E-02  3.2678528E-02
   17.7500  3.8554189E-02  1.9411930E-02  3.2631264E-02
   18.0000  3.8728591E-02  1.9543501E-02  3.2592463E-02
   18.2500  3.8885512E-02  1.9716949E-02  3.2559593E-02
   18.5000  3.9028833E-02  1.9929557E-02  3.2530760E-02
   18.7500  3.9162494E-02  2.0178785E-02  3.2504526E-02
   19.0000  3.9289852E-02  2.0462290E-02  3.2479755E-02
   19.2500  3.9413201E-02  2.0777975E-02  3.2455516E-02
   19.5000  3.9533497E-02  2.1124037E-02  3.2431014E-02
   19.7500  3.9650219E-02  2.1498975E-02  3.2405546E-02
   20.0000  3.9761275E-02  2.1901416E-02  3.2378473E-02
   21.0000  4.0053168E-02  2.3748608E-02  3.2241994E-02
   22.0000  3.9797698E-02  2.5883397E-02  3.2030957E-02
   23.0000  3.8675669E-02  2.8187625E-02  3.1707406E-02
   24.0000  3.6690796E-02  3.0483914E-02  3.1245796E-02
   25.0000  3.4212044E-02  3.2517018E-02  3.0646718E-02
   26.0000  3.1751952E-02  3.4030331E-02  2.9938633E-02
   27.0000  2.9681657E-02  3.4881354E-02  2.9171864E-02
   28.0000  2.8104898E-02  3.5091195E-02  2.8414837E-02
   29.0000  2.6942627E-02  3.4807292E-02  2.7751913E-02
   30.0000  2.6088441E-02  3.4222347E-02  2.7258806E-02
   31.0000  2.5470877E-02  3.3485644E-02  2.6955245E-02
   32.0000  2.5043765E-02  3.2686239E-02  2.6806610E-02
   33.0000  2.4763875E-02  3.1868382E-02  2.6747713E-02
   34.0000  2.4584577E-02  3.1046220E-02  2.6703957E-02
   35.0000  2.4460055E-02  3.0217457E-02  2.6608876E-02
   36.0000  2.4349778E-02  2.9375569E-02  2.6417914E-02
   37.0000  2.4222547E-02  2.8521187E-02  2.6118588E-02
   38.0000  2.4062706E-02  2.7673575E-02  2.5734888E-02
   39.0000  2.3878416E-02  2.6882948E-02  2.5324607E-02
   40.0000  2.3704078E-02  2.6232794E-02  2.4966883E-02
