    Energy   (100,001)      (010,001)      (001,110)   
  -25.0000  1.7166174E-04  1.7526608E-04  1.7869891E-04
  -24.0000  1.7785284E-04  1.8228098E-04  1.8524802E-04
  -23.0000  1.8446318E-04  1.8982066E-04  1.9225208E-04
  -22.0000  1.9153553E-04  1.9794407E-04  1.9975903E-04
  -21.0000  1.9911863E-04  2.0671916E-04  2.0782368E-04
  -20.0000  2.0726820E-04  2.1622459E-04  2.1650901E-04
  -19.0000  2.1604827E-04  2.2655193E-04  2.2588777E-04
  -18.0000  2.2553279E-04  2.3780838E-04  2.3604443E-04
  -17.0000  2.3580756E-04  2.5012022E-04  2.4707760E-04
  -16.0000  2.4697277E-04  2.6363714E-04  2.5910318E-04
  -15.0000  2.5914609E-04  2.7853786E-04  2.7225822E-04
  -14.0000  2.7246665E-04  2.9503741E-04  2.8670606E-04
  -13.0000  2.8710017E-04  3.1339671E-04  3.0264290E-04
  -12.0000  3.0324565E-04  3.3393524E-04  3.2030653E-04
  -11.0000  3.2114413E-04  3.5704818E-04  3.3998797E-04
  -10.0000  3.4109048E-04  3.8322985E-04  3.6204734E-04
  -9.00000  3.6344938E-04  4.1310629E-04  3.8693569E-04
  -8.00000  3.8867743E-04  4.4748141E-04  4.1522597E-04
  -7.00000  4.1735431E-04  4.8740387E-04  4.4765744E-04
  -6.00000  4.5022785E-04  5.3426610E-04  4.8520158E-04
  -5.00000  4.8828077E-04  5.8995520E-04  5.2916238E-04
  -4.00000  5.3283289E-04  6.5709020E-04  5.8133474E-04
  -3.00000  5.8570348E-04  7.3940950E-04  6.4426497E-04
  -2.00000  6.4948126E-04  8.4243310E-04  7.2170196E-04
  -1.00000  7.2800006E-04  9.7465998E-04  8.1942898E-04
   0.00000  8.2724146E-04  1.1498958E-03  9.4692604E-04
   1.00000  9.5722856E-04  1.3922384E-03  1.1210654E-03
   2.00000  1.1366135E-03  1.7483344E-03  1.3756336E-03
   3.00000  1.4065333E-03  2.3246183E-03  1.7918485E-03
   4.00000  1.8905493E-03  3.4474775E-03  2.6361206E-03
   5.00000  3.1008596E-03  6.4840441E-03  5.1037007E-03
   5.20000  3.4752343E-03  7.4569368E-03  5.9337783E-03
   5.40000  3.8592253E-03  8.4733144E-03  6.8185994E-03
   5.60000  4.2464279E-03  9.5202921E-03  7.7407695E-03
   5.80000  4.6441826E-03  1.0617296E-02  8.7012770E-03
   6.00000  5.0645702E-03  1.1792082E-02  9.6999349E-03
   6.20000  5.5204631E-03  1.3069055E-02  1.0725823E-02
   6.40000  6.0252604E-03  1.4466670E-02  1.1755577E-02
   6.60000  6.5937210E-03  1.5998617E-02  1.2756198E-02
   6.80000  7.2425835E-03  1.7677310E-02  1.3692941E-02
   7.00000  7.9900234E-03  1.9518984E-02  1.4542856E-02
   7.20000  8.8529287E-03  2.1548364E-02  1.5309492E-02
   7.40000  9.8412297E-03  2.3799865E-02  1.6027755E-02
   7.60000  1.0949611E-02  2.6314267E-02  1.6748835E-02
   7.80000  1.2148833E-02  2.9133489E-02  1.7508226E-02
   8.00000  1.3381499E-02  3.2296743E-02  1.8296130E-02
   8.20000  1.4569816E-02  3.5837246E-02  1.9053706E-02
   8.40000  1.5640941E-02  3.9774679E-02  1.9705004E-02
   8.60000  1.6561986E-02  4.4099207E-02  2.0208187E-02
   8.80000  1.7360098E-02  4.8746668E-02  2.0588750E-02
   9.00000  1.8108699E-02  5.3568729E-02  2.0929063E-02
   9.20000  1.8890504E-02  5.8308757E-02  2.1327826E-02
   9.40000  1.9764942E-02  6.2602850E-02  2.1863558E-02
   9.60000  2.0755306E-02  6.6026503E-02  2.2580136E-02
   9.80000  2.1852518E-02  6.8190267E-02  2.3489671E-02
   10.0000  2.3025838E-02  6.8853088E-02  2.4581090E-02
   10.2500  2.4535628E-02  6.7563609E-02  2.6158818E-02
   10.5000  2.6013004E-02  6.4332071E-02  2.7901344E-02
   10.7500  2.7379413E-02  5.9853971E-02  2.9716256E-02
   11.0000  2.8574421E-02  5.4828975E-02  3.1508282E-02
   11.2500  2.9570575E-02  4.9794006E-02  3.3194982E-02
   11.5000  3.0380388E-02  4.5082562E-02  3.4715374E-02
   11.7500  3.1047025E-02  4.0857669E-02  3.6028381E-02
   12.0000  3.1626040E-02  3.7166997E-02  3.7106575E-02
   12.2500  3.2168786E-02  3.3992280E-02  3.7931567E-02
   12.5000  3.2713059E-02  3.1284099E-02  3.8494100E-02
   12.7500  3.3281055E-02  2.8982947E-02  3.8797737E-02
   13.0000  3.3881879E-02  2.7030454E-02  3.8862331E-02
   13.2500  3.4515314E-02  2.5374518E-02  3.8724066E-02
   13.5000  3.5174908E-02  2.3970977E-02  3.8431329E-02
   13.7500  3.5849926E-02  2.2783296E-02  3.8037523E-02
   14.0000  3.6526267E-02  2.1781465E-02  3.7593388E-02
   14.2500  3.7186818E-02  2.0940870E-02  3.7141282E-02
   14.5000  3.7811740E-02  2.0241336E-02  3.6712221E-02
   14.7500  3.8378946E-02  1.9666322E-02  3.6325232E-02
   15.0000  3.8865036E-02  1.9202261E-02  3.5988329E-02
   15.2500  3.9246773E-02  1.8838006E-02  3.5700469E-02
   15.5000  3.9503094E-02  1.8564379E-02  3.5454071E-02
   15.7500  3.9617432E-02  1.8373792E-02  3.5237740E-02
   16.0000  3.9579998E-02  1.8259920E-02  3.5038920E-02
   16.2500  3.9389590E-02  1.8217422E-02  3.4846175E-02
   16.5000  3.9054464E-02  1.8241683E-02  3.4650833E-02
   16.7500  3.8591992E-02  1.8328604E-02  3.4447839E-02
   17.0000  3.8027098E-02  1.8474418E-02  3.4235773E-02
   17.2500  3.7389772E-02  1.8675560E-02  3.4016229E-02
   17.5000  3.6712193E-02  1.8928562E-02  3.3792820E-02
   17.7500  3.6025971E-02  1.9230001E-02  3.3570126E-02
   18.0000  3.5359921E-02  1.9576461E-02  3.3352808E-02
   18.2500  3.4738568E-02  1.9964526E-02  3.3145014E-02
   18.5000  3.4181352E-02  2.0390794E-02  3.2950072E-02
   18.7500  3.3702444E-02  2.0851911E-02  3.2770409E-02
   19.0000  3.3310982E-02  2.1344639E-02  3.2607605E-02
   19.2500  3.3011566E-02  2.1865964E-02  3.2462509E-02
   19.5000  3.2804869E-02  2.2413211E-02  3.2335361E-02
   19.7500  3.2688225E-02  2.2984082E-02  3.2225882E-02
   20.0000  3.2656094E-02  2.3576425E-02  3.2133365E-02
   21.0000  3.3186918E-02  2.6098881E-02  3.1909132E-02
   22.0000  3.4239076E-02  2.8693105E-02  3.1840243E-02
   23.0000  3.5130445E-02  3.1103030E-02  3.1796051E-02
   24.0000  3.5412974E-02  3.3015847E-02  3.1650765E-02
   25.0000  3.4997798E-02  3.4163055E-02  3.1326164E-02
   26.0000  3.4079559E-02  3.4461963E-02  3.0829656E-02
   27.0000  3.2931404E-02  3.4047522E-02  3.0254717E-02
   28.0000  3.1738945E-02  3.3166644E-02  2.9712332E-02
   29.0000  3.0613108E-02  3.2056155E-02  2.9283818E-02
   30.0000  2.9615838E-02  3.0882015E-02  2.8995795E-02
   31.0000  2.8760231E-02  2.9734450E-02  2.8821394E-02
   32.0000  2.8025121E-02  2.8646675E-02  2.8704316E-02
   33.0000  2.7376892E-02  2.7616174E-02  2.8582791E-02
   34.0000  2.6783969E-02  2.6623069E-02  2.8401622E-02
   35.0000  2.6221299E-02  2.5645605E-02  2.8115064E-02
   36.0000  2.5670849E-02  2.4673019E-02  2.7690116E-02
   37.0000  2.5124270E-02  2.3714334E-02  2.7116567E-02
   38.0000  2.4588460E-02  2.2801887E-02  2.6423346E-02
   39.0000  2.4091156E-02  2.1990360E-02  2.5693883E-02
   40.0000  2.3681090E-02  2.1346161E-02  2.5059038E-02
