    Energy   (100,001)      (010,001)      (001,110)   
  -25.0000  1.7061542E-04  1.8070898E-04  1.8310432E-04
  -24.0000  1.7660293E-04  1.8765110E-04  1.8942252E-04
  -23.0000  1.8298343E-04  1.9509808E-04  1.9615649E-04
  -22.0000  1.8979572E-04  2.0310543E-04  2.0334782E-04
  -21.0000  1.9708385E-04  2.1173701E-04  2.1104380E-04
  -20.0000  2.0489798E-04  2.2106658E-04  2.1929842E-04
  -19.0000  2.1329549E-04  2.3117979E-04  2.2817361E-04
  -18.0000  2.2234235E-04  2.4217668E-04  2.3774071E-04
  -17.0000  2.3211475E-04  2.5417476E-04  2.4808241E-04
  -16.0000  2.4270118E-04  2.6731296E-04  2.5929500E-04
  -15.0000  2.5420502E-04  2.8175673E-04  2.7149137E-04
  -14.0000  2.6674783E-04  2.9770455E-04  2.8480475E-04
  -13.0000  2.8047355E-04  3.1539650E-04  2.9939348E-04
  -12.0000  2.9555390E-04  3.3512572E-04  3.1544732E-04
  -11.0000  3.1219557E-04  3.5725362E-04  3.3319569E-04
  -10.0000  3.3064965E-04  3.8223088E-04  3.5291872E-04
  -9.00000  3.5122450E-04  4.1062636E-04  3.7496226E-04
  -8.00000  3.7430337E-04  4.4316828E-04  3.9975875E-04
  -7.00000  4.0036925E-04  4.8080346E-04  4.2785664E-04
  -6.00000  4.3004071E-04  5.2478542E-04  4.5996321E-04
  -5.00000  4.6412501E-04  5.7680843E-04  4.9700841E-04
  -4.00000  5.0369982E-04  6.3921892E-04  5.4024361E-04
  -3.00000  5.5024403E-04  7.1536236E-04  5.9140075E-04
  -2.00000  6.0585890E-04  8.1018050E-04  6.5296234E-04
  -1.00000  6.7366701E-04  9.3130450E-04  7.2865062E-04
   0.00000  7.5859832E-04  1.0912196E-03  8.2439284E-04
   1.00000  8.6913112E-04  1.3120308E-03  9.5045969E-04
   2.00000  1.0218425E-03  1.6376582E-03  1.1270468E-03
   3.00000  1.2565989E-03  2.1730127E-03  1.4028881E-03
   4.00000  1.7103382E-03  3.2644780E-03  1.9458800E-03
   5.00000  3.0140820E-03  6.4600693E-03  3.5225188E-03
   5.20000  3.4115748E-03  7.4801317E-03  3.9903893E-03
   5.40000  3.7855637E-03  8.5019837E-03  4.4165550E-03
   5.60000  4.1163687E-03  9.4907544E-03  4.7827309E-03
   5.80000  4.4067651E-03  1.0452291E-02  5.1041127E-03
   6.00000  4.6685683E-03  1.1404252E-02  5.4056072E-03
   6.20000  4.9146169E-03  1.2361978E-02  5.7075518E-03
   6.40000  5.1559363E-03  1.3336336E-02  6.0226343E-03
   6.60000  5.4012949E-03  1.4336024E-02  6.3580928E-03
   6.80000  5.6576748E-03  1.5370855E-02  6.7189420E-03
   7.00000  5.9309830E-03  1.6454691E-02  7.1105102E-03
   7.20000  6.2266865E-03  1.7607494E-02  7.5399679E-03
   7.40000  6.5502552E-03  1.8856213E-02  8.0169515E-03
   7.60000  6.9073928E-03  2.0234363E-02  8.5534011E-03
   7.80000  7.3041050E-03  2.1780790E-02  9.1626543E-03
   8.00000  7.7466441E-03  2.3538193E-02  9.8578529E-03
   8.20000  8.2413183E-03  2.5551350E-02  1.0649841E-02
   8.40000  8.7941264E-03  2.7864457E-02  1.1544904E-02
   8.60000  9.4101948E-03  3.0516572E-02  1.2542903E-02
   8.80000  1.0093018E-02  3.3533937E-02  1.3636391E-02
   9.00000  1.0843560E-02  3.6918232E-02  1.4811087E-02
   9.20000  1.1659475E-02  4.0631689E-02  1.6047577E-02
   9.40000  1.2534931E-02  4.4582749E-02  1.7323574E-02
   9.60000  1.3461454E-02  4.8617612E-02  1.8615718E-02
   9.80000  1.4429837E-02  5.2523540E-02  1.9900572E-02
   10.0000  1.5432459E-02  5.6047405E-02  2.1155274E-02
   10.2500  1.6727133E-02  5.9519958E-02  2.2648908E-02
   10.5000  1.8064687E-02  6.1568563E-02  2.4027146E-02
   10.7500  1.9441670E-02  6.1980497E-02  2.5265885E-02
   11.0000  2.0847251E-02  6.0809247E-02  2.6352568E-02
   11.2500  2.2259581E-02  5.8335359E-02  2.7284672E-02
   11.5000  2.3647662E-02  5.4963554E-02  2.8068922E-02
   11.7500  2.4976569E-02  5.1109140E-02  2.8721315E-02
   12.0000  2.6214873E-02  4.7118300E-02  2.9265847E-02
   12.2500  2.7343682E-02  4.3237924E-02  2.9730668E-02
   12.5000  2.8362606E-02  3.9622006E-02  3.0142903E-02
   12.7500  2.9288359E-02  3.6352969E-02  3.0524661E-02
   13.0000  3.0147522E-02  3.3463242E-02  3.0891910E-02
   13.2500  3.0968490E-02  3.0952377E-02  3.1256141E-02
   13.5000  3.1775981E-02  2.8799853E-02  3.1627175E-02
   13.7500  3.2588855E-02  2.6974433E-02  3.2015169E-02
   14.0000  3.3420031E-02  2.5440642E-02  3.2430994E-02
   14.2500  3.4276913E-02  2.4162899E-02  3.2885574E-02
   14.5000  3.5161481E-02  2.3107984E-02  3.3389312E-02
   14.7500  3.6070312E-02  2.2246270E-02  3.3951709E-02
   15.0000  3.6995017E-02  2.1551981E-02  3.4580537E-02
   15.2500  3.7923052E-02  2.1002912E-02  3.5280666E-02
   15.5000  3.8838635E-02  2.0580004E-02  3.6052979E-02
   15.7500  3.9723669E-02  2.0266933E-02  3.6893499E-02
   16.0000  4.0558710E-02  2.0049741E-02  3.7792662E-02
   16.2500  4.1323964E-02  1.9916512E-02  3.8734736E-02
   16.5000  4.2000310E-02  1.9857091E-02  3.9697524E-02
   16.7500  4.2570288E-02  1.9862832E-02  4.0652603E-02
   17.0000  4.3019042E-02  1.9926374E-02  4.1566361E-02
   17.2500  4.3335163E-02  2.0041442E-02  4.2402034E-02
   17.5000  4.3511406E-02  2.0202668E-02  4.3122728E-02
   17.7500  4.3545214E-02  2.0405438E-02  4.3695128E-02
   18.0000  4.3438994E-02  2.0645758E-02  4.4093269E-02
   18.2500  4.3200079E-02  2.0920146E-02  4.4301610E-02
   18.5000  4.2840334E-02  2.1225550E-02  4.4316690E-02
   18.7500  4.2375412E-02  2.1559285E-02  4.4146997E-02
   19.0000  4.1823690E-02  2.1919018E-02  4.3811100E-02
   19.2500  4.1204984E-02  2.2302770E-02  4.3334529E-02
   19.5000  4.0539186E-02  2.2708943E-02  4.2746117E-02
   19.7500  3.9845120E-02  2.3136285E-02  4.2074664E-02
   20.0000  3.9140060E-02  2.3583665E-02  4.1346807E-02
   21.0000  3.6520580E-02  2.5536182E-02  3.8310643E-02
   22.0000  3.4751061E-02  2.7635149E-02  3.5705325E-02
   23.0000  3.4096241E-02  2.9701512E-02  3.3741792E-02
   24.0000  3.4443767E-02  3.1511745E-02  3.2318941E-02
   25.0000  3.5382578E-02  3.2856113E-02  3.1292796E-02
   26.0000  3.6261659E-02  3.3614361E-02  3.0540170E-02
   27.0000  3.6423388E-02  3.3792254E-02  2.9967170E-02
   28.0000  3.5606416E-02  3.3498728E-02  2.9515440E-02
   29.0000  3.4103040E-02  3.2886571E-02  2.9159028E-02
   30.0000  3.2436373E-02  3.2103813E-02  2.8889344E-02
   31.0000  3.0967777E-02  3.1264821E-02  2.8698730E-02
   32.0000  2.9793711E-02  3.0426880E-02  2.8567983E-02
   33.0000  2.8863001E-02  2.9604122E-02  2.8474232E-02
   34.0000  2.8087665E-02  2.8789421E-02  2.8395876E-02
   35.0000  2.7390702E-02  2.7968241E-02  2.8310901E-02
   36.0000  2.6720931E-02  2.7128672E-02  2.8196659E-02
   37.0000  2.6056041E-02  2.6270140E-02  2.8033640E-02
   38.0000  2.5402960E-02  2.5412884E-02  2.7814074E-02
   39.0000  2.4798117E-02  2.4609265E-02  2.7555381E-02
   40.0000  2.4301323E-02  2.3945766E-02  2.7310475E-02
