    Energy   (100,001)      (010,001)      (001,110)   
  -25.0000  1.7127201E-04  1.8343854E-04  1.8070183E-04
  -24.0000  1.7749663E-04  1.9035834E-04  1.8732355E-04
  -23.0000  1.8414469E-04  1.9777584E-04  1.9440547E-04
  -22.0000  1.9125948E-04  2.0574538E-04  2.0199597E-04
  -21.0000  1.9889030E-04  2.1432940E-04  2.1015037E-04
  -20.0000  2.0709353E-04  2.2359997E-04  2.1893220E-04
  -19.0000  2.1593392E-04  2.3364074E-04  2.2841476E-04
  -18.0000  2.2548625E-04  2.4454930E-04  2.3868309E-04
  -17.0000  2.3583726E-04  2.5644018E-04  2.4983636E-04
  -16.0000  2.4708822E-04  2.6944867E-04  2.6199096E-04
  -15.0000  2.5935798E-04  2.8373569E-04  2.7528432E-04
  -14.0000  2.7278705E-04  2.9949405E-04  2.8987996E-04
  -13.0000  2.8754267E-04  3.1695673E-04  3.0597385E-04
  -12.0000  3.0382553E-04  3.3640772E-04  3.2380294E-04
  -11.0000  3.2187855E-04  3.5819663E-04  3.4365636E-04
  -10.0000  3.4199861E-04  3.8275859E-04  3.6589066E-04
  -9.00000  3.6455252E-04  4.1064172E-04  3.9095065E-04
  -8.00000  3.8999894E-04  4.4254591E-04  4.1939852E-04
  -7.00000  4.1891938E-04  4.7937855E-04  4.5195548E-04
  -6.00000  4.5206284E-04  5.2233671E-04  4.8956257E-04
  -5.00000  4.9041179E-04  5.7303153E-04  5.3347220E-04
  -4.00000  5.3528304E-04  6.3368255E-04  5.8539026E-04
  -3.00000  5.8848772E-04  7.0743317E-04  6.4770590E-04
  -2.00000  6.5259700E-04  7.9888678E-04  7.2388087E-04
  -1.00000  7.3141024E-04  9.1507146E-04  8.1915024E-04
   0.00000  8.3084457E-04  1.0673099E-03  9.4188401E-04
   1.00000  9.6080963E-04  1.2752260E-03  1.1065213E-03
   2.00000  1.1397864E-03  1.5766580E-03  1.3408863E-03
   3.00000  1.4088425E-03  2.0582694E-03  1.7089230E-03
   4.00000  1.8932879E-03  2.9911258E-03  2.4111770E-03
   5.00000  3.1216929E-03  5.5282340E-03  4.3132949E-03
   5.20000  3.5036978E-03  6.3199678E-03  4.9272327E-03
   5.40000  3.8958192E-03  7.1191746E-03  5.5683127E-03
   5.60000  4.2914646E-03  7.9094882E-03  6.2237975E-03
   5.80000  4.6969633E-03  8.7062634E-03  6.8994487E-03
   6.00000  5.1214681E-03  9.5340609E-03  7.6055048E-03
   6.20000  5.5723806E-03  1.0416485E-02  8.3500755E-03
   6.40000  6.0546320E-03  1.1374675E-02  9.1377897E-03
   6.60000  6.5711707E-03  1.2428421E-02  9.9701144E-03
   6.80000  7.1236803E-03  1.3597604E-02  1.0846124E-02
   7.00000  7.7133794E-03  1.4903356E-02  1.1763556E-02
   7.20000  8.3419626E-03  1.6368726E-02  1.2720176E-02
   7.40000  9.0126202E-03  1.8018700E-02  1.3715275E-02
   7.60000  9.7308581E-03  1.9879456E-02  1.4750728E-02
   7.80000  1.0504747E-02  2.1976729E-02  1.5831148E-02
   8.00000  1.1344363E-02  2.4333156E-02  1.6963110E-02
   8.20000  1.2260545E-02  2.6964377E-02  1.8153842E-02
   8.40000  1.3263205E-02  2.9873833E-02  1.9409791E-02
   8.60000  1.4359198E-02  3.3046691E-02  2.0735355E-02
   8.80000  1.5550137E-02  3.6444725E-02  2.2131906E-02
   9.00000  1.6831227E-02  4.0004606E-02  2.3597004E-02
   9.20000  1.8191816E-02  4.3639705E-02  2.5123693E-02
   9.40000  1.9617293E-02  4.7242677E-02  2.6699205E-02
   9.60000  2.1091081E-02  5.0686294E-02  2.8302872E-02
   9.80000  2.2595515E-02  5.3823794E-02  2.9905214E-02
   10.0000  2.4111238E-02  5.6494184E-02  3.1469860E-02
   10.2500  2.5987100E-02  5.8933160E-02  3.3313213E-02
   10.5000  2.7793666E-02  6.0143553E-02  3.4966541E-02
   10.7500  2.9478814E-02  6.0011782E-02  3.6377434E-02
   11.0000  3.1002115E-02  5.8596538E-02  3.7517015E-02
   11.2500  3.2337611E-02  5.6112635E-02  3.8382739E-02
   11.5000  3.3467632E-02  5.2873514E-02  3.8995266E-02
   11.7500  3.4382466E-02  4.9215484E-02  3.9385584E-02
   12.0000  3.5084575E-02  4.5433268E-02  3.9583655E-02
   12.2500  3.5588626E-02  4.1748673E-02  3.9614846E-02
   12.5000  3.5918306E-02  3.8309013E-02  3.9501171E-02
   12.7500  3.6104203E-02  3.5197580E-02  3.9263785E-02
   13.0000  3.6182076E-02  3.2447951E-02  3.8925453E-02
   13.2500  3.6189908E-02  3.0059540E-02  3.8511904E-02
   13.5000  3.6163965E-02  2.8011280E-02  3.8050817E-02
   13.7500  3.6135380E-02  2.6271791E-02  3.7569418E-02
   14.0000  3.6128465E-02  2.4806159E-02  3.7092703E-02
   14.2500  3.6160477E-02  2.3579982E-02  3.6642465E-02
   14.5000  3.6242022E-02  2.2561481E-02  3.6236518E-02
   14.7500  3.6377690E-02  2.1722387E-02  3.5888075E-02
   15.0000  3.6566785E-02  2.1038149E-02  3.5605368E-02
   15.2500  3.6804071E-02  2.0487761E-02  3.5391564E-02
   15.5000  3.7080526E-02  2.0053430E-02  3.5244944E-02
   15.7500  3.7384137E-02  1.9720177E-02  3.5159352E-02
   16.0000  3.7700774E-02  1.9475429E-02  3.5124903E-02
   16.2500  3.8015141E-02  1.9308652E-02  3.5128968E-02
   16.5000  3.8311835E-02  1.9211018E-02  3.5157364E-02
   16.7500  3.8576426E-02  1.9175117E-02  3.5195672E-02
   17.0000  3.8796502E-02  1.9194717E-02  3.5230512E-02
   17.2500  3.8962558E-02  1.9264565E-02  3.5250628E-02
   17.5000  3.9068624E-02  1.9380225E-02  3.5247630E-02
   17.7500  3.9112558E-02  1.9537944E-02  3.5216339E-02
   18.0000  3.9095962E-02  1.9734546E-02  3.5154706E-02
   18.2500  3.9023750E-02  1.9967336E-02  3.5063420E-02
   18.5000  3.8903452E-02  2.0234037E-02  3.4945288E-02
   18.7500  3.8744347E-02  2.0532731E-02  3.4804532E-02
   19.0000  3.8556557E-02  2.0861829E-02  3.4646105E-02
   19.2500  3.8350174E-02  2.1220071E-02  3.4475081E-02
   19.5000  3.8134518E-02  2.1606521E-02  3.4296169E-02
   19.7500  3.7917585E-02  2.2020510E-02  3.4113389E-02
   20.0000  3.7705805E-02  2.2461397E-02  3.3929948E-02
   21.0000  3.6991817E-02  2.4463541E-02  3.3231958E-02
   22.0000  3.6526902E-02  2.6739835E-02  3.2621725E-02
   23.0000  3.6103871E-02  2.9101982E-02  3.2043470E-02
   24.0000  3.5380757E-02  3.1304286E-02  3.1412747E-02
   25.0000  3.4154250E-02  3.3099116E-02  3.0678668E-02
   26.0000  3.2525846E-02  3.4302858E-02  2.9839097E-02
   27.0000  3.0793595E-02  3.4840140E-02  2.8937328E-02
   28.0000  2.9219661E-02  3.4759349E-02  2.8061052E-02
   29.0000  2.7921999E-02  3.4208224E-02  2.7316745E-02
   30.0000  2.6906415E-02  3.3364290E-02  2.6762926E-02
   31.0000  2.6140832E-02  3.2379024E-02  2.6398191E-02
   32.0000  2.5579622E-02  3.1354296E-02  2.6179781E-02
   33.0000  2.5164917E-02  3.0344404E-02  2.6047252E-02
   34.0000  2.4834698E-02  2.9372808E-02  2.5943953E-02
   35.0000  2.4535009E-02  2.8450701E-02  2.5828560E-02
   36.0000  2.4230062E-02  2.7587568E-02  2.5676435E-02
   37.0000  2.3906950E-02  2.6792602E-02  2.5476857E-02
   38.0000  2.3574278E-02  2.6075033E-02  2.5233474E-02
   39.0000  2.3257592E-02  2.5451725E-02  2.4970018E-02
   40.0000  2.2993299E-02  2.4956877E-02  2.4733282E-02
