    Energy   (100,001)      (010,001)      (001,110)   
  -25.0000  1.6072767E-04  1.7892183E-04  1.6581135E-04
  -24.0000  1.6688844E-04  1.8592448E-04  1.7215211E-04
  -23.0000  1.7348182E-04  1.9344577E-04  1.7894112E-04
  -22.0000  1.8055295E-04  2.0154377E-04  1.8622563E-04
  -21.0000  1.8815330E-04  2.1028543E-04  1.9405963E-04
  -20.0000  1.9634187E-04  2.1974826E-04  2.0250508E-04
  -19.0000  2.0518654E-04  2.3002251E-04  2.1163340E-04
  -18.0000  2.1476584E-04  2.4121390E-04  2.2152734E-04
  -17.0000  2.2517104E-04  2.5344697E-04  2.3228331E-04
  -16.0000  2.3650890E-04  2.6686945E-04  2.4401428E-04
  -15.0000  2.4890499E-04  2.8165787E-04  2.5685341E-04
  -14.0000  2.6250807E-04  2.9802477E-04  2.7095884E-04
  -13.0000  2.7749558E-04  3.1622832E-04  2.8651968E-04
  -12.0000  2.9408092E-04  3.3658504E-04  3.0376404E-04
  -11.0000  3.1252303E-04  3.5948705E-04  3.2296946E-04
  -10.0000  3.3313909E-04  3.8542569E-04  3.4447718E-04
  -9.00000  3.5632198E-04  4.1502463E-04  3.6871137E-04
  -8.00000  3.8256428E-04  4.4908683E-04  3.9620611E-04
  -7.00000  4.1249220E-04  4.8866304E-04  4.2764363E-04
  -6.00000  4.4691459E-04  5.3515387E-04  4.6391005E-04
  -5.00000  4.8689567E-04  5.9046639E-04  5.0617893E-04
  -4.00000  5.3386637E-04  6.5726262E-04  5.5604083E-04
  -3.00000  5.8980139E-04  7.3936939E-04  6.1571281E-04
  -2.00000  6.5751428E-04  8.4248752E-04  6.8839502E-04
  -1.00000  7.4117870E-04  9.7549315E-04  7.7891905E-04
   0.00000  8.4732256E-04  1.1530129E-03  8.9503362E-04
   1.00000  9.8693178E-04  1.4010590E-03  1.0502761E-03
   2.00000  1.1806188E-03  1.7712478E-03  1.2715741E-03
   3.00000  1.4745926E-03  2.3853347E-03  1.6252305E-03
   4.00000  2.0120377E-03  3.6331503E-03  2.3483580E-03
   5.00000  3.3977465E-03  7.1998249E-03  4.5112021E-03
   5.20000  3.8174027E-03  8.3448632E-03  5.0957216E-03
   5.40000  4.2345822E-03  9.5217495E-03  5.5744741E-03
   5.60000  4.6426150E-03  1.0707384E-02  5.9388173E-03
   5.80000  5.0533034E-03  1.1918476E-02  6.2285970E-03
   6.00000  5.4832170E-03  1.3185243E-02  6.4907886E-03
   6.20000  5.9477282E-03  1.4542842E-02  6.7635608E-03
   6.40000  6.4602479E-03  1.6030476E-02  7.0747037E-03
   6.60000  7.0327386E-03  1.7689065E-02  7.4433740E-03
   6.80000  7.6758982E-03  1.9556541E-02  7.8822039E-03
   7.00000  8.3984537E-03  2.1661707E-02  8.3994236E-03
   7.20000  9.2053258E-03  2.4016906E-02  9.0008604E-03
   7.40000  1.0094833E-02  2.6610318E-02  9.6916972E-03
   7.60000  1.1056103E-02  2.9401417E-02  1.0477925E-02
   7.80000  1.2069333E-02  3.2326332E-02  1.1367299E-02
   8.00000  1.3111807E-02  3.5317758E-02  1.2369374E-02
   8.20000  1.4168756E-02  3.8330510E-02  1.3494414E-02
   8.40000  1.5242007E-02  4.1349472E-02  1.4751690E-02
   8.60000  1.6349036E-02  4.4366083E-02  1.6148179E-02
   8.80000  1.7513510E-02  4.7339460E-02  1.7687960E-02
   9.00000  1.8755260E-02  5.0172168E-02  1.9371702E-02
   9.20000  2.0085012E-02  5.2714306E-02  2.1195586E-02
   9.40000  2.1502845E-02  5.4788778E-02  2.3149722E-02
   9.60000  2.2998495E-02  5.6226775E-02  2.5216362E-02
   9.80000  2.4553407E-02  5.6905306E-02  2.7368224E-02
   10.0000  2.6143335E-02  5.6775925E-02  2.9567526E-02
   10.2500  2.8137119E-02  5.5540885E-02  3.2309684E-02
   10.5000  3.0083446E-02  5.3331494E-02  3.4942627E-02
   10.7500  3.1924804E-02  5.0467845E-02  3.7356414E-02
   11.0000  3.3607238E-02  4.7273980E-02  3.9453740E-02
   11.2500  3.5083348E-02  4.4014421E-02  4.1161162E-02
   11.5000  3.6316758E-02  4.0869692E-02  4.2437831E-02
   11.7500  3.7286549E-02  3.7943104E-02  4.3280489E-02
   12.0000  3.7990657E-02  3.5281797E-02  4.3722070E-02
   12.2500  3.8447369E-02  3.2898082E-02  4.3822055E-02
   12.5000  3.8693523E-02  3.0784909E-02  4.3653323E-02
   12.7500  3.8778844E-02  2.8925180E-02  4.3292397E-02
   13.0000  3.8757995E-02  2.7297128E-02  4.2812736E-02
   13.2500  3.8682651E-02  2.5877821E-02  4.2279488E-02
   13.5000  3.8595865E-02  2.4645471E-02  4.1746153E-02
   13.7500  3.8529728E-02  2.3580492E-02  4.1253116E-02
   14.0000  3.8505217E-02  2.2665759E-02  4.0827424E-02
   14.2500  3.8532968E-02  2.1886513E-02  4.0483581E-02
   14.5000  3.8614485E-02  2.1230133E-02  4.0225095E-02
   14.7500  3.8743535E-02  2.0685802E-02  4.0046403E-02
   15.0000  3.8907618E-02  2.0244165E-02  3.9934910E-02
   15.2500  3.9089513E-02  1.9897016E-02  3.9873032E-02
   15.5000  3.9268963E-02  1.9637033E-02  3.9840239E-02
   15.7500  3.9424554E-02  1.9457570E-02  3.9815064E-02
   16.0000  3.9535788E-02  1.9352517E-02  3.9777012E-02
   16.2500  3.9585226E-02  1.9316202E-02  3.9708253E-02
   16.5000  3.9560479E-02  1.9343336E-02  3.9594929E-02
   16.7500  3.9455714E-02  1.9428981E-02  3.9427968E-02
   17.0000  3.9272392E-02  1.9568539E-02  3.9203315E-02
   17.2500  3.9019078E-02  1.9757745E-02  3.8921609E-02
   17.5000  3.8710328E-02  1.9992670E-02  3.8587427E-02
   17.7500  3.8364912E-02  2.0269717E-02  3.8208240E-02
   18.0000  3.8003681E-02  2.0585615E-02  3.7793287E-02
   18.2500  3.7647489E-02  2.0937418E-02  3.7352517E-02
   18.5000  3.7315429E-02  2.1322490E-02  3.6895716E-02
   18.7500  3.7023561E-02  2.1738502E-02  3.6431862E-02
   19.0000  3.6784168E-02  2.2183430E-02  3.5968692E-02
   19.2500  3.6605460E-02  2.2655571E-02  3.5512455E-02
   19.5000  3.6491621E-02  2.3153548E-02  3.5067798E-02
   19.7500  3.6442997E-02  2.3676238E-02  3.4637790E-02
   20.0000  3.6456297E-02  2.4222456E-02  3.4224158E-02
   21.0000  3.6954271E-02  2.6592688E-02  3.2745305E-02
   22.0000  3.7557636E-02  2.9086061E-02  3.1523399E-02
   23.0000  3.7429432E-02  3.1413411E-02  3.0467448E-02
   24.0000  3.6165563E-02  3.3225814E-02  2.9511966E-02
   25.0000  3.4047991E-02  3.4238647E-02  2.8651671E-02
   26.0000  3.1666171E-02  3.4395711E-02  2.7896498E-02
   27.0000  2.9474998E-02  3.3844792E-02  2.7247201E-02
   28.0000  2.7666695E-02  3.2830765E-02  2.6694367E-02
   29.0000  2.6252614E-02  3.1598346E-02  2.6222994E-02
   30.0000  2.5166664E-02  3.0332742E-02  2.5811673E-02
   31.0000  2.4323381E-02  2.9144646E-02  2.5430301E-02
   32.0000  2.3641049E-02  2.8082492E-02  2.5043854E-02
   33.0000  2.3049558E-02  2.7153502E-02  2.4619939E-02
   34.0000  2.2493867E-02  2.6342379E-02  2.4135589E-02
   35.0000  2.1936856E-02  2.5623536E-02  2.3581341E-02
   36.0000  2.1362099E-02  2.4968142E-02  2.2963820E-02
   37.0000  2.0774850E-02  2.4350339E-02  2.2307409E-02
   38.0000  2.0200136E-02  2.3758558E-02  2.1654286E-02
   39.0000  1.9678601E-02  2.3210836E-02  2.1061389E-02
   40.0000  1.9257804E-02  2.2757766E-02  2.0588501E-02
