    Energy   (100,001)      (010,001)      (001,110)   
  -25.0000  1.7436854E-04  1.9064575E-04  1.8725101E-04
  -24.0000  1.8068566E-04  1.9764980E-04  1.9388952E-04
  -23.0000  1.8743496E-04  2.0514888E-04  2.0097988E-04
  -22.0000  1.9466122E-04  2.1319641E-04  2.0856901E-04
  -21.0000  2.0241560E-04  2.2185368E-04  2.1671047E-04
  -20.0000  2.1075673E-04  2.3119138E-04  2.2546574E-04
  -19.0000  2.1975223E-04  2.4129141E-04  2.3490567E-04
  -18.0000  2.2948041E-04  2.5224924E-04  2.4511241E-04
  -17.0000  2.4003257E-04  2.6417676E-04  2.5618165E-04
  -16.0000  2.5151569E-04  2.7720597E-04  2.6822563E-04
  -15.0000  2.6405607E-04  2.9149366E-04  2.8137681E-04
  -14.0000  2.7780389E-04  3.0722746E-04  2.9579263E-04
  -13.0000  2.9293912E-04  3.2463373E-04  3.1166178E-04
  -12.0000  3.0967940E-04  3.4398803E-04  3.2921225E-04
  -11.0000  3.2829052E-04  3.6562908E-04  3.4872230E-04
  -10.0000  3.4910066E-04  3.8997785E-04  3.7053509E-04
  -9.00000  3.7252007E-04  4.1756383E-04  3.9507892E-04
  -8.00000  3.9906887E-04  4.4906212E-04  4.2289573E-04
  -7.00000  4.2941714E-04  4.8534678E-04  4.5468179E-04
  -6.00000  4.6444426E-04  5.2756939E-04  4.9134785E-04
  -5.00000  5.0532971E-04  5.7727808E-04  5.3411014E-04
  -4.00000  5.5369658E-04  6.3660380E-04  5.8463351E-04
  -3.00000  6.1184893E-04  7.0856334E-04  6.4526580E-04
  -2.00000  6.8318468E-04  7.9757616E-04  7.1944229E-04
  -1.00000  7.7296247E-04  9.1039998E-04  8.1243031E-04
   0.00000  8.8984826E-04  1.0579595E-03  9.3282021E-04
   1.00000  1.0493970E-03  1.2593140E-03  1.0958677E-03
   2.00000  1.2831874E-03  1.5516421E-03  1.3322793E-03
   3.00000  1.6689137E-03  2.0217677E-03  1.7175239E-03
   4.00000  2.4719989E-03  2.9491862E-03  2.5136962E-03
   5.00000  4.8982548E-03  5.5584552E-03  4.9083330E-03
   5.20000  5.6681005E-03  6.3827366E-03  5.6213378E-03
   5.40000  6.4303818E-03  7.2110408E-03  6.2777614E-03
   5.60000  7.1648540E-03  8.0176172E-03  6.8591744E-03
   5.80000  7.8877533E-03  8.8079981E-03  7.3935669E-03
   6.00000  8.6239109E-03  9.5974731E-03  7.9197969E-03
   6.20000  9.3912217E-03  1.0402084E-02  8.4703497E-03
   6.40000  1.0196259E-02  1.1238001E-02  9.0683803E-03
   6.60000  1.1035483E-02  1.2122713E-02  9.7297551E-03
   6.80000  1.1898767E-02  1.3075632E-02  1.0465671E-02
   7.00000  1.2773174E-02  1.4117922E-02  1.1284168E-02
   7.20000  1.3646154E-02  1.5272041E-02  1.2189915E-02
   7.40000  1.4508194E-02  1.6561324E-02  1.3182269E-02
   7.60000  1.5354741E-02  1.8009541E-02  1.4252426E-02
   7.80000  1.6186596E-02  1.9640165E-02  1.5381336E-02
   8.00000  1.7007674E-02  2.1475221E-02  1.6540412E-02
   8.20000  1.7820147E-02  2.3533824E-02  1.7696110E-02
   8.40000  1.8619434E-02  2.5830509E-02  1.8817467E-02
   8.60000  1.9392069E-02  2.8373402E-02  1.9883605E-02
   8.80000  2.0117691E-02  3.1162074E-02  2.0887915E-02
   9.00000  2.0774652E-02  3.4184600E-02  2.1836766E-02
   9.20000  2.1347442E-02  3.7413211E-02  2.2743428E-02
   9.40000  2.1832970E-02  4.0798214E-02  2.3621274E-02
   9.60000  2.2242744E-02  4.4261052E-02  2.4479901E-02
   9.80000  2.2599895E-02  4.7689065E-02  2.5324718E-02
   10.0000  2.2932486E-02  5.0935432E-02  2.6158563E-02
   10.2500  2.3351851E-02  5.4472495E-02  2.7188625E-02
   10.5000  2.3803245E-02  5.7100960E-02  2.8209376E-02
   10.7500  2.4292316E-02  5.8526981E-02  2.9225990E-02
   11.0000  2.4804136E-02  5.8602727E-02  3.0242189E-02
   11.2500  2.5314163E-02  5.7376285E-02  3.1255116E-02
   11.5000  2.5801276E-02  5.5076471E-02  3.2250438E-02
   11.7500  2.6256122E-02  5.2038917E-02  3.3203395E-02
   12.0000  2.6675162E-02  4.8613786E-02  3.4084205E-02
   12.2500  2.7050106E-02  4.5097402E-02  3.4863776E-02
   12.5000  2.7370011E-02  4.1702361E-02  3.5519241E-02
   12.7500  2.7629913E-02  3.8558191E-02  3.6038475E-02
   13.0000  2.7835196E-02  3.5728140E-02  3.6421516E-02
   13.2500  2.8001089E-02  3.3229623E-02  3.6679015E-02
   13.5000  2.8149602E-02  3.1051931E-02  3.6829557E-02
   13.7500  2.8305167E-02  2.9169870E-02  3.6897507E-02
   14.0000  2.8490607E-02  2.7553063E-02  3.6911012E-02
   14.2500  2.8724885E-02  2.6170943E-02  3.6899091E-02
   14.5000  2.9022456E-02  2.4994876E-02  3.6888457E-02
   14.7500  2.9393319E-02  2.3998993E-02  3.6901138E-02
   15.0000  2.9843313E-02  2.3160470E-02  3.6953036E-02
   15.2500  3.0374481E-02  2.2459475E-02  3.7053185E-02
   15.5000  3.0985416E-02  2.1878941E-02  3.7203471E-02
   15.7500  3.1671518E-02  2.1404248E-02  3.7398761E-02
   16.0000  3.2425203E-02  2.1022896E-02  3.7627463E-02
   16.2500  3.3236060E-02  2.0724209E-02  3.7872578E-02
   16.5000  3.4091074E-02  2.0499083E-02  3.8113292E-02
   16.7500  3.4974942E-02  2.0339794E-02  3.8327055E-02
   17.0000  3.5870582E-02  2.0239832E-02  3.8491973E-02
   17.2500  3.6759844E-02  2.0193770E-02  3.8589193E-02
   17.5000  3.7624412E-02  2.0197134E-02  3.8604900E-02
   17.7500  3.8446842E-02  2.0246271E-02  3.8531585E-02
   18.0000  3.9211616E-02  2.0338212E-02  3.8368386E-02
   18.2500  3.9906074E-02  2.0470539E-02  3.8120544E-02
   18.5000  4.0521093E-02  2.0641251E-02  3.7798150E-02
   18.7500  4.1051404E-02  2.0848657E-02  3.7414521E-02
   19.0000  4.1495510E-02  2.1091292E-02  3.6984491E-02
   19.2500  4.1855239E-02  2.1367871E-02  3.6522848E-02
   19.5000  4.2135019E-02  2.1677260E-02  3.6043090E-02
   19.7500  4.2341020E-02  2.2018414E-02  3.5556602E-02
   20.0000  4.2480324E-02  2.2390166E-02  3.5072449E-02
   21.0000  4.2508489E-02  2.4141103E-02  3.3283841E-02
   22.0000  4.1904134E-02  2.6188657E-02  3.1865678E-02
   23.0000  4.0746323E-02  2.8353183E-02  3.0785525E-02
   24.0000  3.9024451E-02  3.0431650E-02  2.9941248E-02
   25.0000  3.6814366E-02  3.2222305E-02  2.9258594E-02
   26.0000  3.4336650E-02  3.3567871E-02  2.8705617E-02
   27.0000  3.1879909E-02  3.4387496E-02  2.8277709E-02
   28.0000  2.9678432E-02  3.4687952E-02  2.7970122E-02
   29.0000  2.7861942E-02  3.4564620E-02  2.7765524E-02
   30.0000  2.6470292E-02  3.4171589E-02  2.7646835E-02
   31.0000  2.5466059E-02  3.3643959E-02  2.7599291E-02
   32.0000  2.4776874E-02  3.3063223E-02  2.7612022E-02
   33.0000  2.4325758E-02  3.2460343E-02  2.7668182E-02
   34.0000  2.4042262E-02  3.1832297E-02  2.7739050E-02
   35.0000  2.3867954E-02  3.1163335E-02  2.7790744E-02
   36.0000  2.3758124E-02  3.0442431E-02  2.7793983E-02
   37.0000  2.3680664E-02  2.9674127E-02  2.7731283E-02
   38.0000  2.3613763E-02  2.8885842E-02  2.7602442E-02
   39.0000  2.3545731E-02  2.8136120E-02  2.7430412E-02
   40.0000  2.3478583E-02  2.7514680E-02  2.7262749E-02
