    Energy   (100,001)      (010,001)      (001,110)   
  -25.0000  1.6503248E-04  1.7837057E-04  1.7662886E-04
  -24.0000  1.7123408E-04  1.8531294E-04  1.8313320E-04
  -23.0000  1.7786774E-04  1.9276454E-04  1.9008883E-04
  -22.0000  1.8497852E-04  2.0078173E-04  1.9754292E-04
  -21.0000  1.9261784E-04  2.0942931E-04  2.0554937E-04
  -20.0000  2.0084466E-04  2.1878221E-04  2.1416998E-04
  -19.0000  2.0972691E-04  2.2892750E-04  2.2347599E-04
  -18.0000  2.1934321E-04  2.3996691E-04  2.3354995E-04
  -17.0000  2.2978509E-04  2.5202000E-04  2.4448798E-04
  -16.0000  2.4115972E-04  2.6522824E-04  2.5640270E-04
  -15.0000  2.5359341E-04  2.7976015E-04  2.6942694E-04
  -14.0000  2.6723603E-04  2.9581805E-04  2.8371838E-04
  -13.0000  2.8226681E-04  3.1364678E-04  2.9946569E-04
  -12.0000  2.9890185E-04  3.3354542E-04  3.1689650E-04
  -11.0000  3.1740423E-04  3.5588293E-04  3.3628796E-04
  -10.0000  3.3809742E-04  3.8111950E-04  3.5798099E-04
  -9.00000  3.6138394E-04  4.0983623E-04  3.8239979E-04
  -8.00000  3.8777122E-04  4.4277704E-04  4.1007904E-04
  -7.00000  4.1790862E-04  4.8090918E-04  4.4170255E-04
  -6.00000  4.5264174E-04  5.2551266E-04  4.7815979E-04
  -5.00000  4.9309426E-04  5.7831627E-04  5.2063059E-04
  -4.00000  5.4079595E-04  6.4171097E-04  5.7071660E-04
  -3.00000  5.9789126E-04  7.1909811E-04  6.3065364E-04
  -2.00000  6.6749777E-04  8.1548445E-04  7.0367177E-04
  -1.00000  7.5436345E-04  9.3856025E-04  7.9464536E-04
   0.00000  8.6617983E-04  1.1008050E-03  9.1136455E-04
   1.00000  1.0165247E-03  1.3240404E-03  1.0673084E-03
   2.00000  1.2326149E-03  1.6508178E-03  1.2887041E-03
   3.00000  1.5812914E-03  2.1800195E-03  1.6372174E-03
   4.00000  2.2953407E-03  3.2265795E-03  2.3153385E-03
   5.00000  4.4488730E-03  6.1516435E-03  4.2186499E-03
   5.20000  5.1084355E-03  7.0700079E-03  4.8054918E-03
   5.40000  5.7278650E-03  7.9918760E-03  5.3809271E-03
   5.60000  6.2770554E-03  8.8929336E-03  5.9293047E-03
   5.80000  6.7616638E-03  9.7862799E-03  6.4622331E-03
   6.00000  7.1999205E-03  1.0696597E-02  6.9986880E-03
   6.20000  7.6114187E-03  1.1648143E-02  7.5545462E-03
   6.40000  8.0143656E-03  1.2662872E-02  8.1387607E-03
   6.60000  8.4253934E-03  1.3762044E-02  8.7526710E-03
   6.80000  8.8597755E-03  1.4968694E-02  9.3926468E-03
   7.00000  9.3315615E-03  1.6309970E-02  1.0056502E-02
   7.20000  9.8536305E-03  1.7818654E-02  1.0751209E-02
   7.40000  1.0437696E-02  1.9533285E-02  1.1496823E-02
   7.60000  1.1094239E-02  2.1496907E-02  1.2323356E-02
   7.80000  1.1832410E-02  2.3755000E-02  1.3262447E-02
   8.00000  1.2660005E-02  2.6352804E-02  1.4338524E-02
   8.20000  1.3583625E-02  2.9331242E-02  1.5562673E-02
   8.40000  1.4609173E-02  3.2720163E-02  1.6930016E-02
   8.60000  1.5742649E-02  3.6527541E-02  1.8420489E-02
   8.80000  1.6990767E-02  4.0723808E-02  2.0002929E-02
   9.00000  1.8360237E-02  4.5221913E-02  2.1641544E-02
   9.20000  1.9854525E-02  4.9856791E-02  2.3302184E-02
   9.40000  2.1468049E-02  5.4373165E-02  2.4955311E-02
   9.60000  2.3179807E-02  5.8435939E-02  2.6574602E-02
   9.80000  2.4949584E-02  6.1676544E-02  2.8133381E-02
   10.0000  2.6718981E-02  6.3773573E-02  2.9602610E-02
   10.2500  2.8822515E-02  6.4518468E-02  3.1268862E-02
   10.5000  3.0678892E-02  6.3234136E-02  3.2706253E-02
   10.7500  3.2187169E-02  6.0342962E-02  3.3902050E-02
   11.0000  3.3302645E-02  5.6447208E-02  3.4874514E-02
   11.2500  3.4037231E-02  5.2118429E-02  3.5657700E-02
   11.5000  3.4446853E-02  4.7782985E-02  3.6286622E-02
   11.7500  3.4608674E-02  4.3704407E-02  3.6789991E-02
   12.0000  3.4598820E-02  4.0016289E-02  3.7188089E-02
   12.2500  3.4483125E-02  3.6765668E-02  3.7494346E-02
   12.5000  3.4316561E-02  3.3948724E-02  3.7718911E-02
   12.7500  3.4143906E-02  3.1535269E-02  3.7872052E-02
   13.0000  3.4000330E-02  2.9483822E-02  3.7966536E-02
   13.2500  3.3912129E-02  2.7750185E-02  3.8018338E-02
   13.5000  3.3897537E-02  2.6291964E-02  3.8045599E-02
   13.7500  3.3967517E-02  2.5070702E-02  3.8066644E-02
   14.0000  3.4126500E-02  2.4052665E-02  3.8097940E-02
   14.2500  3.4373062E-02  2.3208908E-02  3.8152487E-02
   14.5000  3.4700527E-02  2.2514962E-02  3.8238803E-02
   14.7500  3.5097539E-02  2.1950374E-02  3.8360479E-02
   15.0000  3.5548634E-02  2.1498178E-02  3.8516206E-02
   15.2500  3.6034898E-02  2.1144368E-02  3.8700177E-02
   15.5000  3.6534822E-02  2.0877401E-02  3.8902808E-02
   15.7500  3.7025444E-02  2.0687751E-02  3.9111724E-02
   16.0000  3.7483835E-02  2.0567525E-02  3.9312959E-02
   16.2500  3.7888842E-02  2.0510136E-02  3.9492244E-02
   16.5000  3.8222904E-02  2.0510033E-02  3.9636260E-02
   16.7500  3.8473671E-02  2.0562478E-02  3.9733699E-02
   17.0000  3.8635113E-02  2.0663359E-02  3.9776023E-02
   17.2500  3.8707888E-02  2.0809045E-02  3.9757856E-02
   17.5000  3.8698883E-02  2.0996251E-02  3.9677024E-02
   17.7500  3.8620013E-02  2.1221931E-02  3.9534321E-02
   18.0000  3.8486545E-02  2.1483181E-02  3.9333090E-02
   18.2500  3.8315258E-02  2.1777162E-02  3.9078708E-02
   18.5000  3.8122739E-02  2.2101037E-02  3.8778040E-02
   18.7500  3.7924047E-02  2.2451943E-02  3.8438883E-02
   19.0000  3.7731810E-02  2.2826998E-02  3.8069421E-02
   19.2500  3.7555761E-02  2.3223359E-02  3.7677688E-02
   19.5000  3.7402625E-02  2.3638318E-02  3.7271076E-02
   19.7500  3.7276236E-02  2.4069345E-02  3.6855962E-02
   20.0000  3.7177820E-02  2.4513955E-02  3.6437629E-02
   21.0000  3.7021536E-02  2.6364384E-02  3.4814100E-02
   22.0000  3.7024833E-02  2.8180961E-02  3.3368636E-02
   23.0000  3.6817394E-02  2.9824224E-02  3.2076278E-02
   24.0000  3.6095526E-02  3.1195212E-02  3.0854870E-02
   25.0000  3.4755019E-02  3.2215440E-02  2.9662698E-02
   26.0000  3.2922835E-02  3.2825973E-02  2.8523085E-02
   27.0000  3.0877898E-02  3.3006017E-02  2.7499165E-02
   28.0000  2.8921162E-02  3.2798019E-02  2.6655151E-02
   29.0000  2.7262657E-02  3.2300535E-02  2.6022782E-02
   30.0000  2.5965051E-02  3.1616550E-02  2.5583087E-02
   31.0000  2.4991318E-02  3.0823332E-02  2.5286511E-02
   32.0000  2.4264134E-02  2.9967617E-02  2.5078422E-02
   33.0000  2.3698875E-02  2.9072335E-02  2.4912123E-02
   34.0000  2.3221177E-02  2.8147914E-02  2.4752709E-02
   35.0000  2.2776215E-02  2.7202586E-02  2.4578076E-02
   36.0000  2.2333337E-02  2.6249043E-02  2.4380198E-02
   37.0000  2.1886592E-02  2.5308272E-02  2.4164416E-02
   38.0000  2.1450961E-02  2.4413068E-02  2.3944257E-02
   39.0000  2.1055922E-02  2.3613378E-02  2.3736449E-02
   40.0000  2.0736626E-02  2.2974983E-02  2.3562374E-02
