    Energy   (100,001)      (010,001)      (001,110)   
  -25.0000  1.6842445E-04  1.8109536E-04  1.7820276E-04
  -24.0000  1.7474479E-04  1.8809186E-04  1.8504704E-04
  -23.0000  1.8150463E-04  1.9560007E-04  1.9238527E-04
  -22.0000  1.8874959E-04  2.0367663E-04  2.0027115E-04
  -21.0000  1.9653167E-04  2.1238670E-04  2.0876628E-04
  -20.0000  2.0491044E-04  2.2180562E-04  2.1794173E-04
  -19.0000  2.1395441E-04  2.3202100E-04  2.2787987E-04
  -18.0000  2.2374279E-04  2.4313522E-04  2.3867668E-04
  -17.0000  2.3436761E-04  2.5526869E-04  2.5044470E-04
  -16.0000  2.4593641E-04  2.6856395E-04  2.6331670E-04
  -15.0000  2.5857565E-04  2.8319090E-04  2.7745041E-04
  -14.0000  2.7243496E-04  2.9935367E-04  2.9303462E-04
  -13.0000  2.8769274E-04  3.1729950E-04  3.1029721E-04
  -12.0000  3.0456330E-04  3.3733068E-04  3.2951568E-04
  -11.0000  3.2330642E-04  3.5982050E-04  3.5103146E-04
  -10.0000  3.4423999E-04  3.8523513E-04  3.7526928E-04
  -9.00000  3.6775722E-04  4.1416400E-04  4.0276418E-04
  -8.00000  3.9435034E-04  4.4736284E-04  4.3419976E-04
  -7.00000  4.2464410E-04  4.8581590E-04  4.7046355E-04
  -6.00000  4.5944380E-04  5.3082829E-04  5.1272940E-04
  -5.00000  4.9980650E-04  5.8416652E-04  5.6258353E-04
  -4.00000  5.4714954E-04  6.4827983E-04  6.2222462E-04
  -3.00000  6.0342228E-04  7.2666235E-04  6.9479446E-04
  -2.00000  6.7139081E-04  8.2447386E-04  7.8495347E-04
  -1.00000  7.5513760E-04  9.4966784E-04  8.9994718E-04
   0.00000  8.6100706E-04  1.1152005E-03  1.0517500E-03
   1.00000  9.9958738E-04  1.3438148E-03  1.2618640E-03
   2.00000  1.1905215E-03  1.6799915E-03  1.5738062E-03
   3.00000  1.4771406E-03  2.2270911E-03  2.0937506E-03
   4.00000  1.9905430E-03  3.3116631E-03  3.1785701E-03
   5.00000  3.2793202E-03  6.3418099E-03  6.4432089E-03
   5.20000  3.6771596E-03  7.3155662E-03  7.5071794E-03
   5.40000  4.0836283E-03  8.3192616E-03  8.5930113E-03
   5.60000  4.4917715E-03  9.3293945E-03  9.6719414E-03
   5.80000  4.9090135E-03  1.0354846E-02  1.0755363E-02
   6.00000  5.3467496E-03  1.1413921E-02  1.1863983E-02
   6.20000  5.8154830E-03  1.2524609E-02  1.3010374E-02
   6.40000  6.3238143E-03  1.3703882E-02  1.4192390E-02
   6.60000  6.8785255E-03  1.4969390E-02  1.5392015E-02
   6.80000  7.4847541E-03  1.6341159E-02  1.6578869E-02
   7.00000  8.1460579E-03  1.7842817E-02  1.7718700E-02
   7.20000  8.8643492E-03  1.9502066E-02  1.8785268E-02
   7.40000  9.6397102E-03  2.1349988E-02  1.9771396E-02
   7.60000  1.0470269E-02  2.3419129E-02  2.0694378E-02
   7.80000  1.1352741E-02  2.5741004E-02  2.1593487E-02
   8.00000  1.2284422E-02  2.8343529E-02  2.2520462E-02
   8.20000  1.3266750E-02  3.1247616E-02  2.3525627E-02
   8.40000  1.4309297E-02  3.4462003E-02  2.4645099E-02
   8.60000  1.5431406E-02  3.7975557E-02  2.5894324E-02
   8.80000  1.6658986E-02  4.1746352E-02  2.7267513E-02
   9.00000  1.8017332E-02  4.5688183E-02  2.8740509E-02
   9.20000  1.9523618E-02  4.9657846E-02  3.0276074E-02
   9.40000  2.1181732E-02  5.3450990E-02  3.1830901E-02
   9.60000  2.2979612E-02  5.6816430E-02  3.3362886E-02
   9.80000  2.4888207E-02  5.9492575E-02  3.4836744E-02
   10.0000  2.6861641E-02  6.1258146E-02  3.6226275E-02
   10.2500  2.9325738E-02  6.1991436E-02  3.7816209E-02
   10.5000  3.1656318E-02  6.1088223E-02  3.9213685E-02
   10.7500  3.3717644E-02  5.8787217E-02  4.0383192E-02
   11.0000  3.5408036E-02  5.5482246E-02  4.1282645E-02
   11.2500  3.6681863E-02  5.1605338E-02  4.1872050E-02
   11.5000  3.7555265E-02  4.7537253E-02  4.2127310E-02
   11.7500  3.8094390E-02  4.3562970E-02  4.2050557E-02
   12.0000  3.8390214E-02  3.9865928E-02  4.1672458E-02
   12.2500  3.8532775E-02  3.6543126E-02  4.1047462E-02
   12.5000  3.8595391E-02  3.3626895E-02  4.0245615E-02
   12.7500  3.8630007E-02  3.1107278E-02  3.9343037E-02
   13.0000  3.8669229E-02  2.8951816E-02  3.8411169E-02
   13.2500  3.8731020E-02  2.7119802E-02  3.7507983E-02
   13.5000  3.8823870E-02  2.5569958E-02  3.6675206E-02
   13.7500  3.8950886E-02  2.4263669E-02  3.5939728E-02
   14.0000  3.9112274E-02  2.3166357E-02  3.5316179E-02
   14.2500  3.9306650E-02  2.2248064E-02  3.4810086E-02
   14.5000  3.9531585E-02  2.1483521E-02  3.4420833E-02
   14.7500  3.9783539E-02  2.0851787E-02  3.4143272E-02
   15.0000  4.0057508E-02  2.0335654E-02  3.3968308E-02
   15.2500  4.0346758E-02  1.9921025E-02  3.3883330E-02
   15.5000  4.0642756E-02  1.9596351E-02  3.3872808E-02
   15.7500  4.0935349E-02  1.9352144E-02  3.3919044E-02
   16.0000  4.1213147E-02  1.9180571E-02  3.4003059E-02
   16.2500  4.1464129E-02  1.9075116E-02  3.4105603E-02
   16.5000  4.1676388E-02  1.9030314E-02  3.4208242E-02
   16.7500  4.1838977E-02  1.9041529E-02  3.4294483E-02
   17.0000  4.1942753E-02  1.9104781E-02  3.4350789E-02
   17.2500  4.1981120E-02  1.9216604E-02  3.4367370E-02
   17.5000  4.1950567E-02  1.9373934E-02  3.4338631E-02
   17.7500  4.1850930E-02  1.9574014E-02  3.4263197E-02
   18.0000  4.1685305E-02  1.9814320E-02  3.4143517E-02
   18.2500  4.1459636E-02  2.0092511E-02  3.3985140E-02
   18.5000  4.1182029E-02  2.0406386E-02  3.3795762E-02
   18.7500  4.0861892E-02  2.0753874E-02  3.3584207E-02
   19.0000  4.0509023E-02  2.1133039E-02  3.3359462E-02
   19.2500  4.0132764E-02  2.1542123E-02  3.3129848E-02
   19.5000  3.9741303E-02  2.1979591E-02  3.2902403E-02
   19.7500  3.9341233E-02  2.2444128E-02  3.2682500E-02
   20.0000  3.8937495E-02  2.2934426E-02  3.2473752E-02
   21.0000  3.7346780E-02  2.5109192E-02  3.1775675E-02
   22.0000  3.5838088E-02  2.7498466E-02  3.1253976E-02
   23.0000  3.4363922E-02  2.9892891E-02  3.0765578E-02
   24.0000  3.2856504E-02  3.2005059E-02  3.0192195E-02
   25.0000  3.1235904E-02  3.3596246E-02  2.9500711E-02
   26.0000  2.9518869E-02  3.4532511E-02  2.8731942E-02
   27.0000  2.7865507E-02  3.4819611E-02  2.7965292E-02
   28.0000  2.6465140E-02  3.4582650E-02  2.7282491E-02
   29.0000  2.5408383E-02  3.3993966E-02  2.6741024E-02
   30.0000  2.4669015E-02  3.3209838E-02  2.6358973E-02
   31.0000  2.4159018E-02  3.2338109E-02  2.6112349E-02
   32.0000  2.3781654E-02  3.1433086E-02  2.5946399E-02
   33.0000  2.3457939E-02  3.0507980E-02  2.5794994E-02
   34.0000  2.3134800E-02  2.9555505E-02  2.5598694E-02
   35.0000  2.2785976E-02  2.8567730E-02  2.5315920E-02
   36.0000  2.2410197E-02  2.7549227E-02  2.4927788E-02
   37.0000  2.2026669E-02  2.6522281E-02  2.4440344E-02
   38.0000  2.1666062E-02  2.5527846E-02  2.3887003E-02
   39.0000  2.1358538E-02  2.4628185E-02  2.3331558E-02
   40.0000  2.1123310E-02  2.3904787E-02  2.2860696E-02
