    Energy   (100,001)      (010,001)      (001,110)   
  -25.0000  1.6579060E-04  1.8139585E-04  1.6970951E-04
  -24.0000  1.7200771E-04  1.8823840E-04  1.7608082E-04
  -23.0000  1.7865668E-04  1.9557166E-04  1.8289617E-04
  -22.0000  1.8578240E-04  2.0344895E-04  1.9020178E-04
  -21.0000  1.9343605E-04  2.1193156E-04  1.9805035E-04
  -20.0000  2.0167630E-04  2.2109015E-04  2.0650230E-04
  -19.0000  2.1057069E-04  2.3100666E-04  2.1562712E-04
  -18.0000  2.2019735E-04  2.4177666E-04  2.2550518E-04
  -17.0000  2.3064717E-04  2.5351219E-04  2.3622994E-04
  -16.0000  2.4202650E-04  2.6634550E-04  2.4791060E-04
  -15.0000  2.5446054E-04  2.8043376E-04  2.6067566E-04
  -14.0000  2.6809774E-04  2.9596512E-04  2.7467725E-04
  -13.0000  2.8311543E-04  3.1316668E-04  2.9009681E-04
  -12.0000  2.9972717E-04  3.3231498E-04  3.0715243E-04
  -11.0000  3.1819259E-04  3.5375012E-04  3.2610863E-04
  -10.0000  3.3883045E-04  3.7789486E-04  3.4728923E-04
  -9.00000  3.6203670E-04  4.0528112E-04  3.7109506E-04
  -8.00000  3.8830946E-04  4.3658721E-04  3.9802820E-04
  -7.00000  4.1828470E-04  4.7269145E-04  4.2872631E-04
  -6.00000  4.5278819E-04  5.1475096E-04  4.6401198E-04
  -5.00000  4.9291349E-04  5.6432100E-04  5.0496591E-04
  -4.00000  5.4014299E-04  6.2354136E-04  5.5303857E-04
  -3.00000  5.9654360E-04  6.9543890E-04  6.1022747E-04
  -2.00000  6.6509911E-04  7.8444194E-04  6.7937168E-04
  -1.00000  7.5031139E-04  8.9730765E-04  7.6467098E-04
   0.00000  8.5937931E-04  1.0449246E-03  8.7267378E-04
   1.00000  1.0047772E-03  1.2461948E-03  1.0143643E-03
   2.00000  1.2108333E-03  1.5377147E-03  1.2102849E-03
   3.00000  1.5348824E-03  2.0040250E-03  1.5063429E-03
   4.00000  2.1651986E-03  2.9136628E-03  2.0441972E-03
   5.00000  3.9367045E-03  5.4235976E-03  3.4287321E-03
   5.20000  4.4887444E-03  6.2031035E-03  3.8584814E-03
   5.40000  5.0354462E-03  6.9796795E-03  4.2933726E-03
   5.60000  5.5614350E-03  7.7341324E-03  4.7217109E-03
   5.80000  6.0757948E-03  8.4815598E-03  5.1483453E-03
   6.00000  6.5949121E-03  9.2477416E-03  5.5842407E-03
   6.20000  7.1340753E-03  1.0057262E-02  6.0410760E-03
   6.40000  7.7052232E-03  1.0930544E-02  6.5293696E-03
   6.60000  8.3164358E-03  1.1884438E-02  7.0576957E-03
   6.80000  8.9716893E-03  1.2934332E-02  7.6325441E-03
   7.00000  9.6708444E-03  1.4096707E-02  8.2589036E-03
   7.20000  1.0410176E-02  1.5391037E-02  8.9413035E-03
   7.40000  1.1183585E-02  1.6840167E-02  9.6847769E-03
   7.60000  1.1984311E-02  1.8469234E-02  1.0495279E-02
   7.80000  1.2806720E-02  2.0303756E-02  1.1379432E-02
   8.00000  1.3647813E-02  2.2367549E-02  1.2343815E-02
   8.20000  1.4508211E-02  2.4680779E-02  1.3394051E-02
   8.40000  1.5392456E-02  2.7258055E-02  1.4533836E-02
   8.60000  1.6308597E-02  3.0105882E-02  1.5764012E-02
   8.80000  1.7267117E-02  3.3218552E-02  1.7081936E-02
   9.00000  1.8279341E-02  3.6572062E-02  1.8481376E-02
   9.20000  1.9355529E-02  4.0116257E-02  1.9952698E-02
   9.40000  2.0502970E-02  4.3766267E-02  2.1482905E-02
   9.60000  2.1724512E-02  4.7396001E-02  2.3055695E-02
   9.80000  2.3017330E-02  5.0837847E-02  2.4652066E-02
   10.0000  2.4371178E-02  5.3892519E-02  2.6251766E-02
   10.2500  2.6119342E-02  5.6850122E-02  2.8226985E-02
   10.5000  2.7877690E-02  5.8536130E-02  3.0147787E-02
   10.7500  2.9578040E-02  5.8781279E-02  3.1995380E-02
   11.0000  3.1145207E-02  5.7645505E-02  3.3758192E-02
   11.2500  3.2508440E-02  5.5386378E-02  3.5426359E-02
   11.5000  3.3615964E-02  5.2365641E-02  3.6986952E-02
   11.7500  3.4445528E-02  4.8948054E-02  3.8421951E-02
   12.0000  3.5006499E-02  4.5434314E-02  3.9709742E-02
   12.2500  3.5334440E-02  4.2036596E-02  4.0828695E-02
   12.5000  3.5481850E-02  3.8883700E-02  4.1761278E-02
   12.7500  3.5507621E-02  3.6039633E-02  4.2498202E-02
   13.0000  3.5467945E-02  3.3524418E-02  4.3042152E-02
   13.2500  3.5410758E-02  3.1331310E-02  4.3408868E-02
   13.5000  3.5373304E-02  2.9438958E-02  4.3624370E-02
   13.7500  3.5381803E-02  2.7819333E-02  4.3720382E-02
   14.0000  3.5452453E-02  2.6442630E-02  4.3730054E-02
   14.2500  3.5593026E-02  2.5280057E-02  4.3684541E-02
   14.5000  3.5804484E-02  2.4305226E-02  4.3610450E-02
   14.7500  3.6082378E-02  2.3494687E-02  4.3528115E-02
   15.0000  3.6417964E-02  2.2827964E-02  4.3450671E-02
   15.2500  3.6799098E-02  2.2287316E-02  4.3383851E-02
   15.5000  3.7210990E-02  2.1857396E-02  4.3326454E-02
   15.7500  3.7636914E-02  2.1524865E-02  4.3271388E-02
   16.0000  3.8058934E-02  2.1278031E-02  4.3207198E-02
   16.2500  3.8458697E-02  2.1106545E-02  4.3119949E-02
   16.5000  3.8818335E-02  2.1001167E-02  4.2995257E-02
   16.7500  3.9121480E-02  2.0953600E-02  4.2820233E-02
   17.0000  3.9354339E-02  2.0956411E-02  4.2585085E-02
   17.2500  3.9506767E-02  2.1002985E-02  4.2284173E-02
   17.5000  3.9573161E-02  2.1087528E-02  4.1916401E-02
   17.7500  3.9553044E-02  2.1205078E-02  4.1484988E-02
   18.0000  3.9451177E-02  2.1351517E-02  4.0996736E-02
   18.2500  3.9277131E-02  2.1523561E-02  4.0461017E-02
   18.5000  3.9044347E-02  2.1718735E-02  3.9888664E-02
   18.7500  3.8768826E-02  2.1935326E-02  3.9290937E-02
   19.0000  3.8467634E-02  2.2172312E-02  3.8678652E-02
   19.2500  3.8157431E-02  2.2429302E-02  3.8061505E-02
   19.5000  3.7853196E-02  2.2706451E-02  3.7447585E-02
   19.7500  3.7567291E-02  2.3004341E-02  3.6843152E-02
   20.0000  3.7309030E-02  2.3323753E-02  3.6252796E-02
   21.0000  3.6646398E-02  2.4824223E-02  3.4095740E-02
   22.0000  3.6544999E-02  2.6671604E-02  3.2329433E-02
   23.0000  3.6622365E-02  2.8774547E-02  3.0898307E-02
   24.0000  3.6354156E-02  3.0876345E-02  2.9693812E-02
   25.0000  3.5381771E-02  3.2609600E-02  2.8629563E-02
   26.0000  3.3697773E-02  3.3723786E-02  2.7658402E-02
   27.0000  3.1607076E-02  3.4164706E-02  2.6779584E-02
   28.0000  2.9503395E-02  3.4038225E-02  2.6026770E-02
   29.0000  2.7670501E-02  3.3526095E-02  2.5438899E-02
   30.0000  2.6225554E-02  3.2803854E-02  2.5032148E-02
   31.0000  2.5159914E-02  3.1996771E-02  2.4787149E-02
   32.0000  2.4399964E-02  3.1172275E-02  2.4653618E-02
   33.0000  2.3851391E-02  3.0353440E-02  2.4564660E-02
   34.0000  2.3423737E-02  2.9538041E-02  2.4451657E-02
   35.0000  2.3042171E-02  2.8714948E-02  2.4255942E-02
   36.0000  2.2653678E-02  2.7876285E-02  2.3938940E-02
   37.0000  2.2231588E-02  2.7025942E-02  2.3492439E-02
   38.0000  2.1779865E-02  2.6186803E-02  2.2947578E-02
   39.0000  2.1335104E-02  2.5409418E-02  2.2377987E-02
   40.0000  2.0957287E-02  2.4772938E-02  2.1885990E-02
