    Energy   (100,001)      (010,001)      (001,110)   
  -25.0000  1.6426291E-04  1.8312080E-04  1.6736003E-04
  -24.0000  1.7047120E-04  1.9004809E-04  1.7372333E-04
  -23.0000  1.7711180E-04  1.9747359E-04  1.8053446E-04
  -22.0000  1.8422954E-04  2.0545161E-04  1.8784041E-04
  -21.0000  1.9187555E-04  2.1404457E-04  1.9569490E-04
  -20.0000  2.0010836E-04  2.2332448E-04  2.0415949E-04
  -19.0000  2.0899528E-04  2.3337489E-04  2.1330515E-04
  -18.0000  2.1861413E-04  2.4429324E-04  2.2321401E-04
  -17.0000  2.2905531E-04  2.5619386E-04  2.3398173E-04
  -16.0000  2.4042445E-04  2.6921177E-04  2.4572029E-04
  -15.0000  2.5284572E-04  2.8350745E-04  2.5856160E-04
  -14.0000  2.6646608E-04  2.9927315E-04  2.7266216E-04
  -13.0000  2.8146066E-04  3.1674103E-04  2.8820898E-04
  -12.0000  2.9803990E-04  3.3619395E-04  3.0542735E-04
  -11.0000  3.1645883E-04  3.5797992E-04  3.2459113E-04
  -10.0000  3.3702956E-04  3.8253180E-04  3.4603653E-04
  -9.00000  3.6013814E-04  4.1039447E-04  3.7018093E-04
  -8.00000  3.8626795E-04  4.4226314E-04  3.9754903E-04
  -7.00000  4.1603259E-04  4.7903839E-04  4.2880984E-04
  -6.00000  4.5022330E-04  5.2190720E-04  4.6483054E-04
  -5.00000  4.8987920E-04  5.7246549E-04  5.0675683E-04
  -4.00000  5.3639460E-04  6.3290940E-04  5.5613726E-04
  -3.00000  5.9168935E-04  7.0634555E-04  6.1512320E-04
  -2.00000  6.5849202E-04  7.9731778E-04  6.8680769E-04
  -1.00000  7.4083967E-04  9.1275471E-04  7.7583768E-04
   0.00000  8.4503057E-04  1.0638064E-03  8.8961934E-04
   1.00000  9.8164363E-04  1.2697838E-03  1.0409849E-03
   2.00000  1.1705259E-03  1.5679298E-03  1.2551693E-03
   3.00000  1.4563633E-03  2.0437324E-03  1.5932944E-03
   4.00000  1.9793588E-03  2.9660978E-03  2.2690062E-03
   5.00000  3.3420444E-03  5.4844373E-03  4.2406192E-03
   5.20000  3.7555398E-03  6.2682538E-03  4.7870575E-03
   5.40000  4.1624362E-03  7.0560093E-03  5.2534720E-03
   5.60000  4.5513939E-03  7.8308701E-03  5.6319515E-03
   5.80000  4.9294661E-03  8.6073576E-03  5.9576751E-03
   6.00000  5.3094155E-03  9.4083301E-03  6.2717792E-03
   6.20000  5.7037340E-03  1.0254990E-02  6.6056718E-03
   6.40000  6.1234955E-03  1.1165787E-02  6.9797969E-03
   6.60000  6.5786977E-03  1.2157847E-02  7.4062899E-03
   6.80000  7.0787821E-03  1.3248631E-02  7.8914308E-03
   7.00000  7.6329784E-03  1.4457260E-02  8.4372635E-03
   7.20000  8.2504107E-03  1.5805331E-02  9.0428320E-03
   7.40000  8.9399919E-03  1.7317012E-02  9.7055795E-03
   7.60000  9.7102094E-03  1.9018157E-02  1.0423163E-02
   7.80000  1.0568994E-02  2.0934378E-02  1.1195487E-02
   8.00000  1.1523824E-02  2.3088372E-02  1.2026392E-02
   8.20000  1.2581997E-02  2.5497098E-02  1.2924474E-02
   8.40000  1.3750812E-02  2.8169692E-02  1.3902978E-02
   8.60000  1.5037485E-02  3.1107157E-02  1.4979164E-02
   8.80000  1.6448618E-02  3.4303846E-02  1.6173401E-02
   9.00000  1.7988972E-02  3.7748324E-02  1.7507685E-02
   9.20000  1.9659307E-02  4.1419222E-02  1.9003452E-02
   9.40000  2.1453360E-02  4.5273049E-02  2.0679066E-02
   9.60000  2.3354652E-02  4.9224698E-02  2.2547192E-02
   9.80000  2.5334138E-02  5.3125852E-02  2.4611719E-02
   10.0000  2.7349248E-02  5.6754685E-02  2.6864148E-02
   10.2500  2.9832497E-02  6.0481646E-02  2.9904787E-02
   10.5000  3.2155672E-02  6.2803051E-02  3.3109478E-02
   10.7500  3.4188554E-02  6.3356838E-02  3.6339599E-02
   11.0000  3.5823952E-02  6.2109189E-02  3.9414978E-02
   11.2500  3.7002403E-02  5.9356381E-02  4.2137507E-02
   11.5000  3.7727584E-02  5.5591129E-02  4.4329941E-02
   11.7500  3.8060748E-02  5.1331607E-02  4.5876822E-02
   12.0000  3.8096992E-02  4.7002680E-02  4.6749487E-02
   12.2500  3.7939553E-02  4.2890475E-02  4.7003407E-02
   12.5000  3.7681160E-02  3.9151980E-02  4.6751808E-02
   12.7500  3.7394263E-02  3.5850244E-02  4.6132055E-02
   13.0000  3.7129581E-02  3.2989817E-02  4.5279474E-02
   13.2500  3.6919224E-02  3.0542932E-02  4.4311771E-02
   13.5000  3.6780798E-02  2.8466872E-02  4.3322136E-02
   13.7500  3.6721051E-02  2.6714634E-02  4.2378543E-02
   14.0000  3.6738747E-02  2.5240829E-02  4.1526506E-02
   14.2500  3.6826831E-02  2.4004471E-02  4.0793054E-02
   14.5000  3.6974036E-02  2.2969974E-02  4.0190658E-02
   14.7500  3.7166138E-02  2.2107175E-02  3.9720556E-02
   15.0000  3.7387026E-02  2.1390936E-02  3.9375384E-02
   15.2500  3.7619772E-02  2.0800562E-02  3.9141253E-02
   15.5000  3.7847754E-02  2.0319198E-02  3.8999454E-02
   15.7500  3.8055855E-02  1.9933244E-02  3.8928000E-02
   16.0000  3.8231656E-02  1.9631827E-02  3.8903132E-02
   16.2500  3.8366505E-02  1.9406301E-02  3.8900881E-02
   16.5000  3.8456269E-02  1.9249813E-02  3.8898630E-02
   16.7500  3.8501621E-02  1.9156894E-02  3.8876580E-02
   17.0000  3.8507762E-02  1.9123104E-02  3.8818927E-02
   17.2500  3.8483607E-02  1.9144735E-02  3.8714629E-02
   17.5000  3.8440550E-02  1.9218572E-02  3.8557640E-02
   17.7500  3.8391036E-02  1.9341721E-02  3.8346641E-02
   18.0000  3.8347143E-02  1.9511497E-02  3.8084354E-02
   18.2500  3.8319393E-02  1.9725358E-02  3.7776590E-02
   18.5000  3.8315889E-02  1.9980884E-02  3.7431212E-02
   18.7500  3.8341839E-02  2.0275777E-02  3.7057122E-02
   19.0000  3.8399437E-02  2.0607891E-02  3.6663395E-02
   19.2500  3.8488040E-02  2.0975283E-02  3.6258561E-02
   19.5000  3.8604538E-02  2.1376254E-02  3.5850071E-02
   19.7500  3.8743787E-02  2.1809335E-02  3.5443971E-02
   20.0000  3.8898900E-02  2.2273050E-02  3.5044906E-02
   21.0000  3.9489477E-02  2.4386119E-02  3.3581091E-02
   22.0000  3.9568767E-02  2.6770637E-02  3.2377078E-02
   23.0000  3.8724534E-02  2.9215633E-02  3.1342722E-02
   24.0000  3.6933569E-02  3.1440593E-02  3.0331310E-02
   25.0000  3.4519684E-02  3.3150213E-02  2.9255138E-02
   26.0000  3.1899328E-02  3.4212394E-02  2.8122494E-02
   27.0000  2.9419451E-02  3.4655221E-02  2.7029426E-02
   28.0000  2.7301857E-02  3.4600656E-02  2.6101402E-02
   29.0000  2.5636934E-02  3.4203397E-02  2.5420636E-02
   30.0000  2.4413196E-02  3.3601795E-02  2.4993806E-02
   31.0000  2.3562605E-02  3.2894452E-02  2.4766047E-02
   32.0000  2.2997063E-02  3.2136734E-02  2.4651930E-02
   33.0000  2.2627520E-02  3.1348275E-02  2.4561348E-02
   34.0000  2.2370688E-02  3.0525717E-02  2.4414818E-02
   35.0000  2.2150957E-02  2.9656822E-02  2.4151821E-02
   36.0000  2.1903943E-02  2.8733752E-02  2.3737762E-02
   37.0000  2.1585620E-02  2.7765138E-02  2.3172728E-02
   38.0000  2.1186984E-02  2.6786797E-02  2.2500537E-02
   39.0000  2.0747625E-02  2.5870543E-02  2.1811579E-02
   40.0000  2.0350326E-02  2.5119465E-02  2.1224513E-02
