    Energy   (100,001)      (010,001)      (001,110)   
  -25.0000  1.6804676E-04  1.8838740E-04  1.7041338E-04
  -24.0000  1.7439778E-04  1.9525698E-04  1.7687841E-04
  -23.0000  1.8119469E-04  2.0260957E-04  1.8379978E-04
  -22.0000  1.8848431E-04  2.1049711E-04  1.9122569E-04
  -21.0000  1.9632013E-04  2.1897917E-04  1.9921125E-04
  -20.0000  2.0476349E-04  2.2812441E-04  2.0781971E-04
  -19.0000  2.1388510E-04  2.3801242E-04  2.1712405E-04
  -18.0000  2.2376688E-04  2.4873588E-04  2.2720888E-04
  -17.0000  2.3450420E-04  2.6040342E-04  2.3817283E-04
  -16.0000  2.4620882E-04  2.7314314E-04  2.5013156E-04
  -15.0000  2.5901247E-04  2.8710718E-04  2.6322160E-04
  -14.0000  2.7307152E-04  3.0247753E-04  2.7760516E-04
  -13.0000  2.8857297E-04  3.1947376E-04  2.9347653E-04
  -12.0000  3.0574231E-04  3.3836307E-04  3.1107032E-04
  -11.0000  3.2485391E-04  3.5947394E-04  3.3067243E-04
  -10.0000  3.4624499E-04  3.8321457E-04  3.5263490E-04
  -9.00000  3.7033473E-04  4.1009848E-04  3.7739618E-04
  -8.00000  3.9765077E-04  4.4078060E-04  4.0550940E-04
  -7.00000  4.2886693E-04  4.7610924E-04  4.3768269E-04
  -6.00000  4.6485793E-04  5.1720288E-04  4.7483801E-04
  -5.00000  5.0678131E-04  5.6556673E-04  5.1819952E-04
  -4.00000  5.5620367E-04  6.2327574E-04  5.6943071E-04
  -3.00000  6.1530349E-04  6.9327359E-04  6.3085603E-04
  -2.00000  6.8721248E-04  7.7988516E-04  7.0583714E-04
  -1.00000  7.7662588E-04  8.8975010E-04  7.9945244E-04
   0.00000  8.9098295E-04  1.0336617E-03  9.1982719E-04
   1.00000  1.0430063E-03  1.2305928E-03  1.0810360E-03
   2.00000  1.2570620E-03  1.5179364E-03  1.3104894E-03
   3.00000  1.5892533E-03  1.9841991E-03  1.6726184E-03
   4.00000  2.2193340E-03  2.9188212E-03  2.3780823E-03
   5.00000  3.9263833E-03  5.6028820E-03  4.3743680E-03
   5.20000  4.4462896E-03  6.4521306E-03  5.0155679E-03
   5.40000  4.9556290E-03  7.3013605E-03  5.6610699E-03
   5.60000  5.4417282E-03  8.1235218E-03  6.2793186E-03
   5.80000  5.9160745E-03  8.9258319E-03  6.8608687E-03
   6.00000  6.3971859E-03  9.7269409E-03  7.4079955E-03
   6.20000  6.9029201E-03  1.0546975E-02  7.9309608E-03
   6.40000  7.4491639E-03  1.1405978E-02  8.4472285E-03
   6.60000  8.0502845E-03  1.2323968E-02  8.9794826E-03
   6.80000  8.7197091E-03  1.3320405E-02  9.5524110E-03
   7.00000  9.4702936E-03  1.4412924E-02  1.0189717E-02
   7.20000  1.0314275E-02  1.5615599E-02  1.0912230E-02
   7.40000  1.1262409E-02  1.6936828E-02  1.1736938E-02
   7.60000  1.2321904E-02  1.8377167E-02  1.2676372E-02
   7.80000  1.3493263E-02  1.9928193E-02  1.3738061E-02
   8.00000  1.4767172E-02  2.1574405E-02  1.4924284E-02
   8.20000  1.6123879E-02  2.3299149E-02  1.6232100E-02
   8.40000  1.7537458E-02  2.5092428E-02  1.7652830E-02
   8.60000  1.8983579E-02  2.6957547E-02  1.9171356E-02
   8.80000  2.0445683E-02  2.8914514E-02  2.0766832E-02
   9.00000  2.1916528E-02  3.0997414E-02  2.2414446E-02
   9.20000  2.3395665E-02  3.3245552E-02  2.4087159E-02
   9.40000  2.4884554E-02  3.5689972E-02  2.5757116E-02
   9.60000  2.6380649E-02  3.8335370E-02  2.7396813E-02
   9.80000  2.7872599E-02  4.1141732E-02  2.8980844E-02
   10.0000  2.9338934E-02  4.4014689E-02  3.0488512E-02
   10.2500  3.1090673E-02  4.7473523E-02  3.2244671E-02
   10.5000  3.2693472E-02  5.0451351E-02  3.3844843E-02
   10.7500  3.4094571E-02  5.2600532E-02  3.5282408E-02
   11.0000  3.5264523E-02  5.3680046E-02  3.6551034E-02
   11.2500  3.6199723E-02  5.3619848E-02  3.7641341E-02
   11.5000  3.6914444E-02  5.2522136E-02  3.8544754E-02
   11.7500  3.7432754E-02  5.0608747E-02  3.9257274E-02
   12.0000  3.7784663E-02  4.8149429E-02  3.9780233E-02
   12.2500  3.8003560E-02  4.5401666E-02  4.0120430E-02
   12.5000  3.8123708E-02  4.2575337E-02  4.0291961E-02
   12.7500  3.8178353E-02  3.9821260E-02  4.0318482E-02
   13.0000  3.8198398E-02  3.7235289E-02  4.0231989E-02
   13.2500  3.8210878E-02  3.4869321E-02  4.0068760E-02
   13.5000  3.8237273E-02  3.2743696E-02  3.9865193E-02
   13.7500  3.8292318E-02  3.0858224E-02  3.9654543E-02
   14.0000  3.8383677E-02  2.9200768E-02  3.9464644E-02
   14.2500  3.8512436E-02  2.7753282E-02  3.9316559E-02
   14.5000  3.8674129E-02  2.6495706E-02  3.9223984E-02
   14.7500  3.8860012E-02  2.5408260E-02  3.9193254E-02
   15.0000  3.9058381E-02  2.4472637E-02  3.9223775E-02
   15.2500  3.9255798E-02  2.3672518E-02  3.9308787E-02
   15.5000  3.9438188E-02  2.2993655E-02  3.9436396E-02
   15.7500  3.9591778E-02  2.2423725E-02  3.9590857E-02
   16.0000  3.9703911E-02  2.1952079E-02  3.9754047E-02
   16.2500  3.9763762E-02  2.1569455E-02  3.9907080E-02
   16.5000  3.9762962E-02  2.1267716E-02  4.0031916E-02
   16.7500  3.9696108E-02  2.1039621E-02  4.0112823E-02
   17.0000  3.9561118E-02  2.0878648E-02  4.0137496E-02
   17.2500  3.9359371E-02  2.0778866E-02  4.0097745E-02
   17.5000  3.9095575E-02  2.0734849E-02  3.9989681E-02
   17.7500  3.8777358E-02  2.0741614E-02  3.9813454E-02
   18.0000  3.8414602E-02  2.0794587E-02  3.9572655E-02
   18.2500  3.8018600E-02  2.0889585E-02  3.9273514E-02
   18.5000  3.7601156E-02  2.1022805E-02  3.8924043E-02
   18.7500  3.7173730E-02  2.1190824E-02  3.8533197E-02
   19.0000  3.6746722E-02  2.1390617E-02  3.8110152E-02
   19.2500  3.6328947E-02  2.1619587E-02  3.7663682E-02
   19.5000  3.5927306E-02  2.1875591E-02  3.7201674E-02
   19.7500  3.5546704E-02  2.2156934E-02  3.6730839E-02
   20.0000  3.5190252E-02  2.2462219E-02  3.6256754E-02
   21.0000  3.4033343E-02  2.3892559E-02  3.4420222E-02
   22.0000  3.3299915E-02  2.5594702E-02  3.2813014E-02
   23.0000  3.2873772E-02  2.7494643E-02  3.1450454E-02
   24.0000  3.2535792E-02  2.9445203E-02  3.0257761E-02
   25.0000  3.2007394E-02  3.1209920E-02  2.9159691E-02
   26.0000  3.1076395E-02  3.2602007E-02  2.8109906E-02
   27.0000  2.9743047E-02  3.3521701E-02  2.7110243E-02
   28.0000  2.8211541E-02  3.3962174E-02  2.6203936E-02
   29.0000  2.6735033E-02  3.3998010E-02  2.5442835E-02
   30.0000  2.5480116E-02  3.3741278E-02  2.4854426E-02
   31.0000  2.4497497E-02  3.3297235E-02  2.4429505E-02
   32.0000  2.3759266E-02  3.2741616E-02  2.4130154E-02
   33.0000  2.3203955E-02  3.2118407E-02  2.3904136E-02
   34.0000  2.2766453E-02  3.1448695E-02  2.3696743E-02
   35.0000  2.2393670E-02  3.0742887E-02  2.3459371E-02
   36.0000  2.2052200E-02  3.0011519E-02  2.3158446E-02
   37.0000  2.1729592E-02  2.9272709E-02  2.2783895E-02
   38.0000  2.1429283E-02  2.8556278E-02  2.2353819E-02
   39.0000  2.1164788E-02  2.7906480E-02  2.1917652E-02
   40.0000  2.0953478E-02  2.7383021E-02  2.1545720E-02
