    Energy   (100,001)      (010,001)      (001,110)   
  -25.0000  1.7109575E-04  1.8160805E-04  1.7494862E-04
  -24.0000  1.7765143E-04  1.8865233E-04  1.8168704E-04
  -23.0000  1.8467714E-04  1.9621546E-04  1.8891211E-04
  -22.0000  1.9222354E-04  2.0435531E-04  1.9667658E-04
  -21.0000  2.0034872E-04  2.1313856E-04  2.0504096E-04
  -20.0000  2.0911959E-04  2.2264237E-04  2.1407498E-04
  -19.0000  2.1861363E-04  2.3295659E-04  2.2385936E-04
  -18.0000  2.2892103E-04  2.4418635E-04  2.3448808E-04
  -17.0000  2.4014734E-04  2.5645548E-04  2.4607118E-04
  -16.0000  2.5241697E-04  2.6991074E-04  2.5873829E-04
  -15.0000  2.6587748E-04  2.8472741E-04  2.7264315E-04
  -14.0000  2.8070523E-04  3.0111635E-04  2.8796944E-04
  -13.0000  2.9711274E-04  3.1933351E-04  3.0493833E-04
  -12.0000  3.1535840E-04  3.3969239E-04  3.2381853E-04
  -11.0000  3.3575956E-04  3.6258095E-04  3.4493962E-04
  -10.0000  3.5871029E-04  3.8848483E-04  3.6871024E-04
  -9.00000  3.8470612E-04  4.1801958E-04  3.9564308E-04
  -8.00000  4.1437891E-04  4.5197654E-04  4.2639019E-04
  -7.00000  4.4854748E-04  4.9138940E-04  4.6179355E-04
  -6.00000  4.8829263E-04  5.3763311E-04  5.0295962E-04
  -5.00000  5.3507215E-04  5.9257504E-04  5.5137227E-04
  -4.00000  5.9090295E-04  6.5881375E-04  6.0906960E-04
  -3.00000  6.5866255E-04  7.4007045E-04  6.7893219E-04
  -2.00000  7.4261399E-04  8.4186178E-04  7.6517616E-04
  -1.00000  8.4938082E-04  9.7272325E-04  8.7424943E-04
   0.00000  9.8991375E-04  1.1466034E-03  1.0165931E-03
   1.00000  1.1839178E-03  1.3880278E-03  1.2104852E-03
   2.00000  1.4714680E-03  1.7448867E-03  1.4917673E-03
   3.00000  1.9512625E-03  2.3275352E-03  1.9446178E-03
   4.00000  2.9602583E-03  3.4776447E-03  2.8405455E-03
   5.00000  6.0480791E-03  6.6349532E-03  5.3810734E-03
   5.20000  7.0551078E-03  7.6512041E-03  6.2026570E-03
   5.40000  8.0693174E-03  8.7133566E-03  7.0393529E-03
   5.60000  9.0485279E-03  9.8074097E-03  7.8563489E-03
   5.80000  9.9889364E-03  1.0953519E-02  8.6492038E-03
   6.00000  1.0902655E-02  1.2182520E-02  9.4315702E-03
   6.20000  1.1806666E-02  1.3525651E-02  1.0229295E-02
   6.40000  1.2717642E-02  1.5012721E-02  1.1077140E-02
   6.60000  1.3646106E-02  1.6671745E-02  1.2013999E-02
   6.80000  1.4590635E-02  1.8527563E-02  1.3076638E-02
   7.00000  1.5536076E-02  2.0599314E-02  1.4293297E-02
   7.20000  1.6458699E-02  2.2897878E-02  1.5678354E-02
   7.40000  1.7336801E-02  2.5425626E-02  1.7227618E-02
   7.60000  1.8161903E-02  2.8180816E-02  1.8914087E-02
   7.80000  1.8946531E-02  3.1165727E-02  2.0688457E-02
   8.00000  1.9725546E-02  3.4391965E-02  2.2488704E-02
   8.20000  2.0549314E-02  3.7873716E-02  2.4256363E-02
   8.40000  2.1471002E-02  4.1604882E-02  2.5951147E-02
   8.60000  2.2533786E-02  4.5526257E-02  2.7556742E-02
   8.80000  2.3762896E-02  4.9496448E-02  2.9077377E-02
   9.00000  2.5163497E-02  5.3282026E-02  3.0529956E-02
   9.20000  2.6722037E-02  5.6579221E-02  3.1936509E-02
   9.40000  2.8407109E-02  5.9070123E-02  3.3317990E-02
   9.60000  3.0168083E-02  6.0501244E-02  3.4686971E-02
   9.80000  3.1935338E-02  6.0755234E-02  3.6040154E-02
   10.0000  3.3626244E-02  5.9880912E-02  3.7355086E-02
   10.2500  3.5503783E-02  5.7497747E-02  3.8883950E-02
   10.5000  3.6989842E-02  5.4169213E-02  4.0198679E-02
   10.7500  3.8004205E-02  5.0399547E-02  4.1221658E-02
   11.0000  3.8543176E-02  4.6571090E-02  4.1910204E-02
   11.2500  3.8670503E-02  4.2924643E-02  4.2261469E-02
   11.5000  3.8489263E-02  3.9586117E-02  4.2308564E-02
   11.7500  3.8110279E-02  3.6603638E-02  4.2109507E-02
   12.0000  3.7630158E-02  3.3978808E-02  4.1732924E-02
   12.2500  3.7121651E-02  3.1688798E-02  4.1246659E-02
   12.5000  3.6633046E-02  2.9700481E-02  4.0710821E-02
   12.7500  3.6192352E-02  2.7978836E-02  4.0173166E-02
   13.0000  3.5812379E-02  2.6491233E-02  3.9667613E-02
   13.2500  3.5495535E-02  2.5208933E-02  3.9216276E-02
   13.5000  3.5238001E-02  2.4107263E-02  3.8832472E-02
   13.7500  3.5032802E-02  2.3165343E-02  3.8522898E-02
   14.0000  3.4871702E-02  2.2365660E-02  3.8288888E-02
   14.2500  3.4746181E-02  2.1693557E-02  3.8127141E-02
   14.5000  3.4647836E-02  2.1136723E-02  3.8030221E-02
   14.7500  3.4568460E-02  2.0684714E-02  3.7986979E-02
   15.0000  3.4500040E-02  2.0328526E-02  3.7983060E-02
   15.2500  3.4434763E-02  2.0060260E-02  3.8001592E-02
   15.5000  3.4365130E-02  1.9872853E-02  3.8024169E-02
   15.7500  3.4284187E-02  1.9759873E-02  3.8032143E-02
   16.0000  3.4185885E-02  1.9715373E-02  3.8008121E-02
   16.2500  3.4065546E-02  1.9733770E-02  3.7937495E-02
   16.5000  3.3920392E-02  1.9809772E-02  3.7809732E-02
   16.7500  3.3750026E-02  1.9938316E-02  3.7619185E-02
   17.0000  3.3556780E-02  2.0114544E-02  3.7365246E-02
   17.2500  3.3345777E-02  2.0333800E-02  3.7051847E-02
   17.5000  3.3124680E-02  2.0591647E-02  3.6686446E-02
   17.7500  3.2903103E-02  2.0883892E-02  3.6278743E-02
   18.0000  3.2691793E-02  2.1206618E-02  3.5839371E-02
   18.2500  3.2501690E-02  2.1556217E-02  3.5378789E-02
   18.5000  3.2343026E-02  2.1929410E-02  3.4906467E-02
   18.7500  3.2224562E-02  2.2323264E-02  3.4430401E-02
   19.0000  3.2153039E-02  2.2735220E-02  3.3956896E-02
   19.2500  3.2132861E-02  2.3163121E-02  3.3490558E-02
   19.5000  3.2165959E-02  2.3605244E-02  3.3034395E-02
   19.7500  3.2251757E-02  2.4060268E-02  3.2590048E-02
   20.0000  3.2387101E-02  2.4527044E-02  3.2158169E-02
   21.0000  3.3274476E-02  2.6474965E-02  3.0561253E-02
   22.0000  3.4213504E-02  2.8446756E-02  2.9178326E-02
   23.0000  3.4546511E-02  3.0299199E-02  2.7999672E-02
   24.0000  3.3963166E-02  3.1864072E-02  2.7021822E-02
   25.0000  3.2633789E-02  3.2963775E-02  2.6240616E-02
   26.0000  3.0968193E-02  3.3476017E-02  2.5631688E-02
   27.0000  2.9302268E-02  3.3419100E-02  2.5146048E-02
   28.0000  2.7816734E-02  3.2919345E-02  2.4749080E-02
   29.0000  2.6578133E-02  3.2138743E-02  2.4437945E-02
   30.0000  2.5584905E-02  3.1222612E-02  2.4213846E-02
   31.0000  2.4800273E-02  3.0273738E-02  2.4055630E-02
   32.0000  2.4174879E-02  2.9350700E-02  2.3921593E-02
   33.0000  2.3661050E-02  2.8478738E-02  2.3766384E-02
   34.0000  2.3219695E-02  2.7662486E-02  2.3555607E-02
   35.0000  2.2822769E-02  2.6894763E-02  2.3274858E-02
   36.0000  2.2454544E-02  2.6163842E-02  2.2935350E-02
   37.0000  2.2110924E-02  2.5460191E-02  2.2574089E-02
   38.0000  2.1796383E-02  2.4785768E-02  2.2242694E-02
   39.0000  2.1521543E-02  2.4167377E-02  2.1983844E-02
   40.0000  2.1301865E-02  2.3660883E-02  2.1807768E-02
