    Energy   (100,001)      (010,001)      (001,110)   
  -25.0000  1.6669377E-04  1.8167896E-04  1.7063331E-04
  -24.0000  1.7277867E-04  1.8868257E-04  1.7695738E-04
  -23.0000  1.7927711E-04  1.9619840E-04  1.8371940E-04
  -22.0000  1.8623118E-04  2.0428316E-04  1.9096488E-04
  -21.0000  1.9368879E-04  2.1300210E-04  1.9874576E-04
  -20.0000  2.0170469E-04  2.2243067E-04  2.0712156E-04
  -19.0000  2.1034173E-04  2.3265659E-04  2.1616079E-04
  -18.0000  2.1967237E-04  2.4378239E-04  2.2594274E-04
  -17.0000  2.2978062E-04  2.5592865E-04  2.3655962E-04
  -16.0000  2.4076443E-04  2.6923810E-04  2.4811931E-04
  -15.0000  2.5273863E-04  2.8388089E-04  2.6074884E-04
  -14.0000  2.6583876E-04  3.0006142E-04  2.7459873E-04
  -13.0000  2.8022592E-04  3.1802728E-04  2.8984875E-04
  -12.0000  2.9609312E-04  3.3808115E-04  3.0671529E-04
  -11.0000  3.1367354E-04  3.6059682E-04  3.2546119E-04
  -10.0000  3.3325157E-04  3.8604105E-04  3.4640889E-04
  -9.00000  3.5517778E-04  4.1500398E-04  3.6995830E-04
  -8.00000  3.7988943E-04  4.4824217E-04  3.9661167E-04
  -7.00000  4.0793935E-04  4.8674093E-04  4.2700871E-04
  -6.00000  4.4003727E-04  5.3180650E-04  4.6197736E-04
  -5.00000  4.7711089E-04  5.8520665E-04  5.0260950E-04
  -4.00000  5.2039862E-04  6.4939164E-04  5.5037683E-04
  -3.00000  5.7159612E-04  7.2785551E-04  6.0731584E-04
  -2.00000  6.3309866E-04  8.2575432E-04  6.7633608E-04
  -1.00000  7.0842625E-04  9.5102657E-04  7.6176538E-04
   0.00000  8.0302897E-04  1.1165786E-03  8.7038839E-04
   1.00000  9.2598117E-04  1.3449866E-03  1.0136369E-03
   2.00000  1.0941247E-03  1.6801293E-03  1.2129356E-03
   3.00000  1.3448253E-03  2.2228115E-03  1.5160416E-03
   4.00000  1.7927494E-03  3.2854437E-03  2.0691162E-03
   5.00000  2.9234953E-03  6.1810205E-03  3.4737939E-03
   5.20000  3.2704200E-03  7.1003451E-03  3.8926074E-03
   5.40000  3.6215704E-03  8.0522433E-03  4.3121710E-03
   5.60000  3.9704355E-03  9.0272657E-03  4.7347573E-03
   5.80000  4.3232369E-03  1.0049017E-02  5.1787425E-03
   6.00000  4.6891366E-03  1.1149795E-02  5.6621837E-03
   6.20000  5.0759504E-03  1.2360481E-02  6.1975877E-03
   6.40000  5.4895147E-03  1.3709517E-02  6.7931616E-03
   6.60000  5.9340231E-03  1.5223730E-02  7.4556083E-03
   6.80000  6.4124109E-03  1.6928147E-02  8.1925441E-03
   7.00000  6.9265961E-03  1.8843960E-02  9.0137510E-03
   7.20000  7.4775087E-03  2.0984072E-02  9.9306580E-03
   7.40000  8.0649534E-03  2.3346063E-02  1.0953427E-02
   7.60000  8.6875753E-03  2.5903655E-02  1.2085382E-02
   7.80000  9.3434574E-03  2.8600727E-02  1.3315804E-02
   8.00000  1.0031940E-02  3.1355032E-02  1.4614602E-02
   8.20000  1.0756691E-02  3.4078270E-02  1.5934599E-02
   8.40000  1.1528766E-02  3.6709652E-02  1.7225543E-02
   8.60000  1.2367311E-02  3.9243637E-02  1.8455340E-02
   8.80000  1.3296536E-02  4.1727411E-02  1.9625023E-02
   9.00000  1.4340305E-02  4.4223647E-02  2.0766241E-02
   9.20000  1.5517323E-02  4.6761336E-02  2.1923803E-02
   9.40000  1.6838640E-02  4.9303097E-02  2.3135740E-02
   9.60000  1.8307038E-02  5.1741626E-02  2.4421123E-02
   9.80000  1.9916882E-02  5.3920935E-02  2.5777690E-02
   10.0000  2.1653393E-02  5.5670348E-02  2.7185684E-02
   10.2500  2.3962414E-02  5.7028274E-02  2.8969642E-02
   10.5000  2.6353510E-02  5.7303442E-02  3.0712320E-02
   10.7500  2.8722706E-02  5.6474319E-02  3.2340932E-02
   11.0000  3.0943494E-02  5.4660848E-02  3.3788897E-02
   11.2500  3.2885788E-02  5.2073044E-02  3.5000578E-02
   11.5000  3.4445297E-02  4.8958650E-02  3.5938440E-02
   11.7500  3.5570263E-02  4.5565650E-02  3.6589501E-02
   12.0000  3.6272175E-02  4.2116541E-02  3.6967288E-02
   12.2500  3.6615643E-02  3.8788713E-02  3.7109547E-02
   12.5000  3.6693814E-02  3.5703846E-02  3.7071892E-02
   12.7500  3.6602843E-02  3.2929630E-02  3.6918057E-02
   13.0000  3.6425550E-02  3.0491016E-02  3.6709392E-02
   13.2500  3.6224856E-02  2.8384195E-02  3.6497885E-02
   13.5000  3.6044106E-02  2.6588240E-02  3.6323759E-02
   13.7500  3.5910832E-02  2.5073513E-02  3.6215723E-02
   14.0000  3.5841100E-02  2.3807472E-02  3.6192159E-02
   14.2500  3.5843050E-02  2.2758338E-02  3.6262426E-02
   14.5000  3.5919303E-02  2.1897067E-02  3.6427966E-02
   14.7500  3.6068343E-02  2.1198169E-02  3.6683177E-02
   15.0000  3.6285179E-02  2.0639840E-02  3.7016148E-02
   15.2500  3.6561598E-02  2.0203730E-02  3.7409430E-02
   15.5000  3.6886284E-02  1.9874554E-02  3.7840998E-02
   15.7500  3.7245007E-02  1.9639651E-02  3.8285588E-02
   16.0000  3.7621043E-02  1.9488552E-02  3.8716425E-02
   16.2500  3.7995945E-02  1.9412585E-02  3.9107294E-02
   16.5000  3.8350677E-02  1.9404528E-02  3.9434741E-02
   16.7500  3.8667062E-02  1.9458312E-02  3.9680085E-02
   17.0000  3.8929374E-02  1.9568775E-02  3.9830910E-02
   17.2500  3.9125866E-02  1.9731455E-02  3.9881773E-02
   17.5000  3.9249937E-02  1.9942427E-02  3.9834051E-02
   17.7500  3.9300745E-02  2.0198174E-02  3.9694992E-02
   18.0000  3.9283107E-02  2.0495482E-02  3.9476253E-02
   18.2500  3.9206718E-02  2.0831366E-02  3.9192204E-02
   18.5000  3.9084810E-02  2.1203012E-02  3.8858292E-02
   18.7500  3.8932521E-02  2.1607762E-02  3.8489663E-02
   19.0000  3.8765205E-02  2.2043120E-02  3.8100113E-02
   19.2500  3.8596933E-02  2.2506805E-02  3.7701396E-02
   19.5000  3.8439314E-02  2.2996807E-02  3.7302829E-02
   19.7500  3.8300702E-02  2.3511377E-02  3.6911197E-02
   20.0000  3.8185831E-02  2.4048773E-02  3.6530978E-02
   21.0000  3.7946201E-02  2.6369794E-02  3.5164052E-02
   22.0000  3.7784196E-02  2.8792301E-02  3.4029317E-02
   23.0000  3.7209348E-02  3.1053719E-02  3.2998284E-02
   24.0000  3.5944672E-02  3.2853260E-02  3.1944892E-02
   25.0000  3.4095207E-02  3.3946821E-02  3.0817639E-02
   26.0000  3.2007126E-02  3.4254674E-02  2.9649484E-02
   27.0000  3.0018346E-02  3.3882377E-02  2.8535704E-02
   28.0000  2.8329512E-02  3.3053968E-02  2.7587080E-02
   29.0000  2.7012074E-02  3.2013410E-02  2.6870679E-02
   30.0000  2.6044438E-02  3.0935963E-02  2.6373377E-02
   31.0000  2.5366184E-02  2.9918474E-02  2.6028899E-02
   32.0000  2.4906285E-02  2.9000833E-02  2.5758420E-02
   33.0000  2.4589462E-02  2.8185593E-02  2.5494383E-02
   34.0000  2.4340855E-02  2.7454710E-02  2.5189980E-02
   35.0000  2.4092756E-02  2.6782176E-02  2.4820683E-02
   36.0000  2.3794328E-02  2.6141990E-02  2.4382838E-02
   37.0000  2.3423161E-02  2.5513601E-02  2.3891673E-02
   38.0000  2.2993420E-02  2.4890964E-02  2.3379569E-02
   39.0000  2.2554652E-02  2.4298806E-02  2.2895060E-02
   40.0000  2.2177664E-02  2.3800651E-02  2.2496800E-02
