    Energy   (100,001)      (010,001)      (001,110)   
  -25.0000  1.7320614E-04  1.7823344E-04  1.7236544E-04
  -24.0000  1.7976419E-04  1.8522903E-04  1.7916684E-04
  -23.0000  1.8678648E-04  1.9274291E-04  1.8646784E-04
  -22.0000  1.9432228E-04  2.0083306E-04  1.9432337E-04
  -21.0000  2.0242793E-04  2.0956628E-04  2.0279651E-04
  -20.0000  2.1116814E-04  2.1901991E-04  2.1196011E-04
  -19.0000  2.2061761E-04  2.2928399E-04  2.2189865E-04
  -18.0000  2.3086298E-04  2.4046392E-04  2.3271071E-04
  -17.0000  2.4200533E-04  2.5268385E-04  2.4451192E-04
  -16.0000  2.5416325E-04  2.6609097E-04  2.5743885E-04
  -15.0000  2.6747674E-04  2.8086107E-04  2.7165385E-04
  -14.0000  2.8211230E-04  2.9720572E-04  2.8735141E-04
  -13.0000  2.9826935E-04  3.1538172E-04  3.0476640E-04
  -12.0000  3.1618877E-04  3.3570372E-04  3.2418507E-04
  -11.0000  3.3616414E-04  3.5856118E-04  3.4595971E-04
  -10.0000  3.5855688E-04  3.8444173E-04  3.7052872E-04
  -9.00000  3.8381690E-04  4.1396365E-04  3.9844441E-04
  -8.00000  4.1251131E-04  4.4792204E-04  4.3041235E-04
  -7.00000  4.4536503E-04  4.8735596E-04  4.6734811E-04
  -6.00000  4.8331974E-04  5.3364820E-04  5.1046145E-04
  -5.00000  5.2762140E-04  5.8867810E-04  5.6138454E-04
  -4.00000  5.7995458E-04  6.5506319E-04  6.2237417E-04
  -3.00000  6.4265574E-04  7.3655650E-04  6.9664344E-04
  -2.00000  7.1906752E-04  8.3873150E-04  7.8893289E-04
  -1.00000  8.1415992E-04  9.7023337E-04  9.0655443E-04
   0.00000  9.3569975E-04  1.1452434E-03  1.0614501E-03
   1.00000  1.0966731E-03  1.3888435E-03  1.2746828E-03
   2.00000  1.3210467E-03  1.7504765E-03  1.5877006E-03
   3.00000  1.6607543E-03  2.3458794E-03  2.0971446E-03
   4.00000  2.2672406E-03  3.5425233E-03  3.1047948E-03
   5.00000  3.7498647E-03  6.9310653E-03  5.9204461E-03
   5.20000  4.2055854E-03  8.0280565E-03  6.8847271E-03
   5.40000  4.6761285E-03  9.1615952E-03  7.9429733E-03
   5.60000  5.1570595E-03  1.0302299E-02  9.0755877E-03
   5.80000  5.6611183E-03  1.1456201E-02  1.0278097E-02
   6.00000  6.2071540E-03  1.2641485E-02  1.1550249E-02
   6.20000  6.8148781E-03  1.3880268E-02  1.2892740E-02
   6.40000  7.5035005E-03  1.5199844E-02  1.4306261E-02
   6.60000  8.2907405E-03  1.6634836E-02  1.5788513E-02
   6.80000  9.1905746E-03  1.8227176E-02  1.7330360E-02
   7.00000  1.0209453E-02  2.0023541E-02  1.8913421E-02
   7.20000  1.1342069E-02  2.2069730E-02  2.0508978E-02
   7.40000  1.2569888E-02  2.4401134E-02  2.2077284E-02
   7.60000  1.3867570E-02  2.7031817E-02  2.3570719E-02
   7.80000  1.5219258E-02  2.9951305E-02  2.4947955E-02
   8.00000  1.6635660E-02  3.3137058E-02  2.6197079E-02
   8.20000  1.8156923E-02  3.6571456E-02  2.7348345E-02
   8.40000  1.9838620E-02  4.0240738E-02  2.8461292E-02
   8.60000  2.1732912E-02  4.4111889E-02  2.9596693E-02
   8.80000  2.3874880E-02  4.8101291E-02  3.0793337E-02
   9.00000  2.6273616E-02  5.2049575E-02  3.2058105E-02
   9.20000  2.8903709E-02  5.5714335E-02  3.3367486E-02
   9.40000  3.1696349E-02  5.8791894E-02  3.4676591E-02
   9.60000  3.4534703E-02  6.0973564E-02  3.5932237E-02
   9.80000  3.7260938E-02  6.2024891E-02  3.7086458E-02
   10.0000  3.9698905E-02  6.1855658E-02  3.8106578E-02
   10.2500  4.2100447E-02  6.0061371E-02  3.9174641E-02
   10.5000  4.3604658E-02  5.6926675E-02  4.0024427E-02
   10.7500  4.4186139E-02  5.3008486E-02  4.0689325E-02
   11.0000  4.3977693E-02  4.8806434E-02  4.1201820E-02
   11.2500  4.3202095E-02  4.4679023E-02  4.1575926E-02
   11.5000  4.2097501E-02  4.0841326E-02  4.1805738E-02
   11.7500  4.0867877E-02  3.7396461E-02  4.1879515E-02
   12.0000  3.9662069E-02  3.4373502E-02  4.1793264E-02
   12.2500  3.8573782E-02  3.1759723E-02  4.1553516E-02
   12.5000  3.7652938E-02  2.9522188E-02  4.1175516E-02
   12.7500  3.6919491E-02  2.7620333E-02  4.0684330E-02
   13.0000  3.6374721E-02  2.6012844E-02  4.0115009E-02
   13.2500  3.6008903E-02  2.4661109E-02  3.9508312E-02
   13.5000  3.5806016E-02  2.3530640E-02  3.8904151E-02
   13.7500  3.5746438E-02  2.2591347E-02  3.8335741E-02
   14.0000  3.5808333E-02  2.1817294E-02  3.7826353E-02
   14.2500  3.5968183E-02  2.1186379E-02  3.7389272E-02
   14.5000  3.6200986E-02  2.0680003E-02  3.7029499E-02
   14.7500  3.6480625E-02  2.0282627E-02  3.6745182E-02
   15.0000  3.6780528E-02  1.9981258E-02  3.6528611E-02
   15.2500  3.7074567E-02  1.9764994E-02  3.6367376E-02
   15.5000  3.7338161E-02  1.9624656E-02  3.6245751E-02
   15.7500  3.7549573E-02  1.9552503E-02  3.6146133E-02
   16.0000  3.7691274E-02  1.9542006E-02  3.6050477E-02
   16.2500  3.7751204E-02  1.9587676E-02  3.5941678E-02
   16.5000  3.7723697E-02  1.9684923E-02  3.5804918E-02
   16.7500  3.7609856E-02  1.9829936E-02  3.5628855E-02
   17.0000  3.7417256E-02  2.0019566E-02  3.5406529E-02
   17.2500  3.7158968E-02  2.0251203E-02  3.5135796E-02
   17.5000  3.6852055E-02  2.0522639E-02  3.4819183E-02
   17.7500  3.6515755E-02  2.0831933E-02  3.4463172E-02
   18.0000  3.6169648E-02  2.1177272E-02  3.4077061E-02
   18.2500  3.5832022E-02  2.1556854E-02  3.3671633E-02
   18.5000  3.5518602E-02  2.1968790E-02  3.3257871E-02
   18.7500  3.5241713E-02  2.2411047E-02  3.2845924E-02
   19.0000  3.5009855E-02  2.2881438E-02  3.2444391E-02
   19.2500  3.4827638E-02  2.3377652E-02  3.2059930E-02
   19.5000  3.4695986E-02  2.3897291E-02  3.1697124E-02
   19.7500  3.4612474E-02  2.4437819E-02  3.1358562E-02
   20.0000  3.4571669E-02  2.4996216E-02  3.1045112E-02
   21.0000  3.4645257E-02  2.7308416E-02  3.0024459E-02
   22.0000  3.4552971E-02  2.9485203E-02  2.9271373E-02
   23.0000  3.3724093E-02  3.1275941E-02  2.8603792E-02
   24.0000  3.2089292E-02  3.2512465E-02  2.7895907E-02
   25.0000  3.0040921E-02  3.3117916E-02  2.7130555E-02
   26.0000  2.8064764E-02  3.3138686E-02  2.6372026E-02
   27.0000  2.6458852E-02  3.2720806E-02  2.5706774E-02
   28.0000  2.5296178E-02  3.2038000E-02  2.5193766E-02
   29.0000  2.4515500E-02  3.1231647E-02  2.4840729E-02
   30.0000  2.4011450E-02  3.0391826E-02  2.4607758E-02
   31.0000  2.3682236E-02  2.9564034E-02  2.4428817E-02
   32.0000  2.3446433E-02  2.8761883E-02  2.4235340E-02
   33.0000  2.3246959E-02  2.7979179E-02  2.3971378E-02
   34.0000  2.3050331E-02  2.7200922E-02  2.3601093E-02
   35.0000  2.2842886E-02  2.6412848E-02  2.3114899E-02
   36.0000  2.2624957E-02  2.5608774E-02  2.2536433E-02
   37.0000  2.2404810E-02  2.4796141E-02  2.1924456E-02
   38.0000  2.2194296E-02  2.4001523E-02  2.1359546E-02
   39.0000  2.2007091E-02  2.3276008E-02  2.0911741E-02
   40.0000  2.1857244E-02  2.2689814E-02  2.0602780E-02
