    Energy   (100,001)      (010,001)      (001,110)   
  -25.0000  1.7201892E-04  1.7767813E-04  1.7587413E-04
  -24.0000  1.7856582E-04  1.8461176E-04  1.8266657E-04
  -23.0000  1.8557695E-04  1.9205466E-04  1.8995074E-04
  -22.0000  1.9310155E-04  2.0006323E-04  1.9778011E-04
  -21.0000  2.0119598E-04  2.0870237E-04  2.0621600E-04
  -20.0000  2.0992497E-04  2.1804711E-04  2.1532912E-04
  -19.0000  2.1936322E-04  2.2818466E-04  2.2520137E-04
  -18.0000  2.2959739E-04  2.3921692E-04  2.3592814E-04
  -17.0000  2.4072858E-04  2.5126372E-04  2.4762119E-04
  -16.0000  2.5287540E-04  2.6446682E-04  2.6041225E-04
  -15.0000  2.6617790E-04  2.7899516E-04  2.7445762E-04
  -14.0000  2.8080263E-04  2.9505157E-04  2.8994419E-04
  -13.0000  2.9694911E-04  3.1288160E-04  3.0709716E-04
  -12.0000  3.1485836E-04  3.3278526E-04  3.2619028E-04
  -11.0000  3.3482423E-04  3.5513271E-04  3.4755962E-04
  -10.0000  3.5720856E-04  3.8038576E-04  3.7162218E-04
  -9.00000  3.8246198E-04  4.0912765E-04  3.9890159E-04
  -8.00000  4.1115285E-04  4.4210514E-04  4.3006434E-04
  -7.00000  4.4400825E-04  4.8028924E-04  4.6597178E-04
  -6.00000  4.8197369E-04  5.2496491E-04  5.0775673E-04
  -5.00000  5.2630210E-04  5.7786725E-04  5.5693939E-04
  -4.00000  5.7869088E-04  6.4139489E-04  6.1560884E-04
  -3.00000  6.4150110E-04  7.1895731E-04  6.8671817E-04
  -2.00000  7.1812423E-04  8.1556619E-04  7.7458803E-04
  -1.00000  8.1363219E-04  9.3890133E-04  8.8581797E-04
   0.00000  9.3601818E-04  1.1013773E-03  1.0310660E-03
   1.00000  1.0988159E-03  1.3245633E-03  1.2288966E-03
   2.00000  1.3274856E-03  1.6500604E-03  1.5153914E-03
   3.00000  1.6788532E-03  2.1727241E-03  1.9740383E-03
   4.00000  2.3260705E-03  3.1851813E-03  2.8680630E-03
   5.00000  3.9911657E-03  5.9224162E-03  5.3326751E-03
   5.20000  4.5023448E-03  6.7912204E-03  6.1210537E-03
   5.40000  5.0174982E-03  7.6850094E-03  6.9291322E-03
   5.60000  5.5281908E-03  8.5852320E-03  7.7355514E-03
   5.80000  6.0504914E-03  9.5051821E-03  8.5501387E-03
   6.00000  6.6107530E-03  1.0469887E-02  9.3969176E-03
   6.20000  7.2368525E-03  1.1506363E-02  1.0304813E-02
   6.40000  7.9539366E-03  1.2641268E-02  1.1304242E-02
   6.60000  8.7816037E-03  1.3900833E-02  1.2424967E-02
   6.80000  9.7311507E-03  1.5311097E-02  1.3692966E-02
   7.00000  1.0802547E-02  1.6897590E-02  1.5125453E-02
   7.20000  1.1981579E-02  1.8683787E-02  1.6724230E-02
   7.40000  1.3238997E-02  2.0688382E-02  1.8469480E-02
   7.60000  1.4535256E-02  2.2923152E-02  2.0318862E-02
   7.80000  1.5833563E-02  2.5394649E-02  2.2217134E-02
   8.00000  1.7117157E-02  2.8111480E-02  2.4114712E-02
   8.20000  1.8398286E-02  3.1092380E-02  2.5982240E-02
   8.40000  1.9710041E-02  3.4365598E-02  2.7808958E-02
   8.60000  2.1088533E-02  3.7955182E-02  2.9589831E-02
   8.80000  2.2560338E-02  4.1858427E-02  3.1316908E-02
   9.00000  2.4140838E-02  4.6020545E-02  3.2981267E-02
   9.20000  2.5838102E-02  5.0310955E-02  3.4578723E-02
   9.40000  2.7655172E-02  5.4510352E-02  3.6110309E-02
   9.60000  2.9587551E-02  5.8322563E-02  3.7574378E-02
   9.80000  3.1617340E-02  6.1419136E-02  3.8956945E-02
   10.0000  3.3707264E-02  6.3509435E-02  4.0229973E-02
   10.2500  3.6308802E-02  6.4441923E-02  4.1610988E-02
   10.5000  3.8738009E-02  6.3493176E-02  4.2689566E-02
   10.7500  4.0800396E-02  6.0960767E-02  4.3406984E-02
   11.0000  4.2332416E-02  5.7335865E-02  4.3735591E-02
   11.2500  4.3255500E-02  5.3137350E-02  4.3687100E-02
   11.5000  4.3594952E-02  4.8794385E-02  4.3307744E-02
   11.7500  4.3456902E-02  4.4602052E-02  4.2666459E-02
   12.0000  4.2984995E-02  4.0731100E-02  4.1841670E-02
   12.2500  4.2322297E-02  3.7259097E-02  4.0908863E-02
   12.5000  4.1588663E-02  3.4202825E-02  3.9933553E-02
   12.7500  4.0872055E-02  3.1544637E-02  3.8968495E-02
   13.0000  4.0228842E-02  2.9250940E-02  3.8052234E-02
   13.2500  3.9688941E-02  2.7283210E-02  3.7210217E-02
   13.5000  3.9262865E-02  2.5603446E-02  3.6458742E-02
   13.7500  3.8948414E-02  2.4176456E-02  3.5809130E-02
   14.0000  3.8735639E-02  2.2970678E-02  3.5269915E-02
   14.2500  3.8609629E-02  2.1958342E-02  3.4846576E-02
   14.5000  3.8551997E-02  2.1115313E-02  3.4540269E-02
   14.7500  3.8542239E-02  2.0420753E-02  3.4347270E-02
   15.0000  3.8559101E-02  1.9856729E-02  3.4259171E-02
   15.2500  3.8581650E-02  1.9407821E-02  3.4263226E-02
   15.5000  3.8590078E-02  1.9060771E-02  3.4342793E-02
   15.7500  3.8566395E-02  1.8804177E-02  3.4478066E-02
   16.0000  3.8495145E-02  1.8628234E-02  3.4647183E-02
   16.2500  3.8364145E-02  1.8524515E-02  3.4827659E-02
   16.5000  3.8165221E-02  1.8485785E-02  3.4997987E-02
   16.7500  3.7894821E-02  1.8505857E-02  3.5139176E-02
   17.0000  3.7554367E-02  1.8579460E-02  3.5236007E-02
   17.2500  3.7150251E-02  1.8702140E-02  3.5277840E-02
   17.5000  3.6693388E-02  1.8870173E-02  3.5258877E-02
   17.7500  3.6198338E-02  1.9080487E-02  3.5177906E-02
   18.0000  3.5682103E-02  1.9330596E-02  3.5037628E-02
   18.2500  3.5162729E-02  1.9618533E-02  3.4843743E-02
   18.5000  3.4657915E-02  1.9942781E-02  3.4603938E-02
   18.7500  3.4183768E-02  2.0302215E-02  3.4326935E-02
   19.0000  3.3753841E-02  2.0696039E-02  3.4021660E-02
   19.2500  3.3378483E-02  2.1123750E-02  3.3696590E-02
   19.5000  3.3064510E-02  2.1585087E-02  3.3359261E-02
   19.7500  3.2815136E-02  2.2079915E-02  3.3015987E-02
   20.0000  3.2630122E-02  2.2607895E-02  3.2671869E-02
   21.0000  3.2435793E-02  2.5015198E-02  3.1363105E-02
   22.0000  3.2717940E-02  2.7745925E-02  3.0250982E-02
   23.0000  3.2848968E-02  3.0522345E-02  2.9300985E-02
   24.0000  3.2337769E-02  3.2964796E-02  2.8417837E-02
   25.0000  3.1082479E-02  3.4700172E-02  2.7559718E-02
   26.0000  2.9379420E-02  3.5564106E-02  2.6751063E-02
   27.0000  2.7686144E-02  3.5607849E-02  2.6043871E-02
   28.0000  2.6327062E-02  3.5020152E-02  2.5484168E-02
   29.0000  2.5389022E-02  3.4036889E-02  2.5092224E-02
   30.0000  2.4802183E-02  3.2863430E-02  2.4848870E-02
   31.0000  2.4447045E-02  3.1638431E-02  2.4699457E-02
   32.0000  2.4211494E-02  3.0435175E-02  2.4575916E-02
   33.0000  2.4008425E-02  2.9280356E-02  2.4419693E-02
   34.0000  2.3778280E-02  2.8175209E-02  2.4194319E-02
   35.0000  2.3488760E-02  2.7112398E-02  2.3887880E-02
   36.0000  2.3134171E-02  2.6087386E-02  2.3510452E-02
   37.0000  2.2732272E-02  2.5105610E-02  2.3090458E-02
   38.0000  2.2317815E-02  2.4187641E-02  2.2670238E-02
   39.0000  2.1934703E-02  2.3374527E-02  2.2297529E-02
   40.0000  2.1626059E-02  2.2726354E-02  2.2009906E-02
