    Energy   (100,001)      (010,001)      (001,110)   
  -25.0000  1.7281033E-04  1.7900884E-04  1.8087431E-04
  -24.0000  1.7875849E-04  1.8608716E-04  1.8703590E-04
  -23.0000  1.8509063E-04  1.9369067E-04  1.9359599E-04
  -22.0000  1.9184408E-04  2.0187798E-04  2.0059368E-04
  -21.0000  1.9906112E-04  2.1071659E-04  2.0807329E-04
  -20.0000  2.0678984E-04  2.2028459E-04  2.1608528E-04
  -19.0000  2.1508512E-04  2.3067282E-04  2.2468736E-04
  -18.0000  2.2400989E-04  2.4198753E-04  2.3394581E-04
  -17.0000  2.3363671E-04  2.5435375E-04  2.4393716E-04
  -16.0000  2.4404962E-04  2.6791954E-04  2.5475027E-04
  -15.0000  2.5534653E-04  2.8286150E-04  2.6648885E-04
  -14.0000  2.6764226E-04  2.9939189E-04  2.7927482E-04
  -13.0000  2.8107232E-04  3.1776790E-04  2.9325241E-04
  -12.0000  2.9579785E-04  3.3830412E-04  3.0859362E-04
  -11.0000  3.1201208E-04  3.6138909E-04  3.2550531E-04
  -10.0000  3.2994881E-04  3.8750816E-04  3.4423863E-04
  -9.00000  3.4989387E-04  4.1727504E-04  3.6510175E-04
  -8.00000  3.7220075E-04  4.5147650E-04  3.8847746E-04
  -7.00000  3.9731247E-04  4.9113707E-04  4.1484784E-04
  -6.00000  4.2579274E-04  5.3761460E-04  4.4482995E-04
  -5.00000  4.5837185E-04  5.9274575E-04  4.7922889E-04
  -4.00000  4.9601624E-04  6.5907453E-04  5.1911960E-04
  -3.00000  5.4003834E-04  7.4022511E-04  5.6597885E-04
  -2.00000  5.9227887E-04  8.4153918E-04  6.2191021E-04
  -1.00000  6.5542857E-04  9.7122969E-04  6.9005622E-04
   0.00000  7.3364436E-04  1.1426313E-03  7.7542791E-04
   1.00000  8.3386749E-04  1.3790528E-03  8.8680077E-04
   2.00000  9.6912267E-04  1.7258568E-03  1.0418924E-03
   3.00000  1.1689814E-03  2.2879647E-03  1.2856986E-03
   4.00000  1.5276950E-03  3.3966405E-03  1.7862102E-03
   5.00000  2.4561564E-03  6.4690445E-03  3.3281495E-03
   5.20000  2.7387836E-03  7.4313158E-03  3.7479006E-03
   5.40000  3.0183724E-03  8.4009127E-03  4.0872443E-03
   5.60000  3.2876720E-03  9.3572630E-03  4.3344767E-03
   5.80000  3.5511593E-03  1.0319335E-02  4.5114938E-03
   6.00000  3.8161861E-03  1.1317934E-02  4.6441597E-03
   6.20000  4.0891343E-03  1.2383008E-02  4.7516985E-03
   6.40000  4.3750181E-03  1.3541480E-02  4.8474327E-03
   6.60000  4.6780323E-03  1.4818212E-02  4.9419909E-03
   6.80000  5.0020758E-03  1.6237510E-02  5.0456950E-03
   7.00000  5.3510181E-03  1.7824430E-02  5.1694977E-03
   7.20000  5.7287272E-03  1.9605491E-02  5.3248296E-03
   7.40000  6.1389398E-03  2.1608888E-02  5.5229827E-03
   7.60000  6.5850249E-03  2.3864503E-02  5.7744882E-03
   7.80000  7.0696541E-03  2.6403556E-02  6.0886602E-03
   8.00000  7.5943902E-03  2.9257467E-02  6.4732890E-03
   8.20000  8.1592248E-03  3.2455221E-02  6.9344292E-03
   8.40000  8.7621252E-03  3.6018298E-02  7.4762424E-03
   8.60000  9.3986878E-03  3.9952016E-02  8.1008710E-03
   8.80000  1.0062060E-02  4.4232340E-02  8.8083130E-03
   9.00000  1.0743366E-02  4.8788156E-02  9.5962833E-03
   9.20000  1.1432861E-02  5.3481310E-02  1.0460109E-02
   9.40000  1.2121888E-02  5.8090890E-02  1.1392810E-02
   9.60000  1.2805342E-02  6.2313207E-02  1.2385618E-02
   9.80000  1.3483787E-02  6.5790549E-02  1.3429098E-02
   10.0000  1.4164030E-02  6.8173636E-02  1.4514765E-02
   10.2500  1.5034390E-02  6.9234766E-02  1.5922631E-02
   10.5000  1.5949637E-02  6.8055583E-02  1.7385234E-02
   10.7500  1.6927294E-02  6.4943275E-02  1.8911148E-02
   11.0000  1.7972362E-02  6.0508649E-02  2.0515580E-02
   11.2500  1.9077043E-02  5.5430547E-02  2.2211899E-02
   11.5000  2.0224501E-02  5.0272622E-02  2.4002730E-02
   11.7500  2.1393335E-02  4.5410551E-02  2.5873702E-02
   12.0000  2.2562217E-02  4.1043385E-02  2.7791330E-02
   12.2500  2.3714385E-02  3.7240228E-02  2.9704690E-02
   12.5000  2.4838975E-02  3.3990273E-02  3.1549552E-02
   12.7500  2.5928695E-02  3.1243576E-02  3.3256226E-02
   13.0000  2.6978272E-02  2.8937674E-02  3.4762091E-02
   13.2500  2.7985033E-02  2.7010412E-02  3.6024220E-02
   13.5000  2.8949525E-02  2.5404742E-02  3.7026849E-02
   13.7500  2.9875730E-02  2.4070483E-02  3.7781853E-02
   14.0000  3.0770747E-02  2.2964827E-02  3.8323355E-02
   14.2500  3.1643698E-02  2.2052044E-02  3.8699099E-02
   14.5000  3.2504166E-02  2.1302732E-02  3.8961396E-02
   14.7500  3.3360615E-02  2.0692902E-02  3.9159620E-02
   15.0000  3.4219089E-02  2.0203082E-02  3.9335110E-02
   15.2500  3.5082251E-02  1.9817520E-02  3.9518419E-02
   15.5000  3.5948814E-02  1.9523498E-02  3.9728406E-02
   15.7500  3.6813309E-02  1.9310772E-02  3.9972604E-02
   16.0000  3.7666233E-02  1.9171092E-02  4.0248462E-02
   16.2500  3.8494593E-02  1.9097811E-02  4.0545201E-02
   16.5000  3.9282870E-02  1.9085547E-02  4.0846144E-02
   16.7500  4.0014408E-02  1.9129905E-02  4.1131363E-02
   17.0000  4.0673125E-02  1.9227232E-02  4.1380428E-02
   17.2500  4.1245375E-02  1.9374425E-02  4.1574970E-02
   17.5000  4.1721685E-02  1.9568759E-02  4.1700747E-02
   17.7500  4.2098061E-02  1.9807759E-02  4.1748935E-02
   18.0000  4.2376606E-02  2.0089091E-02  4.1716550E-02
   18.2500  4.2565307E-02  2.0410490E-02  4.1606027E-02
   18.5000  4.2677048E-02  2.0769715E-02  4.1424180E-02
   18.7500  4.2728050E-02  2.1164530E-02  4.1180820E-02
   19.0000  4.2736033E-02  2.1592728E-02  4.0887306E-02
   19.2500  4.2718414E-02  2.2052181E-02  4.0555228E-02
   19.5000  4.2690777E-02  2.2540915E-02  4.0195366E-02
   19.7500  4.2665749E-02  2.3057092E-02  3.9817009E-02
   20.0000  4.2652387E-02  2.3598766E-02  3.9427789E-02
   21.0000  4.2778817E-02  2.5955965E-02  3.7876021E-02
   22.0000  4.3059040E-02  2.8424749E-02  3.6479784E-02
   23.0000  4.3041499E-02  3.0726371E-02  3.5259637E-02
   24.0000  4.2276339E-02  3.2564618E-02  3.4153636E-02
   25.0000  4.0579641E-02  3.3711798E-02  3.3101205E-02
   26.0000  3.8138331E-02  3.4102473E-02  3.2087227E-02
   27.0000  3.5407326E-02  3.3847596E-02  3.1159783E-02
   28.0000  3.2850098E-02  3.3157315E-02  3.0404347E-02
   29.0000  3.0743967E-02  3.2240160E-02  2.9888051E-02
   30.0000  2.9164584E-02  3.1250854E-02  2.9618478E-02
   31.0000  2.8060076E-02  3.0281452E-02  2.9541383E-02
   32.0000  2.7317053E-02  2.9357888E-02  2.9567616E-02
   33.0000  2.6818953E-02  2.8467098E-02  2.9611077E-02
   34.0000  2.6472567E-02  2.7584102E-02  2.9607614E-02
   35.0000  2.6209203E-02  2.6686979E-02  2.9514913E-02
   36.0000  2.5979045E-02  2.5766787E-02  2.9307387E-02
   37.0000  2.5746158E-02  2.4833851E-02  2.8975217E-02
   38.0000  2.5489204E-02  2.3921752E-02  2.8532142E-02
   39.0000  2.5211557E-02  2.3090424E-02  2.8031753E-02
   40.0000  2.4953128E-02  2.2419531E-02  2.7575534E-02
