    Energy   (100,001)      (010,001)      (001,110)   
  -25.0000  1.7315282E-04  1.8587224E-04  1.7669442E-04
  -24.0000  1.7920967E-04  1.9293643E-04  1.8281221E-04
  -23.0000  1.8566753E-04  2.0051155E-04  1.8933112E-04
  -22.0000  1.9256665E-04  2.0865366E-04  1.9629092E-04
  -21.0000  1.9995285E-04  2.1742721E-04  2.0373677E-04
  -20.0000  2.0787847E-04  2.2690666E-04  2.1172015E-04
  -19.0000  2.1640358E-04  2.3717844E-04  2.2030000E-04
  -18.0000  2.2559745E-04  2.4834351E-04  2.2954411E-04
  -17.0000  2.3554042E-04  2.6052047E-04  2.3953084E-04
  -16.0000  2.4632616E-04  2.7384951E-04  2.5035130E-04
  -15.0000  2.5806463E-04  2.8849759E-04  2.6211200E-04
  -14.0000  2.7088575E-04  3.0466498E-04  2.7493830E-04
  -13.0000  2.8494421E-04  3.2259402E-04  2.8897878E-04
  -12.0000  3.0042569E-04  3.4258053E-04  3.0441089E-04
  -11.0000  3.1755517E-04  3.6498936E-04  3.2144843E-04
  -10.0000  3.3660799E-04  3.9027550E-04  3.4035143E-04
  -9.00000  3.5792504E-04  4.1901345E-04  3.6143960E-04
  -8.00000  3.8193385E-04  4.5193881E-04  3.8511081E-04
  -7.00000  4.0917859E-04  4.9000839E-04  4.1186719E-04
  -6.00000  4.4036386E-04  5.3448947E-04  4.4235279E-04
  -5.00000  4.7642032E-04  5.8709583E-04  4.7740962E-04
  -4.00000  5.1860671E-04  6.5020238E-04  5.1816394E-04
  -3.00000  5.6867487E-04  7.2719740E-04  5.6616510E-04
  -2.00000  6.2915070E-04  8.2308927E-04  6.2362106E-04
  -1.00000  7.0384372E-04  9.4561671E-04  6.9382572E-04
   0.00000  7.9885035E-04  1.1074445E-03  7.8200652E-04
   1.00000  9.2476054E-04  1.3309848E-03  8.9721738E-04
   2.00000  1.1023323E-03  1.6606720E-03  1.0573339E-03
   3.00000  1.3809445E-03  2.2020623E-03  1.3059068E-03
   4.00000  1.9253308E-03  3.2998719E-03  1.7949021E-03
   5.00000  3.4714386E-03  6.4757108E-03  3.2221023E-03
   5.20000  3.9465400E-03  7.4891711E-03  3.6494786E-03
   5.40000  4.4084228E-03  8.5137151E-03  4.0486309E-03
   5.60000  4.8430024E-03  9.5221711E-03  4.4058707E-03
   5.80000  5.2578400E-03  1.0526259E-02  4.7293420E-03
   6.00000  5.6660984E-03  1.1548253E-02  5.0311650E-03
   6.20000  6.0797926E-03  1.2608046E-02  5.3203570E-03
   6.40000  6.5089426E-03  1.3720950E-02  5.6021643E-03
   6.60000  6.9622400E-03  1.4898784E-02  5.8790075E-03
   6.80000  7.4477548E-03  1.6151801E-02  6.1516681E-03
   7.00000  7.9733464E-03  1.7490681E-02  6.4205329E-03
   7.20000  8.5467711E-03  1.8927926E-02  6.6868163E-03
   7.40000  9.1755600E-03  2.0478341E-02  6.9535896E-03
   7.60000  9.8667002E-03  2.2158531E-02  7.2264120E-03
   7.80000  1.0626125E-02  2.3985334E-02  7.5134330E-03
   8.00000  1.1457994E-02  2.5973211E-02  7.8250153E-03
   8.20000  1.2363735E-02  2.8130974E-02  8.1730499E-03
   8.40000  1.3340861E-02  3.0458408E-02  8.5701712E-03
   8.60000  1.4381707E-02  3.2943350E-02  9.0290414E-03
   8.80000  1.5472402E-02  3.5559763E-02  9.5617635E-03
   9.00000  1.6592607E-02  3.8267532E-02  1.0179360E-02
   9.20000  1.7716546E-02  4.1014297E-02  1.0891206E-02
   9.40000  1.8815513E-02  4.3738842E-02  1.1704346E-02
   9.60000  1.9861443E-02  4.6374579E-02  1.2622749E-02
   9.80000  2.0830619E-02  4.8851466E-02  1.3646603E-02
   10.0000  2.1706390E-02  5.1095498E-02  1.4771732E-02
   10.2500  2.2657218E-02  5.3450753E-02  1.6306333E-02
   10.5000  2.3447255E-02  5.5149460E-02  1.7956265E-02
   10.7500  2.4086778E-02  5.6031451E-02  1.9683258E-02
   11.0000  2.4593103E-02  5.5984592E-02  2.1444475E-02
   11.2500  2.4987548E-02  5.4989678E-02  2.3200061E-02
   11.5000  2.5294574E-02  5.3142843E-02  2.4920194E-02
   11.7500  2.5541314E-02  5.0638486E-02  2.6588070E-02
   12.0000  2.5756215E-02  4.7719532E-02  2.8197010E-02
   12.2500  2.5967123E-02  4.4622102E-02  2.9743982E-02
   12.5000  2.6198390E-02  4.1538972E-02  3.1223474E-02
   12.7500  2.6468033E-02  3.8606712E-02  3.2623541E-02
   13.0000  2.6787056E-02  3.5908898E-02  3.3926011E-02
   13.2500  2.7160534E-02  3.3486606E-02  3.5111721E-02
   13.5000  2.7589179E-02  3.1350630E-02  3.6167368E-02
   13.7500  2.8070905E-02  2.9492464E-02  3.7089677E-02
   14.0000  2.8601976E-02  2.7892788E-02  3.7886096E-02
   14.2500  2.9177425E-02  2.6527318E-02  3.8572987E-02
   14.5000  2.9790846E-02  2.5370491E-02  3.9172241E-02
   14.7500  3.0433862E-02  2.4397555E-02  3.9707215E-02
   15.0000  3.1095720E-02  2.3585663E-02  4.0199060E-02
   15.2500  3.1763319E-02  2.2914374E-02  4.0664165E-02
   15.5000  3.2421622E-02  2.2365813E-02  4.1112821E-02
   15.7500  3.3054346E-02  2.1924614E-02  4.1548847E-02
   16.0000  3.3644900E-02  2.1577725E-02  4.1969951E-02
   16.2500  3.4177537E-02  2.1314138E-02  4.2368641E-02
   16.5000  3.4638663E-02  2.1124602E-02  4.2733581E-02
   16.7500  3.5018160E-02  2.1001324E-02  4.3051243E-02
   17.0000  3.5310504E-02  2.0937706E-02  4.3307726E-02
   17.2500  3.5515470E-02  2.0928102E-02  4.3490527E-02
   17.5000  3.5638264E-02  2.0967618E-02  4.3590017E-02
   17.7500  3.5689010E-02  2.1051944E-02  4.3600446E-02
   18.0000  3.5681693E-02  2.1177237E-02  4.3520326E-02
   18.2500  3.5632759E-02  2.1340027E-02  4.3352247E-02
   18.5000  3.5559621E-02  2.1537167E-02  4.3102231E-02
   18.7500  3.5479312E-02  2.1765806E-02  4.2778830E-02
   19.0000  3.5407426E-02  2.2023396E-02  4.2392141E-02
   19.2500  3.5357393E-02  2.2307723E-02  4.1952867E-02
   19.5000  3.5340066E-02  2.2616949E-02  4.1471507E-02
   19.7500  3.5363528E-02  2.2949603E-02  4.0957793E-02
   20.0000  3.5433089E-02  2.3304404E-02  4.0420581E-02
   21.0000  3.6196620E-02  2.4911368E-02  3.8200779E-02
   22.0000  3.7603903E-02  2.6731083E-02  3.6148577E-02
   23.0000  3.9226077E-02  2.8638462E-02  3.4400046E-02
   24.0000  4.0462918E-02  3.0461256E-02  3.2925201E-02
   25.0000  4.0751308E-02  3.2004071E-02  3.1645922E-02
   26.0000  3.9812607E-02  3.3121350E-02  3.0507021E-02
   27.0000  3.7797589E-02  3.3767433E-02  2.9502251E-02
   28.0000  3.5192669E-02  3.3981658E-02  2.8660486E-02
   29.0000  3.2552487E-02  3.3841911E-02  2.8010185E-02
   30.0000  3.0266966E-02  3.3431897E-02  2.7551723E-02
   31.0000  2.8491061E-02  3.2827223E-02  2.7253990E-02
   32.0000  2.7206266E-02  3.2089272E-02  2.7068364E-02
   33.0000  2.6316602E-02  3.1261865E-02  2.6944577E-02
   34.0000  2.5715362E-02  3.0372367E-02  2.6840059E-02
   35.0000  2.5311247E-02  2.9443097E-02  2.6723178E-02
   36.0000  2.5035129E-02  2.8500269E-02  2.6574671E-02
   37.0000  2.4844790E-02  2.7566269E-02  2.6389533E-02
   38.0000  2.4713968E-02  2.6670243E-02  2.6177590E-02
   39.0000  2.4621396E-02  2.5861663E-02  2.5963104E-02
   40.0000  2.4550744E-02  2.5211248E-02  2.5780044E-02
