    Energy   (100,001)      (010,001)      (001,110)   
  -25.0000  1.6429517E-04  1.8512856E-04  1.6758931E-04
  -24.0000  1.7049813E-04  1.9223438E-04  1.7394448E-04
  -23.0000  1.7713075E-04  1.9985982E-04  1.8074518E-04
  -22.0000  1.8423728E-04  2.0806253E-04  1.8803802E-04
  -21.0000  1.9186816E-04  2.1690886E-04  1.9587626E-04
  -20.0000  2.0008104E-04  2.2647557E-04  2.0432092E-04
  -19.0000  2.0894219E-04  2.3685194E-04  2.1344235E-04
  -18.0000  2.1852814E-04  2.4814237E-04  2.2332194E-04
  -17.0000  2.2892769E-04  2.6046972E-04  2.3405447E-04
  -16.0000  2.4024447E-04  2.7397949E-04  2.4575090E-04
  -15.0000  2.5260017E-04  2.8884524E-04  2.5854195E-04
  -14.0000  2.6613862E-04  3.0527560E-04  2.7258270E-04
  -13.0000  2.8103101E-04  3.2352347E-04  2.8805848E-04
  -12.0000  2.9748275E-04  3.4389826E-04  3.0519267E-04
  -11.0000  3.1574242E-04  3.6678237E-04  3.2425689E-04
  -10.0000  3.3611375E-04  3.9265374E-04  3.4558481E-04
  -9.00000  3.5897187E-04  4.2211721E-04  3.6959101E-04
  -8.00000  3.8478574E-04  4.5594900E-04  3.9679719E-04
  -7.00000  4.1414969E-04  4.9516106E-04  4.2786952E-04
  -6.00000  4.4782890E-04  5.4109656E-04  4.6367302E-04
  -5.00000  4.8682682E-04  5.9557548E-04  5.0535326E-04
  -4.00000  5.3248813E-04  6.6112380E-04  5.5446312E-04
  -3.00000  5.8666248E-04  7.4134860E-04  6.1316812E-04
  -2.00000  6.5197765E-04  8.4158065E-04  6.8459620E-04
  -1.00000  7.3232325E-04  9.7004036E-04  7.7347384E-04
   0.00000  8.3377857E-04  1.1401141E-03  8.8738521E-04
   1.00000  9.6659449E-04  1.3752570E-03  1.0395670E-03
   2.00000  1.1501317E-03  1.7211315E-03  1.2561986E-03
   3.00000  1.4283961E-03  2.2828046E-03  1.6005669E-03
   4.00000  1.9406710E-03  3.3862630E-03  2.2888807E-03
   5.00000  3.2964128E-03  6.4092820E-03  4.3332359E-03
   5.20000  3.7206019E-03  7.3769013E-03  4.9905543E-03
   5.40000  4.1474243E-03  8.3806681E-03  5.6313266E-03
   5.60000  4.5621193E-03  9.4041190E-03  6.2060332E-03
   5.80000  4.9657155E-03  1.0464525E-02  6.6933073E-03
   6.00000  5.3647723E-03  1.1590291E-02  7.0941634E-03
   6.20000  5.7664387E-03  1.2811296E-02  7.4272961E-03
   6.40000  6.1775972E-03  1.4157770E-02  7.7226570E-03
   6.60000  6.6052775E-03  1.5660857E-02  8.0134528E-03
   6.80000  7.0569744E-03  1.7352712E-02  8.3299237E-03
   7.00000  7.5404273E-03  1.9266084E-02  8.6967277E-03
   7.20000  8.0632125E-03  2.1432895E-02  9.1333064E-03
   7.40000  8.6326878E-03  2.3880215E-02  9.6554679E-03
   7.60000  9.2562569E-03  2.6622118E-02  1.0276808E-02
   7.80000  9.9415986E-03  2.9647028E-02  1.1009463E-02
   8.00000  1.0696705E-02  3.2902662E-02  1.1864168E-02
   8.20000  1.1529800E-02  3.6285404E-02  1.2849757E-02
   8.40000  1.2449209E-02  3.9646442E-02  1.3972212E-02
   8.60000  1.3463175E-02  4.2825352E-02  1.5233430E-02
   8.80000  1.4579523E-02  4.5703477E-02  1.6629886E-02
   9.00000  1.5805053E-02  4.8243188E-02  1.8151480E-02
   9.20000  1.7144657E-02  5.0478507E-02  1.9781144E-02
   9.40000  1.8600239E-02  5.2461403E-02  2.1496074E-02
   9.60000  2.0169516E-02  5.4205105E-02  2.3270888E-02
   9.80000  2.1844683E-02  5.5661014E-02  2.5081823E-02
   10.0000  2.3610697E-02  5.6733501E-02  2.6909972E-02
   10.2500  2.5907351E-02  5.7370976E-02  2.9198446E-02
   10.5000  2.8233133E-02  5.7084610E-02  3.1467383E-02
   10.7500  3.0488476E-02  5.5841212E-02  3.3680841E-02
   11.0000  3.2558839E-02  5.3741809E-02  3.5782730E-02
   11.2500  3.4334975E-02  5.0983156E-02  3.7699777E-02
   11.5000  3.5738337E-02  4.7804447E-02  3.9353094E-02
   11.7500  3.6741170E-02  4.4440369E-02  4.0674239E-02
   12.0000  3.7371429E-02  4.1088748E-02  4.1622099E-02
   12.2500  3.7699787E-02  3.7896163E-02  4.2192690E-02
   12.5000  3.7816851E-02  3.4957519E-02  4.2417332E-02
   12.7500  3.7813337E-02  3.2322977E-02  4.2352755E-02
   13.0000  3.7767857E-02  3.0008024E-02  4.2069599E-02
   13.2500  3.7741273E-02  2.8004214E-02  4.1643064E-02
   13.5000  3.7775460E-02  2.6289031E-02  4.1145206E-02
   13.7500  3.7894162E-02  2.4833792E-02  4.0637432E-02
   14.0000  3.8104979E-02  2.3608781E-02  4.0165592E-02
   14.2500  3.8402402E-02  2.2585846E-02  3.9760091E-02
   14.5000  3.8771061E-02  2.1739488E-02  3.9438797E-02
   14.7500  3.9188516E-02  2.1047248E-02  3.9209801E-02
   15.0000  3.9627628E-02  2.0489724E-02  3.9073266E-02
   15.2500  4.0058820E-02  2.0050368E-02  3.9022679E-02
   15.5000  4.0452384E-02  1.9715174E-02  3.9045856E-02
   15.7500  4.0780834E-02  1.9472319E-02  3.9125969E-02
   16.0000  4.1021142E-02  1.9311811E-02  3.9242733E-02
   16.2500  4.1156677E-02  1.9225165E-02  3.9373868E-02
   16.5000  4.1178630E-02  1.9205109E-02  3.9496794E-02
   16.7500  4.1086746E-02  1.9245339E-02  3.9590470E-02
   17.0000  4.0889229E-02  1.9340302E-02  3.9637133E-02
   17.2500  4.0601786E-02  1.9485032E-02  3.9623684E-02
   17.5000  4.0245925E-02  1.9675017E-02  3.9542507E-02
   17.7500  3.9846730E-02  1.9906110E-02  3.9391593E-02
   18.0000  3.9430433E-02  2.0174469E-02  3.9174014E-02
   18.2500  3.9022140E-02  2.0476526E-02  3.8896890E-02
   18.5000  3.8643979E-02  2.0808977E-02  3.8570088E-02
   18.7500  3.8313860E-02  2.1168789E-02  3.8204871E-02
   19.0000  3.8044855E-02  2.1553222E-02  3.7812681E-02
   19.2500  3.7845150E-02  2.1959874E-02  3.7404153E-02
   19.5000  3.7718383E-02  2.2386731E-02  3.6988400E-02
   19.7500  3.7664186E-02  2.2832146E-02  3.6572627E-02
   20.0000  3.7678711E-02  2.3294632E-02  3.6162140E-02
   21.0000  3.8255959E-02  2.5271928E-02  3.4637021E-02
   22.0000  3.9135793E-02  2.7336475E-02  3.3343790E-02
   23.0000  3.9573037E-02  2.9341075E-02  3.2218665E-02
   24.0000  3.8955207E-02  3.1123475E-02  3.1177475E-02
   25.0000  3.7107437E-02  3.2512829E-02  3.0182943E-02
   26.0000  3.4450230E-02  3.3381174E-02  2.9251199E-02
   27.0000  3.1654102E-02  3.3719997E-02  2.8419534E-02
   28.0000  2.9227880E-02  3.3610374E-02  2.7734218E-02
   29.0000  2.7368638E-02  3.3166852E-02  2.7228034E-02
   30.0000  2.6043793E-02  3.2499411E-02  2.6891123E-02
   31.0000  2.5125049E-02  3.1693392E-02  2.6665527E-02
   32.0000  2.4472631E-02  3.0807850E-02  2.6467190E-02
   33.0000  2.3968534E-02  2.9885045E-02  2.6215222E-02
   34.0000  2.3522690E-02  2.8961042E-02  2.5849668E-02
   35.0000  2.3070130E-02  2.8069564E-02  2.5336209E-02
   36.0000  2.2569238E-02  2.7236389E-02  2.4666634E-02
   37.0000  2.2005221E-02  2.6471450E-02  2.3862725E-02
   38.0000  2.1397032E-02  2.5772867E-02  2.2983335E-02
   39.0000  2.0800962E-02  2.5149553E-02  2.2127557E-02
   40.0000  2.0298542E-02  2.4642412E-02  2.1417552E-02
