    Energy   (100,001)      (010,001)      (001,110)   
  -25.0000  1.6367344E-04  1.7729848E-04  1.7113295E-04
  -24.0000  1.6967937E-04  1.8423852E-04  1.7742407E-04
  -23.0000  1.7609229E-04  1.9169008E-04  1.8414711E-04
  -22.0000  1.8295337E-04  1.9971001E-04  1.9134664E-04
  -21.0000  1.9030948E-04  2.0836374E-04  1.9907344E-04
  -20.0000  1.9821411E-04  2.1772700E-04  2.0738571E-04
  -19.0000  2.0672859E-04  2.2788779E-04  2.1635040E-04
  -18.0000  2.1592364E-04  2.3894906E-04  2.2604491E-04
  -17.0000  2.2588114E-04  2.5103189E-04  2.3655924E-04
  -16.0000  2.3669647E-04  2.6427968E-04  2.4799864E-04
  -15.0000  2.4848136E-04  2.7886342E-04  2.6048696E-04
  -14.0000  2.6136759E-04  2.9498860E-04  2.7417098E-04
  -13.0000  2.7551166E-04  3.1290424E-04  2.8922593E-04
  -12.0000  2.9110087E-04  3.3291489E-04  3.0586282E-04
  -11.0000  3.0836137E-04  3.5539681E-04  3.2433805E-04
  -10.0000  3.2756878E-04  3.8082012E-04  3.4496644E-04
  -9.00000  3.4906261E-04  4.0977950E-04  3.6813903E-04
  -8.00000  3.7326622E-04  4.4303785E-04  3.9434790E-04
  -7.00000  4.0071472E-04  4.8158944E-04  4.2422170E-04
  -6.00000  4.3209529E-04  5.2675354E-04  4.5857757E-04
  -5.00000  4.6830684E-04  5.8031736E-04  4.9849940E-04
  -4.00000  5.1055130E-04  6.4476132E-04  5.4546014E-04
  -3.00000  5.6047896E-04  7.2362819E-04  6.0152090E-04
  -2.00000  6.2043170E-04  8.2215712E-04  6.6967230E-04
  -1.00000  6.9387616E-04  9.4843810E-04  7.5445862E-04
   0.00000  7.8624120E-04  1.1156784E-03  8.6321673E-04
   1.00000  9.0672800E-04  1.3471233E-03  1.0088191E-03
   2.00000  1.0728951E-03  1.6883864E-03  1.2167361E-03
   3.00000  1.3254107E-03  2.2458792E-03  1.5477260E-03
   4.00000  1.7970746E-03  3.3573005E-03  2.2006464E-03
   5.00000  3.0730426E-03  6.4776173E-03  4.0721597E-03
   5.20000  3.4581551E-03  7.4755344E-03  4.7052884E-03
   5.40000  3.8309971E-03  8.5017580E-03  5.3892860E-03
   5.60000  4.1823438E-03  9.5384218E-03  6.1150304E-03
   5.80000  4.5217397E-03  1.0602624E-02  6.8817649E-03
   6.00000  4.8627348E-03  1.1717328E-02  7.6768834E-03
   6.20000  5.2154318E-03  1.2897062E-02  8.4652378E-03
   6.40000  5.5847405E-03  1.4146853E-02  9.1921851E-03
   6.60000  5.9716015E-03  1.5469687E-02  9.8015390E-03
   6.80000  6.3758739E-03  1.6878011E-02  1.0261036E-02
   7.00000  6.7990913E-03  1.8401442E-02  1.0577731E-02
   7.20000  7.2454640E-03  2.0084636E-02  1.0792161E-02
   7.40000  7.7213713E-03  2.1977733E-02  1.0959574E-02
   7.60000  8.2347296E-03  2.4126364E-02  1.1134034E-02
   7.80000  8.7946942E-03  2.6564854E-02  1.1361519E-02
   8.00000  9.4109837E-03  2.9311698E-02  1.1678636E-02
   8.20000  1.0092216E-02  3.2364881E-02  1.2112552E-02
   8.40000  1.0843497E-02  3.5695516E-02  1.2680482E-02
   8.60000  1.1664229E-02  3.9240657E-02  1.3388964E-02
   8.80000  1.2547505E-02  4.2898757E-02  1.4233740E-02
   9.00000  1.3482319E-02  4.6532342E-02  1.5201174E-02
   9.20000  1.4458606E-02  4.9979660E-02  1.6271553E-02
   9.40000  1.5472789E-02  5.3071661E-02  1.7423657E-02
   9.60000  1.6530090E-02  5.5648589E-02  1.8639143E-02
   9.80000  1.7642254E-02  5.7574926E-02  1.9904350E-02
   10.0000  1.8822880E-02  5.8754349E-02  2.1208135E-02
   10.2500  2.0410358E-02  5.9116012E-02  2.2872767E-02
   10.5000  2.2123666E-02  5.8282769E-02  2.4545822E-02
   10.7500  2.3935016E-02  5.6411983E-02  2.6188583E-02
   11.0000  2.5780228E-02  5.3738572E-02  2.7761783E-02
   11.2500  2.7569171E-02  5.0528586E-02  2.9232416E-02
   11.5000  2.9209734E-02  4.7041363E-02  3.0578258E-02
   11.7500  3.0633953E-02  4.3502403E-02  3.1788896E-02
   12.0000  3.1815182E-02  4.0087339E-02  3.2864188E-02
   12.2500  3.2770093E-02  3.6916041E-02  3.3811626E-02
   12.5000  3.3547213E-02  3.4055763E-02  3.4643824E-02
   12.7500  3.4208695E-02  3.1531978E-02  3.5376553E-02
   13.0000  3.4813157E-02  2.9342219E-02  3.6027451E-02
   13.2500  3.5405291E-02  2.7467466E-02  3.6615132E-02
   13.5000  3.6012707E-02  2.5879985E-02  3.7157687E-02
   13.7500  3.6647254E-02  2.4548664E-02  3.7671077E-02
   14.0000  3.7308405E-02  2.3442530E-02  3.8169007E-02
   14.2500  3.7986982E-02  2.2532777E-02  3.8663497E-02
   14.5000  3.8668049E-02  2.1793596E-02  3.9164123E-02
   14.7500  3.9333031E-02  2.1202293E-02  3.9676348E-02
   15.0000  3.9961511E-02  2.0739128E-02  4.0200277E-02
   15.2500  4.0532829E-02  2.0387105E-02  4.0730214E-02
   15.5000  4.1027468E-02  2.0131762E-02  4.1254858E-02
   15.7500  4.1428170E-02  1.9960981E-02  4.1757976E-02
   16.0000  4.1720818E-02  1.9864795E-02  4.2219529E-02
   16.2500  4.1895109E-02  1.9835188E-02  4.2617266E-02
   16.5000  4.1945081E-02  1.9865866E-02  4.2928782E-02
   16.7500  4.1869483E-02  1.9951984E-02  4.3133880E-02
   17.0000  4.1671961E-02  2.0089836E-02  4.3216988E-02
   17.2500  4.1361005E-02  2.0276523E-02  4.3169208E-02
   17.5000  4.0949596E-02  2.0509610E-02  4.2989591E-02
   17.7500  4.0454508E-02  2.0786820E-02  4.2685337E-02
   18.0000  3.9895308E-02  2.1105780E-02  4.2270865E-02
   18.2500  3.9293142E-02  2.1463842E-02  4.1765966E-02
   18.5000  3.8669444E-02  2.1857999E-02  4.1193432E-02
   18.7500  3.8044721E-02  2.2284888E-02  4.0576650E-02
   19.0000  3.7437526E-02  2.2740876E-02  3.9937517E-02
   19.2500  3.6863680E-02  2.3222221E-02  3.9294904E-02
   19.5000  3.6335764E-02  2.3725278E-02  3.8663732E-02
   19.7500  3.5862924E-02  2.4246616E-02  3.8054660E-02
   20.0000  3.5451053E-02  2.4782890E-02  3.7474442E-02
   21.0000  3.4454734E-02  2.6994509E-02  3.5494174E-02
   22.0000  3.4421029E-02  2.9117573E-02  3.4026475E-02
   23.0000  3.4992443E-02  3.0954472E-02  3.2897921E-02
   24.0000  3.5651325E-02  3.2350098E-02  3.1948865E-02
   25.0000  3.5897778E-02  3.3199750E-02  3.1085147E-02
   26.0000  3.5463054E-02  3.3490664E-02  3.0271001E-02
   27.0000  3.4418656E-02  3.3311509E-02  2.9516585E-02
   28.0000  3.3032904E-02  3.2793957E-02  2.8845545E-02
   29.0000  3.1580991E-02  3.2054313E-02  2.8277673E-02
   30.0000  3.0237785E-02  3.1177539E-02  2.7815137E-02
   31.0000  2.9066270E-02  3.0223410E-02  2.7436099E-02
   32.0000  2.8054418E-02  2.9233327E-02  2.7102629E-02
   33.0000  2.7155606E-02  2.8234540E-02  2.6773412E-02
   34.0000  2.6316123E-02  2.7244514E-02  2.6412008E-02
   35.0000  2.5490812E-02  2.6276548E-02  2.5989783E-02
   36.0000  2.4652929E-02  2.5344856E-02  2.5487864E-02
   37.0000  2.3801299E-02  2.4467344E-02  2.4902035E-02
   38.0000  2.2964250E-02  2.3667090E-02  2.4252374E-02
   39.0000  2.2198868E-02  2.2975571E-02  2.3596676E-02
   40.0000  2.1579404E-02  2.2433190E-02  2.3032390E-02
