    Energy   (100,001)      (010,001)      (001,110)   
  -25.0000  1.6695705E-04  1.9188387E-04  1.8398012E-04
  -24.0000  1.7292198E-04  1.9882100E-04  1.9062427E-04
  -23.0000  1.7928363E-04  2.0624261E-04  1.9772571E-04
  -22.0000  1.8608155E-04  2.1420047E-04  2.0533225E-04
  -21.0000  1.9336068E-04  2.2275389E-04  2.1349860E-04
  -20.0000  2.0117223E-04  2.3197122E-04  2.2228756E-04
  -19.0000  2.0957484E-04  2.4193153E-04  2.3177162E-04
  -18.0000  2.1863598E-04  2.5272687E-04  2.4203489E-04
  -17.0000  2.2843365E-04  2.6446497E-04  2.5317549E-04
  -16.0000  2.3905850E-04  2.7727268E-04  2.6530866E-04
  -15.0000  2.5061657E-04  2.9130047E-04  2.7857061E-04
  -14.0000  2.6323262E-04  3.0672804E-04  2.9312355E-04
  -13.0000  2.7705449E-04  3.2377175E-04  3.0916222E-04
  -12.0000  2.9225875E-04  3.4269443E-04  3.2692249E-04
  -11.0000  3.0905802E-04  3.6381842E-04  3.4669293E-04
  -10.0000  3.2771082E-04  3.8754325E-04  3.6883045E-04
  -9.00000  3.4853471E-04  4.1437008E-04  3.9378208E-04
  -8.00000  3.7192453E-04  4.4493590E-04  4.2211560E-04
  -7.00000  3.9837781E-04  4.8006260E-04  4.5456393E-04
  -6.00000  4.2853138E-04  5.2082896E-04  4.9209089E-04
  -5.00000  4.6321527E-04  5.6867906E-04  5.3599200E-04
  -4.00000  5.0353494E-04  6.2559128E-04  5.8805433E-04
  -3.00000  5.5100157E-04  6.9435147E-04  6.5082153E-04
  -2.00000  6.0774875E-04  7.7901632E-04  7.2805703E-04
  -1.00000  6.7691603E-04  8.8574681E-04  8.2560898E-04
   0.00000  7.6338399E-04  1.0244273E-03  9.5316745E-04
   1.00000  8.7534674E-04  1.2121571E-03  1.1282585E-03
   2.00000  1.0282432E-03  1.4820000E-03  1.3868505E-03
   3.00000  1.2572065E-03  1.9105762E-03  1.8187957E-03
   4.00000  1.6742805E-03  2.7438424E-03  2.7369701E-03
   5.00000  2.7682472E-03  5.0491118E-03  5.5912520E-03
   5.20000  3.1022624E-03  5.7580446E-03  6.5098979E-03
   5.40000  3.4319298E-03  6.4563152E-03  7.4222390E-03
   5.60000  3.7474954E-03  7.1264770E-03  8.2964255E-03
   5.80000  4.0532332E-03  7.7828651E-03  9.1384763E-03
   6.00000  4.3576716E-03  8.4483406E-03  9.9606222E-03
   6.20000  4.6693473E-03  9.1438523E-03  1.0764571E-02
   6.40000  4.9961036E-03  9.8869027E-03  1.1539272E-02
   6.60000  5.3449950E-03  1.0692613E-02  1.2268815E-02
   6.80000  5.7219048E-03  1.1574869E-02  1.2946280E-02
   7.00000  6.1312444E-03  1.2546924E-02  1.3584361E-02
   7.20000  6.5763618E-03  1.3621601E-02  1.4213128E-02
   7.40000  7.0606662E-03  1.4811415E-02  1.4865811E-02
   7.60000  7.5887421E-03  1.6128792E-02  1.5563918E-02
   7.80000  8.1666777E-03  1.7586411E-02  1.6311204E-02
   8.00000  8.8013080E-03  1.9197708E-02  1.7097065E-02
   8.20000  9.4985354E-03  2.0977350E-02  1.7904155E-02
   8.40000  1.0261246E-02  2.2941137E-02  1.8714695E-02
   8.60000  1.1087589E-02  2.5104514E-02  1.9512895E-02
   8.80000  1.1970440E-02  2.7479043E-02  2.0284660E-02
   9.00000  1.2898562E-02  3.0067263E-02  2.1017798E-02
   9.20000  1.3859443E-02  3.2857745E-02  2.1704861E-02
   9.40000  1.4842907E-02  3.5822503E-02  2.2347707E-02
   9.60000  1.5844012E-02  3.8917781E-02  2.2960463E-02
   9.80000  1.6863940E-02  4.2087017E-02  2.3568197E-02
   10.0000  1.7908500E-02  4.5262289E-02  2.4201434E-02
   10.2500  1.9259145E-02  4.9111887E-02  2.5070807E-02
   10.5000  2.0664649E-02  5.2630698E-02  2.6054477E-02
   10.7500  2.2114961E-02  5.5551658E-02  2.7148094E-02
   11.0000  2.3582592E-02  5.7578123E-02  2.8316013E-02
   11.2500  2.5025875E-02  5.8456171E-02  2.9503770E-02
   11.5000  2.6394818E-02  5.8064696E-02  3.0650483E-02
   11.7500  2.7640396E-02  5.6469351E-02  3.1702441E-02
   12.0000  2.8724817E-02  5.3906365E-02  3.2626176E-02
   12.2500  2.9626730E-02  5.0708150E-02  3.3408870E-02
   12.5000  3.0342913E-02  4.7212604E-02  3.4049699E-02
   12.7500  3.0889212E-02  4.3697508E-02  3.4555674E-02
   13.0000  3.1297836E-02  4.0354493E-02  3.4941995E-02
   13.2500  3.1610714E-02  3.7293453E-02  3.5231575E-02
   13.5000  3.1872422E-02  3.4561806E-02  3.5452484E-02
   13.7500  3.2124228E-02  3.2166106E-02  3.5634737E-02
   14.0000  3.2399740E-02  3.0089646E-02  3.5807563E-02
   14.2500  3.2722826E-02  2.8304458E-02  3.5997109E-02
   14.5000  3.3107489E-02  2.6778612E-02  3.6224492E-02
   14.7500  3.3558784E-02  2.5480277E-02  3.6504336E-02
   15.0000  3.4074100E-02  2.4379814E-02  3.6843934E-02
   15.2500  3.4644587E-02  2.3450700E-02  3.7242944E-02
   15.5000  3.5256617E-02  2.2669793E-02  3.7693565E-02
   15.7500  3.5893280E-02  2.2017261E-02  3.8181132E-02
   16.0000  3.6535890E-02  2.1476329E-02  3.8685159E-02
   16.2500  3.7165474E-02  2.1032973E-02  3.9180839E-02
   16.5000  3.7764193E-02  2.0675599E-02  3.9640993E-02
   16.7500  3.8316604E-02  2.0394726E-02  4.0038396E-02
   17.0000  3.8810705E-02  2.0182688E-02  4.0348263E-02
   17.2500  3.9238663E-02  2.0033337E-02  4.0550622E-02
   17.5000  3.9597207E-02  1.9941756E-02  4.0632215E-02
   17.7500  3.9887642E-02  1.9903990E-02  4.0587615E-02
   18.0000  4.0115497E-02  1.9916789E-02  4.0419389E-02
   18.2500  4.0289841E-02  1.9977406E-02  4.0137309E-02
   18.5000  4.0422323E-02  2.0083420E-02  3.9756801E-02
   18.7500  4.0526047E-02  2.0232635E-02  3.9296959E-02
   19.0000  4.0614398E-02  2.0423018E-02  3.8778447E-02
   19.2500  4.0699943E-02  2.0652697E-02  3.8221574E-02
   19.5000  4.0793489E-02  2.0919988E-02  3.7644735E-02
   19.7500  4.0903342E-02  2.1223376E-02  3.7063396E-02
   20.0000  4.1034791E-02  2.1561350E-02  3.6489836E-02
   21.0000  4.1773876E-02  2.3215744E-02  3.4440211E-02
   22.0000  4.2578732E-02  2.5233609E-02  3.2957146E-02
   23.0000  4.2817990E-02  2.7434420E-02  3.1981903E-02
   24.0000  4.1924593E-02  2.9595391E-02  3.1333928E-02
   25.0000  3.9799271E-02  3.1489354E-02  3.0840729E-02
   26.0000  3.6883326E-02  3.2944647E-02  3.0372093E-02
   27.0000  3.3840211E-02  3.3882684E-02  2.9851030E-02
   28.0000  3.1154389E-02  3.4316805E-02  2.9260815E-02
   29.0000  2.8997028E-02  3.4333922E-02  2.8644741E-02
   30.0000  2.7340986E-02  3.4065154E-02  2.8077136E-02
   31.0000  2.6090216E-02  3.3629863E-02  2.7607137E-02
   32.0000  2.5157393E-02  3.3111070E-02  2.7250076E-02
   33.0000  2.4473145E-02  3.2553483E-02  2.6997264E-02
   34.0000  2.3974357E-02  3.1971451E-02  2.6823034E-02
   35.0000  2.3602589E-02  3.1363757E-02  2.6692100E-02
   36.0000  2.3308233E-02  3.0727863E-02  2.6567090E-02
   37.0000  2.3054756E-02  3.0069757E-02  2.6416642E-02
   38.0000  2.2821629E-02  2.9410362E-02  2.6224712E-02
   39.0000  2.2606322E-02  2.8792445E-02  2.6001789E-02
   40.0000  2.2423101E-02  2.8283577E-02  2.5791100E-02
