    Energy   (100,001)      (010,001)      (001,110)   
  -25.0000  1.6710390E-04  1.8290594E-04  1.6982283E-04
  -24.0000  1.7334609E-04  1.8997148E-04  1.7615845E-04
  -23.0000  1.8001895E-04  1.9755453E-04  1.8293231E-04
  -22.0000  1.8716685E-04  2.0571246E-04  1.9018971E-04
  -21.0000  1.9484036E-04  2.1451129E-04  1.9798231E-04
  -20.0000  2.0309733E-04  2.2402737E-04  2.0636925E-04
  -19.0000  2.1200428E-04  2.3434948E-04  2.1541855E-04
  -18.0000  2.2163805E-04  2.4558142E-04  2.2520881E-04
  -17.0000  2.3208788E-04  2.5784529E-04  2.3583139E-04
  -16.0000  2.4345799E-04  2.7128564E-04  2.4739299E-04
  -15.0000  2.5587085E-04  2.8607485E-04  2.6001911E-04
  -14.0000  2.6947133E-04  3.0242004E-04  2.7385825E-04
  -13.0000  2.8443206E-04  3.2057217E-04  2.8908752E-04
  -12.0000  3.0096042E-04  3.4083816E-04  3.0591975E-04
  -11.0000  3.1930769E-04  3.6359718E-04  3.2461308E-04
  -10.0000  3.3978139E-04  3.8932288E-04  3.4548366E-04
  -9.00000  3.6276201E-04  4.1861447E-04  3.6892298E-04
  -8.00000  3.8872611E-04  4.5224056E-04  3.9542198E-04
  -7.00000  4.1827905E-04  4.9120284E-04  4.2560511E-04
  -6.00000  4.5220224E-04  5.3683047E-04  4.6027977E-04
  -5.00000  4.9152338E-04  5.9092415E-04  5.0051023E-04
  -4.00000  5.3762431E-04  6.5598335E-04  5.4773171E-04
  -3.00000  5.9241307E-04  7.3557898E-04  6.0393399E-04
  -2.00000  6.5861202E-04  8.3499420E-04  6.7197235E-04
  -1.00000  7.4027025E-04  9.6239378E-04  7.5612864E-04
   0.00000  8.4374982E-04  1.1311265E-03  8.6321217E-04
   1.00000  9.7983858E-04  1.3647494E-03  1.0049769E-03
   2.00000  1.1690242E-03  1.7097158E-03  1.2043405E-03
   3.00000  1.4580997E-03  2.2754144E-03  1.5156465E-03
   4.00000  1.9957102E-03  3.4149930E-03  2.1198727E-03
   5.00000  3.4284552E-03  6.6730655E-03  3.8312721E-03
   5.20000  3.8727269E-03  7.7072425E-03  4.3682742E-03
   5.40000  4.3177254E-03  8.7483796E-03  4.9053954E-03
   5.60000  4.7509135E-03  9.7657078E-03  5.4305766E-03
   5.80000  5.1762100E-03  1.0770112E-02  5.9492749E-03
   6.00000  5.6024101E-03  1.1787182E-02  6.4631943E-03
   6.20000  6.0386792E-03  1.2844218E-02  6.9623081E-03
   6.40000  6.4938435E-03  1.3967240E-02  7.4289679E-03
   6.60000  6.9761267E-03  1.5181497E-02  7.8481461E-03
   6.80000  7.4928248E-03  1.6513079E-02  8.2172122E-03
   7.00000  8.0502114E-03  1.7990436E-02  8.5494827E-03
   7.20000  8.6538065E-03  1.9645120E-02  8.8704499E-03
   7.40000  9.3089006E-03  2.1511538E-02  9.2106082E-03
   7.60000  1.0021147E-02  2.3625565E-02  9.5995332E-03
   7.80000  1.0797075E-02  2.6021680E-02  1.0063087E-02
   8.00000  1.1644445E-02  2.8728257E-02  1.0623017E-02
   8.20000  1.2572343E-02  3.1760990E-02  1.1297447E-02
   8.40000  1.3590966E-02  3.5115180E-02  1.2101201E-02
   8.60000  1.4710892E-02  3.8758265E-02  1.3045557E-02
   8.80000  1.5941682E-02  4.2623654E-02  1.4137387E-02
   9.00000  1.7289805E-02  4.6605511E-02  1.5377872E-02
   9.20000  1.8756081E-02  5.0553012E-02  1.6761033E-02
   9.40000  2.0332913E-02  5.4265475E-02  1.8272539E-02
   9.60000  2.2001789E-02  5.7497195E-02  1.9889557E-02
   9.80000  2.3731901E-02  5.9985142E-02  2.1582498E-02
   10.0000  2.5480862E-02  6.1503504E-02  2.3318908E-02
   10.2500  2.7616477E-02  6.1859900E-02  2.5504622E-02
   10.5000  2.9603003E-02  6.0574185E-02  2.7664626E-02
   10.7500  3.1360075E-02  5.7994781E-02  2.9769620E-02
   11.0000  3.2838689E-02  5.4597313E-02  3.1801104E-02
   11.2500  3.4018396E-02  5.0819765E-02  3.3738013E-02
   11.5000  3.4899525E-02  4.6983906E-02  3.5545608E-02
   11.7500  3.5498954E-02  4.3295498E-02  3.7174670E-02
   12.0000  3.5849697E-02  3.9874343E-02  3.8571631E-02
   12.2500  3.5999618E-02  3.6782349E-02  3.9693961E-02
   12.5000  3.6006155E-02  3.4042176E-02  4.0523145E-02
   12.7500  3.5928998E-02  3.1649848E-02  4.1069963E-02
   13.0000  3.5823266E-02  2.9584702E-02  4.1371785E-02
   13.2500  3.5734539E-02  2.7817351E-02  4.1484294E-02
   13.5000  3.5696261E-02  2.6315213E-02  4.1470510E-02
   13.7500  3.5729469E-02  2.5046057E-02  4.1390600E-02
   14.0000  3.5844248E-02  2.3980079E-02  4.1295251E-02
   14.2500  3.6041839E-02  2.3090773E-02  4.1222807E-02
   14.5000  3.6316613E-02  2.2355045E-02  4.1198856E-02
   14.7500  3.6657601E-02  2.1753012E-02  4.1237050E-02
   15.0000  3.7049630E-02  2.1267683E-02  4.1340457E-02
   15.2500  3.7474235E-02  2.0884624E-02  4.1503086E-02
   15.5000  3.7910532E-02  2.0591605E-02  4.1711524E-02
   15.7500  3.8336221E-02  2.0378290E-02  4.1946684E-02
   16.0000  3.8728799E-02  2.0235950E-02  4.2185758E-02
   16.2500  3.9067006E-02  2.0157219E-02  4.2404407E-02
   16.5000  3.9332434E-02  2.0135888E-02  4.2579083E-02
   16.7500  3.9511135E-02  2.0166723E-02  4.2689268E-02
   17.0000  3.9594949E-02  2.0245315E-02  4.2719311E-02
   17.2500  3.9582330E-02  2.0367932E-02  4.2659605E-02
   17.5000  3.9478466E-02  2.0531400E-02  4.2506929E-02
   17.7500  3.9294663E-02  2.0732979E-02  4.2264014E-02
   18.0000  3.9047064E-02  2.0970263E-02  4.1938484E-02
   18.2500  3.8754958E-02  2.1241092E-02  4.1541466E-02
   18.5000  3.8438931E-02  2.1543489E-02  4.1086120E-02
   18.7500  3.8119142E-02  2.1875617E-02  4.0586302E-02
   19.0000  3.7813908E-02  2.2235766E-02  4.0055459E-02
   19.2500  3.7538693E-02  2.2622375E-02  3.9505798E-02
   19.5000  3.7305491E-02  2.3034059E-02  3.8947712E-02
   19.7500  3.7122563E-02  2.3469589E-02  3.8389508E-02
   20.0000  3.6994482E-02  2.3927665E-02  3.7837557E-02
   21.0000  3.7019276E-02  2.5938628E-02  3.5783024E-02
   22.0000  3.7654782E-02  2.8089463E-02  3.4075942E-02
   23.0000  3.8329657E-02  3.0160454E-02  3.2677255E-02
   24.0000  3.8409036E-02  3.1905750E-02  3.1472183E-02
   25.0000  3.7468650E-02  3.3119038E-02  3.0365619E-02
   26.0000  3.5545892E-02  3.3707809E-02  2.9331508E-02
   27.0000  3.3127929E-02  3.3721123E-02  2.8414297E-02
   28.0000  3.0756912E-02  3.3306903E-02  2.7667866E-02
   29.0000  2.8768571E-02  3.2632822E-02  2.7124128E-02
   30.0000  2.7266270E-02  3.1834144E-02  2.6776967E-02
   31.0000  2.6200450E-02  3.0996971E-02  2.6577031E-02
   32.0000  2.5456064E-02  3.0162859E-02  2.6446625E-02
   33.0000  2.4909216E-02  2.9342849E-02  2.6303157E-02
   34.0000  2.4454671E-02  2.8532740E-02  2.6076563E-02
   35.0000  2.4014543E-02  2.7725325E-02  2.5717428E-02
   36.0000  2.3538281E-02  2.6917976E-02  2.5200768E-02
   37.0000  2.3002436E-02  2.6116161E-02  2.4531710E-02
   38.0000  2.2415034E-02  2.5336655E-02  2.3754610E-02
   39.0000  2.1823748E-02  2.4617485E-02  2.2961637E-02
   40.0000  2.1313396E-02  2.4026339E-02  2.2282925E-02
