    Energy   (100,001)      (010,001)      (001,110)   
  -25.0000  1.7203221E-04  1.8001269E-04  1.7490876E-04
  -24.0000  1.7836122E-04  1.8694176E-04  1.8125935E-04
  -23.0000  1.8512638E-04  1.9437490E-04  1.8804401E-04
  -22.0000  1.9237294E-04  2.0236752E-04  1.9530745E-04
  -21.0000  2.0015253E-04  2.1098333E-04  2.0310063E-04
  -20.0000  2.0852435E-04  2.2029595E-04  2.1148190E-04
  -19.0000  2.1755657E-04  2.3039082E-04  2.2051837E-04
  -18.0000  2.2732809E-04  2.4136774E-04  2.3028759E-04
  -17.0000  2.3793074E-04  2.5334390E-04  2.4087970E-04
  -16.0000  2.4947201E-04  2.6645787E-04  2.5240002E-04
  -15.0000  2.6207854E-04  2.8087456E-04  2.6497239E-04
  -14.0000  2.7590056E-04  2.9679179E-04  2.7874342E-04
  -13.0000  2.9111767E-04  3.1444879E-04  2.9388792E-04
  -12.0000  3.0794629E-04  3.3413751E-04  3.1061603E-04
  -11.0000  3.2664975E-04  3.5621776E-04  3.2918260E-04
  -10.0000  3.4755162E-04  3.8113795E-04  3.4989974E-04
  -9.00000  3.7105408E-04  4.0946375E-04  3.7315382E-04
  -8.00000  3.9766349E-04  4.4191864E-04  3.9942912E-04
  -7.00000  4.2802672E-04  4.7944242E-04  4.2934106E-04
  -6.00000  4.6298398E-04  5.2327764E-04  4.6368414E-04
  -5.00000  5.0364797E-04  5.7510107E-04  5.0350309E-04
  -4.00000  5.5152620E-04  6.3722997E-04  5.5020150E-04
  -3.00000  6.0871739E-04  7.1295899E-04  6.0571394E-04
  -2.00000  6.7824242E-04  8.0713637E-04  6.7279160E-04
  -1.00000  7.6463545E-04  9.2720969E-04  7.5550319E-04
   0.00000  8.7508374E-04  1.0852731E-03  8.6018013E-04
   1.00000  1.0218641E-03  1.3025051E-03  9.9738410E-04
   2.00000  1.2283744E-03  1.6202915E-03  1.1866182E-03
   3.00000  1.5478270E-03  2.1349780E-03  1.4703017E-03
   4.00000  2.1465219E-03  3.1527123E-03  1.9724920E-03
   5.00000  3.7328087E-03  5.9999343E-03  3.2036038E-03
   5.20000  4.2224402E-03  6.9126618E-03  3.5992805E-03
   5.40000  4.7127023E-03  7.8514340E-03  4.0238625E-03
   5.60000  5.1919020E-03  8.7964770E-03  4.4712012E-03
   5.80000  5.6695431E-03  9.7596703E-03  4.9434700E-03
   6.00000  6.1635069E-03  1.0760600E-02  5.4443602E-03
   6.20000  6.6944933E-03  1.1815085E-02  5.9763262E-03
   6.40000  7.2851387E-03  1.2932648E-02  6.5407253E-03
   6.60000  7.9595902E-03  1.4117034E-02  7.1386488E-03
   6.80000  8.7416470E-03  1.5367878E-02  7.7714749E-03
   7.00000  9.6510939E-03  1.6683718E-02  8.4411744E-03
   7.20000  1.0699225E-02  1.8067021E-02  9.1509618E-03
   7.40000  1.1885570E-02  1.9529988E-02  9.9068268E-03
   7.60000  1.3197164E-02  2.1097723E-02  1.0719778E-02
   7.80000  1.4609640E-02  2.2806136E-02  1.1607571E-02
   8.00000  1.6088282E-02  2.4695422E-02  1.2594303E-02
   8.20000  1.7588446E-02  2.6802664E-02  1.3707071E-02
   8.40000  1.9056871E-02  2.9156672E-02  1.4970086E-02
   8.60000  2.0436680E-02  3.1775733E-02  1.6397456E-02
   8.80000  2.1678077E-02  3.4666713E-02  1.7986198E-02
   9.00000  2.2753022E-02  3.7822965E-02  1.9711400E-02
   9.20000  2.3666942E-02  4.1218766E-02  2.1525685E-02
   9.40000  2.4459047E-02  4.4799528E-02  2.3364570E-02
   9.60000  2.5189137E-02  4.8469600E-02  2.5157418E-02
   9.80000  2.5917816E-02  5.2082584E-02  2.6840896E-02
   10.0000  2.6689893E-02  5.5441042E-02  2.8369930E-02
   10.2500  2.7745165E-02  5.8925594E-02  3.0031725E-02
   10.5000  2.8886092E-02  6.1205918E-02  3.1416141E-02
   10.7500  3.0052986E-02  6.1981997E-02  3.2546732E-02
   11.0000  3.1156231E-02  6.1191675E-02  3.3449702E-02
   11.2500  3.2097537E-02  5.9010719E-02  3.4143231E-02
   11.5000  3.2797763E-02  5.5780788E-02  3.4643955E-02
   11.7500  3.3220946E-02  5.1908923E-02  3.4976360E-02
   12.0000  3.3382275E-02  4.7778930E-02  3.5173024E-02
   12.2500  3.3339759E-02  4.3697001E-02  3.5269524E-02
   12.5000  3.3175878E-02  3.9872492E-02  3.5299968E-02
   12.7500  3.2976974E-02  3.6424201E-02  3.5294867E-02
   13.0000  3.2817503E-02  3.3399647E-02  3.5280822E-02
   13.2500  3.2752352E-02  3.0797637E-02  3.5280106E-02
   13.5000  3.2815773E-02  2.8588503E-02  3.5310013E-02
   13.7500  3.3023703E-02  2.6729311E-02  3.5383323E-02
   14.0000  3.3377102E-02  2.5173753E-02  3.5509175E-02
   14.2500  3.3865324E-02  2.3877676E-02  3.5693341E-02
   14.5000  3.4468956E-02  2.2801655E-02  3.5937993E-02
   14.7500  3.5161860E-02  2.1911897E-02  3.6241377E-02
   15.0000  3.5912653E-02  2.1180267E-02  3.6597600E-02
   15.2500  3.6686121E-02  2.0583832E-02  3.6996644E-02
   15.5000  3.7444884E-02  2.0104184E-02  3.7424669E-02
   15.7500  3.8151464E-02  1.9726721E-02  3.7864663E-02
   16.0000  3.8770695E-02  1.9439959E-02  3.8297452E-02
   16.2500  3.9272217E-02  1.9234904E-02  3.8703035E-02
   16.5000  3.9632726E-02  1.9104485E-02  3.9062142E-02
   16.7500  3.9837575E-02  1.9043060E-02  3.9357851E-02
   17.0000  3.9881475E-02  1.9045986E-02  3.9577037E-02
   17.2500  3.9768194E-02  1.9109275E-02  3.9711425E-02
   17.5000  3.9509384E-02  1.9229327E-02  3.9758083E-02
   17.7500  3.9122818E-02  1.9402737E-02  3.9719276E-02
   18.0000  3.8630357E-02  1.9626187E-02  3.9601762E-02
   18.2500  3.8055977E-02  1.9896386E-02  3.9415667E-02
   18.5000  3.7424066E-02  2.0210069E-02  3.9173183E-02
   18.7500  3.6758089E-02  2.0564041E-02  3.8887275E-02
   19.0000  3.6079634E-02  2.0955242E-02  3.8570560E-02
   19.2500  3.5407739E-02  2.1380847E-02  3.8234430E-02
   19.5000  3.4758452E-02  2.1838360E-02  3.7888448E-02
   19.7500  3.4144636E-02  2.2325618E-02  3.7540048E-02
   20.0000  3.3576191E-02  2.2840557E-02  3.7194596E-02
   21.0000  3.1889816E-02  2.5117751E-02  3.5901668E-02
   22.0000  3.1262596E-02  2.7576441E-02  3.4774815E-02
   23.0000  3.1510648E-02  2.9981484E-02  3.3717894E-02
   24.0000  3.2220392E-02  3.2069868E-02  3.2625858E-02
   25.0000  3.2938193E-02  3.3611133E-02  3.1461435E-02
   26.0000  3.3311040E-02  3.4488837E-02  3.0253252E-02
   27.0000  3.3169556E-02  3.4725498E-02  2.9070505E-02
   28.0000  3.2542669E-02  3.4435100E-02  2.7999942E-02
   29.0000  3.1605075E-02  3.3770264E-02  2.7120724E-02
   30.0000  3.0566247E-02  3.2889014E-02  2.6472106E-02
   31.0000  2.9559753E-02  3.1912230E-02  2.6031925E-02
   32.0000  2.8637466E-02  3.0915690E-02  2.5741929E-02
   33.0000  2.7800635E-02  2.9936838E-02  2.5538788E-02
   34.0000  2.7024733E-02  2.8983998E-02  2.5369820E-02
   35.0000  2.6280039E-02  2.8048824E-02  2.5196687E-02
   36.0000  2.5547672E-02  2.7118851E-02  2.4992822E-02
   37.0000  2.4829485E-02  2.6189659E-02  2.4742945E-02
   38.0000  2.4150341E-02  2.5277835E-02  2.4449519E-02
   39.0000  2.3552710E-02  2.4434088E-02  2.4141564E-02
   40.0000  2.3082952E-02  2.3743092E-02  2.3871671E-02
