    Energy   (100,001)      (010,001)      (001,110)   
  -25.0000  1.6819139E-04  1.8514875E-04  1.8645248E-04
  -24.0000  1.7407713E-04  1.9210483E-04  1.9291548E-04
  -23.0000  1.8034955E-04  1.9955885E-04  1.9980859E-04
  -22.0000  1.8704704E-04  2.0756494E-04  2.0717555E-04
  -21.0000  1.9421320E-04  2.1618521E-04  2.1506618E-04
  -20.0000  2.0189774E-04  2.2549136E-04  2.2353751E-04
  -19.0000  2.1015763E-04  2.3556648E-04  2.3265510E-04
  -18.0000  2.1905843E-04  2.4650751E-04  2.4249476E-04
  -17.0000  2.2867602E-04  2.5842809E-04  2.5314458E-04
  -16.0000  2.3909871E-04  2.7146236E-04  2.6470755E-04
  -15.0000  2.5042990E-04  2.8576974E-04  2.7730487E-04
  -14.0000  2.6279147E-04  3.0154109E-04  2.9108015E-04
  -13.0000  2.7632819E-04  3.1900677E-04  3.0620492E-04
  -12.0000  2.9121336E-04  3.3844734E-04  3.2288581E-04
  -11.0000  3.0765639E-04  3.6020783E-04  3.4137403E-04
  -10.0000  3.2591283E-04  3.8471717E-04  3.6197836E-04
  -9.00000  3.4629814E-04  4.1251511E-04  3.8508277E-04
  -8.00000  3.6920681E-04  4.4428999E-04  4.1117130E-04
  -7.00000  3.9513957E-04  4.8093324E-04  4.4086359E-04
  -6.00000  4.2474303E-04  5.2361950E-04  4.7496723E-04
  -5.00000  4.5886943E-04  5.7392797E-04  5.1455720E-04
  -4.00000  4.9866974E-04  6.3403221E-04  5.6110076E-04
  -3.00000  5.4574557E-04  7.0700862E-04  6.1666285E-04
  -2.00000  6.0241043E-04  7.9736208E-04  6.8426243E-04
  -1.00000  6.7217107E-04  9.1197655E-04  7.6853427E-04
   0.00000  7.6069610E-04  1.0619719E-03  8.7707110E-04
   1.00000  8.7800875E-04  1.2667317E-03  1.0234861E-03
   2.00000  1.0443377E-03  1.5640598E-03  1.2356515E-03
   3.00000  1.3099904E-03  2.0424270E-03  1.5839686E-03
   4.00000  1.8529878E-03  2.9890427E-03  2.3221606E-03
   5.00000  3.5047423E-03  5.6600595E-03  4.6306799E-03
   5.20000  4.0146359E-03  6.4823694E-03  5.3197008E-03
   5.40000  4.4983006E-03  7.2870008E-03  5.9482635E-03
   5.60000  4.9334479E-03  8.0506651E-03  6.4947018E-03
   5.80000  5.3207136E-03  8.7875070E-03  6.9761656E-03
   6.00000  5.6657805E-03  9.5223208E-03  7.4135763E-03
   6.20000  5.9739713E-03  1.0278784E-02  7.8187819E-03
   6.40000  6.2516940E-03  1.1077782E-02  8.1965538E-03
   6.60000  6.5076825E-03  1.1938487E-02  8.5502152E-03
   6.80000  6.7523608E-03  1.2879659E-02  8.8863422E-03
   7.00000  6.9966004E-03  1.3920827E-02  9.2176837E-03
   7.20000  7.2510601E-03  1.5083252E-02  9.5639347E-03
   7.40000  7.5261045E-03  1.6390513E-02  9.9499628E-03
   7.60000  7.8317855E-03  1.7868832E-02  1.0402076E-02
   7.80000  8.1776582E-03  1.9547335E-02  1.0944041E-02
   8.00000  8.5725603E-03  2.1458113E-02  1.1594347E-02
   8.20000  9.0245145E-03  2.3635705E-02  1.2365012E-02
   8.40000  9.5407562E-03  2.6115419E-02  1.3261352E-02
   8.60000  1.0127770E-02  2.8929844E-02  1.4282109E-02
   8.80000  1.0791205E-02  3.2102713E-02  1.5419641E-02
   9.00000  1.1535570E-02  3.5639320E-02  1.6660151E-02
   9.20000  1.2363696E-02  3.9513213E-02  1.7984107E-02
   9.40000  1.3276017E-02  4.3650421E-02  1.9366943E-02
   9.60000  1.4269844E-02  4.7915220E-02  2.0780177E-02
   9.80000  1.5338773E-02  5.2104478E-02  2.2192864E-02
   10.0000  1.6471969E-02  5.5958000E-02  2.3572954E-02
   10.2500  1.7953170E-02  5.9865781E-02  2.5203463E-02
   10.5000  1.9463010E-02  6.2299037E-02  2.6675596E-02
   10.7500  2.0944133E-02  6.2966888E-02  2.7946516E-02
   11.0000  2.2333481E-02  6.1886479E-02  2.8992837E-02
   11.2500  2.3571810E-02  5.9360828E-02  2.9809952E-02
   11.5000  2.4616043E-02  5.5857640E-02  3.0409967E-02
   11.7500  2.5449256E-02  5.1861837E-02  3.0819018E-02
   12.0000  2.6083421E-02  4.7769963E-02  3.1073255E-02
   12.2500  2.6554244E-02  4.3850635E-02  3.1214247E-02
   12.5000  2.6911274E-02  4.0254803E-02  3.1285083E-02
   12.7500  2.7207316E-02  3.7046883E-02  3.1326870E-02
   13.0000  2.7490144E-02  3.4236533E-02  3.1374099E-02
   13.2500  2.7797634E-02  3.1803199E-02  3.1451178E-02
   13.5000  2.8156005E-02  2.9712635E-02  3.1573733E-02
   13.7500  2.8580483E-02  2.7926462E-02  3.1752156E-02
   14.0000  2.9077143E-02  2.6406949E-02  3.1993933E-02
   14.2500  2.9644834E-02  2.5119247E-02  3.2304451E-02
   14.5000  3.0276803E-02  2.4032306E-02  3.2687087E-02
   14.7500  3.0961965E-02  2.3119084E-02  3.3143017E-02
   15.0000  3.1685928E-02  2.2356374E-02  3.3670938E-02
   15.2500  3.2431819E-02  2.1724460E-02  3.4266704E-02
   15.5000  3.3181035E-02  2.1206688E-02  3.4922932E-02
   15.7500  3.3913984E-02  2.0789048E-02  3.5628639E-02
   16.0000  3.4610902E-02  2.0459777E-02  3.6369013E-02
   16.2500  3.5252766E-02  2.0209003E-02  3.7125426E-02
   16.5000  3.5822320E-02  2.0028448E-02  3.7875828E-02
   16.7500  3.6305159E-02  1.9911173E-02  3.8595620E-02
   17.0000  3.6690787E-02  1.9851370E-02  3.9259022E-02
   17.2500  3.6973511E-02  1.9844202E-02  3.9840871E-02
   17.5000  3.7153030E-02  1.9885663E-02  4.0318649E-02
   17.7500  3.7234567E-02  1.9972474E-02  4.0674461E-02
   18.0000  3.7228494E-02  2.0101985E-02  4.0896637E-02
   18.2500  3.7149445E-02  2.0272094E-02  4.0980697E-02
   18.5000  3.7015042E-02  2.0481160E-02  4.0929482E-02
   18.7500  3.6844420E-02  2.0727927E-02  4.0752472E-02
   19.0000  3.6656734E-02  2.1011455E-02  4.0464393E-02
   19.2500  3.6469854E-02  2.1331062E-02  4.0083376E-02
   19.5000  3.6299335E-02  2.1686274E-02  3.9628957E-02
   19.7500  3.6157760E-02  2.2076716E-02  3.9120331E-02
   20.0000  3.6054532E-02  2.2501838E-02  3.8575314E-02
   21.0000  3.6123107E-02  2.4513966E-02  3.6337258E-02
   22.0000  3.6977005E-02  2.6890657E-02  3.4470737E-02
   23.0000  3.8342495E-02  2.9386283E-02  3.3138167E-02
   24.0000  3.9718234E-02  3.1676507E-02  3.2229767E-02
   25.0000  4.0512621E-02  3.3443923E-02  3.1570624E-02
   26.0000  4.0271026E-02  3.4503482E-02  3.1009351E-02
   27.0000  3.8925321E-02  3.4865030E-02  3.0456639E-02
   28.0000  3.6824106E-02  3.4685607E-02  2.9895957E-02
   29.0000  3.4481954E-02  3.4167933E-02  2.9363928E-02
   30.0000  3.2298526E-02  3.3479964E-02  2.8910418E-02
   31.0000  3.0460274E-02  3.2724487E-02  2.8566723E-02
   32.0000  2.8985966E-02  3.1955410E-02  2.8337924E-02
   33.0000  2.7809837E-02  3.1198936E-02  2.8208671E-02
   34.0000  2.6858843E-02  3.0444566E-02  2.8148617E-02
   35.0000  2.6077533E-02  2.9667049E-02  2.8123157E-02
   36.0000  2.5427021E-02  2.8849482E-02  2.8100825E-02
   37.0000  2.4882021E-02  2.7992332E-02  2.8056719E-02
   38.0000  2.4427994E-02  2.7120845E-02  2.7976997E-02
   39.0000  2.4059376E-02  2.6295007E-02  2.7866272E-02
   40.0000  2.3777041E-02  2.5610255E-02  2.7752946E-02
