    Energy   (100,001)      (010,001)      (001,110)   
  -25.0000  1.7273528E-04  1.8863646E-04  1.8419362E-04
  -24.0000  1.7886710E-04  1.9562842E-04  1.9073185E-04
  -23.0000  1.8540705E-04  2.0311696E-04  1.9771305E-04
  -22.0000  1.9239602E-04  2.1115581E-04  2.0518289E-04
  -21.0000  1.9988052E-04  2.1980662E-04  2.1319350E-04
  -20.0000  2.0791359E-04  2.2914050E-04  2.2180466E-04
  -19.0000  2.1655606E-04  2.3923991E-04  2.3108522E-04
  -18.0000  2.2587797E-04  2.5020092E-04  2.4111493E-04
  -17.0000  2.3596040E-04  2.6213621E-04  2.5198667E-04
  -16.0000  2.4689778E-04  2.7517870E-04  2.6380927E-04
  -15.0000  2.5880067E-04  2.8948633E-04  2.7671113E-04
  -14.0000  2.7179942E-04  3.0524817E-04  2.9084483E-04
  -13.0000  2.8604883E-04  3.2269239E-04  3.0639315E-04
  -12.0000  3.0173417E-04  3.4209683E-04  3.2357700E-04
  -11.0000  3.1907912E-04  3.6380318E-04  3.4266608E-04
  -10.0000  3.3835639E-04  3.8823624E-04  3.6399326E-04
  -9.00000  3.5990211E-04  4.1593062E-04  3.8797461E-04
  -8.00000  3.8413571E-04  4.4756836E-04  4.1513767E-04
  -7.00000  4.1158797E-04  4.8403307E-04  4.4616240E-04
  -6.00000  4.4294157E-04  5.2648989E-04  4.8194216E-04
  -5.00000  4.7909142E-04  5.7650668E-04  5.2367753E-04
  -4.00000  5.2123733E-04  6.3624412E-04  5.7302620E-04
  -3.00000  5.7103258E-04  7.0876540E-04  6.3235388E-04
  -2.00000  6.3083407E-04  7.9856577E-04  7.0517856E-04
  -1.00000  7.0415117E-04  9.1253323E-04  7.9701424E-04
   0.00000  7.9652149E-04  1.0618310E-03  9.1712317E-04
   1.00000  9.1742307E-04  1.2659894E-03  1.0826096E-03
   2.00000  1.0851789E-03  1.5632152E-03  1.3296568E-03
   3.00000  1.3429864E-03  2.0428944E-03  1.7524839E-03
   4.00000  1.8354106E-03  2.9923047E-03  2.6957737E-03
   5.00000  3.2039491E-03  5.6675943E-03  5.8507753E-03
   5.20000  3.6069775E-03  6.5188114E-03  6.9147790E-03
   5.40000  3.9834778E-03  7.3827166E-03  7.9780595E-03
   5.60000  4.3237149E-03  8.2362001E-03  8.9557581E-03
   5.80000  4.6407252E-03  9.0873674E-03  9.7827658E-03
   6.00000  4.9530327E-03  9.9538036E-03  1.0408080E-02
   6.20000  5.2770062E-03  1.0853112E-02  1.0810426E-02
   6.40000  5.6251120E-03  1.1800636E-02  1.1012680E-02
   6.60000  6.0055780E-03  1.2808140E-02  1.1074455E-02
   6.80000  6.4226727E-03  1.3883490E-02  1.1068529E-02
   7.00000  6.8782574E-03  1.5033091E-02  1.1060911E-02
   7.20000  7.3742756E-03  1.6265817E-02  1.1103163E-02
   7.40000  7.9144495E-03  1.7594954E-02  1.1231346E-02
   7.60000  8.5042109E-03  1.9037119E-02  1.1466026E-02
   7.80000  9.1497859E-03  2.0610088E-02  1.1813372E-02
   8.00000  9.8573385E-03  2.2331366E-02  1.2268128E-02
   8.20000  1.0631956E-02  2.4217662E-02  1.2817637E-02
   8.40000  1.1476436E-02  2.6284721E-02  1.3446084E-02
   8.60000  1.2390132E-02  2.8546875E-02  1.4138506E-02
   8.80000  1.3368098E-02  3.1015678E-02  1.4883860E-02
   9.00000  1.4400840E-02  3.3696807E-02  1.5676248E-02
   9.20000  1.5474965E-02  3.6584447E-02  1.6513846E-02
   9.40000  1.6574814E-02  3.9652882E-02  1.7396166E-02
   9.60000  1.7684735E-02  4.2846244E-02  1.8321193E-02
   9.80000  1.8791330E-02  4.6069063E-02  1.9283949E-02
   10.0000  1.9884836E-02  4.9181738E-02  2.0276941E-02
   10.2500  2.1224156E-02  5.2643943E-02  2.1547932E-02
   10.5000  2.2526536E-02  5.5276081E-02  2.2838555E-02
   10.7500  2.3787371E-02  5.6765977E-02  2.4138026E-02
   11.0000  2.5003066E-02  5.6970020E-02  2.5437276E-02
   11.2500  2.6171391E-02  5.5954114E-02  2.6726047E-02
   11.5000  2.7287480E-02  5.3954470E-02  2.7992175E-02
   11.7500  2.8337216E-02  5.1289015E-02  2.9222709E-02
   12.0000  2.9296565E-02  4.8268860E-02  3.0404474E-02
   12.2500  3.0136947E-02  4.5144264E-02  3.1523385E-02
   12.5000  3.0834923E-02  4.2089878E-02  3.2563900E-02
   12.7500  3.1380609E-02  3.9213795E-02  3.3511329E-02
   13.0000  3.1780480E-02  3.6574430E-02  3.4356055E-02
   13.2500  3.2055404E-02  3.4196435E-02  3.5095956E-02
   13.5000  3.2235854E-02  3.2082974E-02  3.5736892E-02
   13.7500  3.2356343E-02  3.0224439E-02  3.6292313E-02
   14.0000  3.2450834E-02  2.8604238E-02  3.6781815E-02
   14.2500  3.2549658E-02  2.7202477E-02  3.7228705E-02
   14.5000  3.2677764E-02  2.5998245E-02  3.7657123E-02
   14.7500  3.2854026E-02  2.4971006E-02  3.8089249E-02
   15.0000  3.3091311E-02  2.4101391E-02  3.8542908E-02
   15.2500  3.3396994E-02  2.3371596E-02  3.9029752E-02
   15.5000  3.3773651E-02  2.2765543E-02  3.9554044E-02
   15.7500  3.4219752E-02  2.2268878E-02  4.0112055E-02
   16.0000  3.4730294E-02  2.1868900E-02  4.0692057E-02
   16.2500  3.5297332E-02  2.1554459E-02  4.1274946E-02
   16.5000  3.5910474E-02  2.1315851E-02  4.1835594E-02
   16.7500  3.6557359E-02  2.1144740E-02  4.2344945E-02
   17.0000  3.7224168E-02  2.1034079E-02  4.2772826E-02
   17.2500  3.7896205E-02  2.0978045E-02  4.3091230E-02
   17.5000  3.8558563E-02  2.0971950E-02  4.3277621E-02
   17.7500  3.9196873E-02  2.1012117E-02  4.3317702E-02
   18.0000  3.9798095E-02  2.1095723E-02  4.3207075E-02
   18.2500  4.0351296E-02  2.1220616E-02  4.2951449E-02
   18.5000  4.0848310E-02  2.1385113E-02  4.2565404E-02
   18.7500  4.1284193E-02  2.1587831E-02  4.2070039E-02
   19.0000  4.1657383E-02  2.1827554E-02  4.1490045E-02
   19.2500  4.1969514E-02  2.2103157E-02  4.0850775E-02
   19.5000  4.2224910E-02  2.2413570E-02  4.0175759E-02
   19.7500  4.2429811E-02  2.2757717E-02  3.9485017E-02
   20.0000  4.2591503E-02  2.3134297E-02  3.8794488E-02
   21.0000  4.2945574E-02  2.4916087E-02  3.6247601E-02
   22.0000  4.2995500E-02  2.6981185E-02  3.4268444E-02
   23.0000  4.2604708E-02  2.9082969E-02  3.2811632E-02
   24.0000  4.1448201E-02  3.0955618E-02  3.1707226E-02
   25.0000  3.9384897E-02  3.2396487E-02  3.0804134E-02
   26.0000  3.6628617E-02  3.3324458E-02  2.9999681E-02
   27.0000  3.3629807E-02  3.3770688E-02  2.9245008E-02
   28.0000  3.0853039E-02  3.3836874E-02  2.8549270E-02
   29.0000  2.8607117E-02  3.3651906E-02  2.7960414E-02
   30.0000  2.6957083E-02  3.3322271E-02  2.7511214E-02
   31.0000  2.5825485E-02  3.2915562E-02  2.7206700E-02
   32.0000  2.5093496E-02  3.2462146E-02  2.7030638E-02
   33.0000  2.4643770E-02  3.1962478E-02  2.6950746E-02
   34.0000  2.4378880E-02  3.1399706E-02  2.6925972E-02
   35.0000  2.4223796E-02  3.0754420E-02  2.6914899E-02
   36.0000  2.4123433E-02  3.0017750E-02  2.6882926E-02
   37.0000  2.4037686E-02  2.9201033E-02  2.6807234E-02
   38.0000  2.3938623E-02  2.8343034E-02  2.6681015E-02
   39.0000  2.3816598E-02  2.7517388E-02  2.6519069E-02
   40.0000  2.3690181E-02  2.6830318E-02  2.6360821E-02
