    Energy   (100,001)      (010,001)      (001,110)   
  -25.0000  1.7062721E-04  1.7516006E-04  1.7614041E-04
  -24.0000  1.7715473E-04  1.8206717E-04  1.8278913E-04
  -23.0000  1.8414834E-04  1.8948560E-04  1.8991139E-04
  -22.0000  1.9165794E-04  1.9747235E-04  1.9755805E-04
  -21.0000  1.9974066E-04  2.0609307E-04  2.0578740E-04
  -20.0000  2.0846225E-04  2.1542371E-04  2.1466654E-04
  -19.0000  2.1789868E-04  2.2555260E-04  2.2427310E-04
  -18.0000  2.2813825E-04  2.3658311E-04  2.3469740E-04
  -17.0000  2.3928416E-04  2.4863686E-04  2.4604509E-04
  -16.0000  2.5145773E-04  2.6185790E-04  2.5844057E-04
  -15.0000  2.6480256E-04  2.7641813E-04  2.7203124E-04
  -14.0000  2.7948984E-04  2.9252418E-04  2.8699310E-04
  -13.0000  2.9572525E-04  3.1042654E-04  3.0353797E-04
  -12.0000  3.1375804E-04  3.3043175E-04  3.2192303E-04
  -11.0000  3.3389321E-04  3.5291864E-04  3.4246364E-04
  -10.0000  3.5650789E-04  3.7836076E-04  3.6555067E-04
  -9.00000  3.8207395E-04  4.0735743E-04  3.9167454E-04
  -8.00000  4.1118971E-04  4.4067782E-04  4.2145909E-04
  -7.00000  4.4462540E-04  4.7932478E-04  4.5571038E-04
  -6.00000  4.8338984E-04  5.2462953E-04  4.9548889E-04
  -5.00000  5.2883117E-04  5.7839606E-04  5.4221940E-04
  -4.00000  5.8279402E-04  6.4312877E-04  5.9786444E-04
  -3.00000  6.4787474E-04  7.2240514E-04  6.6520953E-04
  -2.00000  7.2785606E-04  8.2151536E-04  7.4835734E-04
  -1.00000  8.2849302E-04  9.4862547E-04  8.5364082E-04
   0.00000  9.5904766E-04  1.1170567E-03  9.9145718E-04
   1.00000  1.1356103E-03  1.3502232E-03  1.1803878E-03
   2.00000  1.3894105E-03  1.6939697E-03  1.4580268E-03
   3.00000  1.7927123E-03  2.2549113E-03  1.9169611E-03
   4.00000  2.5735048E-03  3.3701115E-03  2.8770077E-03
   5.00000  4.7145130E-03  6.4936535E-03  5.7953937E-03
   5.20000  5.4018205E-03  7.4968656E-03  6.7011439E-03
   5.40000  6.1149862E-03  8.5286717E-03  7.5781691E-03
   5.60000  6.8417855E-03  9.5622741E-03  8.3997879E-03
   5.80000  7.5927504E-03  1.0602697E-02  9.1765529E-03
   6.00000  8.3839677E-03  1.1664110E-02  9.9242315E-03
   6.20000  9.2299387E-03  1.2763118E-02  1.0656505E-02
   6.40000  1.0143485E-02  1.3922386E-02  1.1390304E-02
   6.60000  1.1136164E-02  1.5174364E-02  1.2147537E-02
   6.80000  1.2215227E-02  1.6560400E-02  1.2947327E-02
   7.00000  1.3377287E-02  1.8126255E-02  1.3794655E-02
   7.20000  1.4603286E-02  1.9917281E-02  1.4676495E-02
   7.40000  1.5860651E-02  2.1975427E-02  1.5571276E-02
   7.60000  1.7114730E-02  2.4337860E-02  1.6466554E-02
   7.80000  1.8344670E-02  2.7035658E-02  1.7372752E-02
   8.00000  1.9554492E-02  3.0090671E-02  1.8323845E-02
   8.20000  2.0772863E-02  3.3509237E-02  1.9365639E-02
   8.40000  2.2042546E-02  3.7272235E-02  2.0539829E-02
   8.60000  2.3405787E-02  4.1322163E-02  2.1871865E-02
   8.80000  2.4891625E-02  4.5549587E-02  2.3365681E-02
   9.00000  2.6507735E-02  4.9783331E-02  2.5004128E-02
   9.20000  2.8236681E-02  5.3790817E-02  2.6752712E-02
   9.40000  3.0035643E-02  5.7295379E-02  2.8564715E-02
   9.60000  3.1839215E-02  6.0014234E-02  3.0386739E-02
   9.80000  3.3565505E-02  6.1712697E-02  3.2164501E-02
   10.0000  3.5125699E-02  6.2259264E-02  3.3848743E-02
   10.2500  3.6718269E-02  6.1342811E-02  3.5763450E-02
   10.5000  3.7813244E-02  5.8929677E-02  3.7419901E-02
   10.7500  3.8387528E-02  5.5492346E-02  3.8794550E-02
   11.0000  3.8508282E-02  5.1530427E-02  3.9887637E-02
   11.2500  3.8299507E-02  4.7456671E-02  4.0716114E-02
   11.5000  3.7894536E-02  4.3552947E-02  4.1303615E-02
   11.7500  3.7404356E-02  3.9978846E-02  4.1674025E-02
   12.0000  3.6908565E-02  3.6802664E-02  4.1852124E-02
   12.2500  3.6458266E-02  3.4033986E-02  4.1866203E-02
   12.5000  3.6082784E-02  3.1649575E-02  4.1746391E-02
   12.7500  3.5796474E-02  2.9610966E-02  4.1520360E-02
   13.0000  3.5603630E-02  2.7875074E-02  4.1211922E-02
   13.2500  3.5501631E-02  2.6399976E-02  4.0841846E-02
   13.5000  3.5483117E-02  2.5147741E-02  4.0428502E-02
   13.7500  3.5537551E-02  2.4085580E-02  3.9988105E-02
   14.0000  3.5652210E-02  2.3186036E-02  3.9534765E-02
   14.2500  3.5812612E-02  2.2426595E-02  3.9080078E-02
   14.5000  3.6002779E-02  2.1789036E-02  3.8632534E-02
   14.7500  3.6205780E-02  2.1258729E-02  3.8197391E-02
   15.0000  3.6404616E-02  2.0824002E-02  3.7777075E-02
   15.2500  3.6583265E-02  2.0475541E-02  3.7371731E-02
   15.5000  3.6727784E-02  2.0205846E-02  3.6979802E-02
   15.7500  3.6827398E-02  2.0008748E-02  3.6598612E-02
   16.0000  3.6875416E-02  1.9878992E-02  3.6224940E-02
   16.2500  3.6869821E-02  1.9811915E-02  3.5855570E-02
   16.5000  3.6813400E-02  1.9803194E-02  3.5487769E-02
   16.7500  3.6713334E-02  1.9848697E-02  3.5119656E-02
   17.0000  3.6580295E-02  1.9944397E-02  3.4750410E-02
   17.2500  3.6427166E-02  2.0086360E-02  3.4380330E-02
   17.5000  3.6267607E-02  2.0270768E-02  3.4010739E-02
   17.7500  3.6114655E-02  2.0493975E-02  3.3643772E-02
   18.0000  3.5979544E-02  2.0752565E-02  3.3282107E-02
   18.2500  3.5870836E-02  2.1043406E-02  3.2928669E-02
   18.5000  3.5793908E-02  2.1363684E-02  3.2586349E-02
   18.7500  3.5750756E-02  2.1710936E-02  3.2257772E-02
   19.0000  3.5740109E-02  2.2083065E-02  3.1945101E-02
   19.2500  3.5757765E-02  2.2478363E-02  3.1649899E-02
   19.5000  3.5797134E-02  2.2895527E-02  3.1373034E-02
   19.7500  3.5849844E-02  2.3333605E-02  3.1114648E-02
   20.0000  3.5906261E-02  2.3791744E-02  3.0874231E-02
   21.0000  3.5953356E-02  2.5791897E-02  3.0070299E-02
   22.0000  3.5316306E-02  2.7952380E-02  2.9448140E-02
   23.0000  3.3893389E-02  3.0092538E-02  2.8911193E-02
   24.0000  3.1999135E-02  3.1964012E-02  2.8400724E-02
   25.0000  3.0023663E-02  3.3311952E-02  2.7887547E-02
   26.0000  2.8211590E-02  3.3985612E-02  2.7356197E-02
   27.0000  2.6663741E-02  3.4003678E-02  2.6818472E-02
   28.0000  2.5410356E-02  3.3514237E-02  2.6320796E-02
   29.0000  2.4443049E-02  3.2694760E-02  2.5910133E-02
   30.0000  2.3728282E-02  3.1695063E-02  2.5608642E-02
   31.0000  2.3216393E-02  3.0620592E-02  2.5404217E-02
   32.0000  2.2851571E-02  2.9532749E-02  2.5256555E-02
   33.0000  2.2581525E-02  2.8458599E-02  2.5113697E-02
   34.0000  2.2363037E-02  2.7404308E-02  2.4929795E-02
   35.0000  2.2163950E-02  2.6368258E-02  2.4679205E-02
   36.0000  2.1963423E-02  2.5351871E-02  2.4363085E-02
   37.0000  2.1752136E-02  2.4367469E-02  2.4005285E-02
   38.0000  2.1532984E-02  2.3443194E-02  2.3640334E-02
   39.0000  2.1321504E-02  2.2626141E-02  2.3304791E-02
   40.0000  2.1142700E-02  2.1977807E-02  2.3034661E-02
