    Energy   (100,001)      (010,001)      (001,110)   
  -25.0000  1.7060640E-04  1.8072300E-04  1.8378397E-04
  -24.0000  1.7676402E-04  1.8772291E-04  1.9038198E-04
  -23.0000  1.8333715E-04  1.9523454E-04  1.9743191E-04
  -22.0000  1.9036796E-04  2.0331439E-04  2.0498080E-04
  -21.0000  1.9790442E-04  2.1202742E-04  2.1308236E-04
  -20.0000  2.0600136E-04  2.2144873E-04  2.2179823E-04
  -19.0000  2.1472171E-04  2.3166557E-04  2.3119949E-04
  -18.0000  2.2413809E-04  2.4277983E-04  2.4136847E-04
  -17.0000  2.3433466E-04  2.5491129E-04  2.5240116E-04
  -16.0000  2.4540961E-04  2.6820159E-04  2.6441007E-04
  -15.0000  2.5747810E-04  2.8281944E-04  2.7752799E-04
  -14.0000  2.7067617E-04  2.9896733E-04  2.9191274E-04
  -13.0000  2.8516564E-04  3.1689024E-04  3.0775336E-04
  -12.0000  3.0114056E-04  3.3688734E-04  3.2527826E-04
  -11.0000  3.1883570E-04  3.5932759E-04  3.4476601E-04
  -10.0000  3.3853784E-04  3.8467101E-04  3.6655999E-04
  -9.00000  3.6060118E-04  4.1349831E-04  3.9108847E-04
  -8.00000  3.8546857E-04  4.4655261E-04  4.1889279E-04
  -7.00000  4.1370151E-04  4.8479973E-04  4.5066760E-04
  -6.00000  4.4602348E-04  5.2951720E-04  4.8732005E-04
  -5.00000  4.8338424E-04  5.8242959E-04  5.3005900E-04
  -4.00000  5.2705850E-04  6.4592075E-04  5.8053457E-04
  -3.00000  5.7880305E-04  7.2337980E-04  6.4106506E-04
  -2.00000  6.4111971E-04  8.1979220E-04  7.1502532E-04
  -1.00000  7.1772187E-04  9.4280971E-04  8.0755377E-04
   0.00000  8.1443026E-04  1.1048387E-03  9.2694864E-04
   1.00000  9.4108345E-04  1.3275503E-03  1.0877425E-03
   2.00000  1.1162753E-03  1.6531412E-03  1.3186031E-03
   3.00000  1.3821189E-03  2.1794267E-03  1.6879647E-03
   4.00000  1.8705000E-03  3.2164262E-03  2.4240992E-03
   5.00000  3.1486984E-03  6.1007426E-03  4.5444728E-03
   5.20000  3.5462046E-03  7.0119579E-03  5.1969667E-03
   5.40000  3.9487853E-03  7.9349935E-03  5.8301492E-03
   5.60000  4.3472600E-03  8.8472145E-03  6.4251772E-03
   5.80000  4.7469169E-03  9.7611555E-03  6.9942198E-03
   6.00000  5.1566627E-03  1.0700254E-02  7.5572267E-03
   6.20000  5.5842177E-03  1.1687807E-02  8.1314746E-03
   6.40000  6.0355420E-03  1.2745263E-02  8.7302113E-03
   6.60000  6.5156193E-03  1.3893218E-02  9.3645334E-03
   6.80000  7.0294988E-03  1.5152521E-02  1.0046182E-02
   7.00000  7.5832103E-03  1.6544703E-02  1.0790165E-02
   7.20000  8.1842920E-03  1.8091894E-02  1.1616130E-02
   7.40000  8.8417245E-03  1.9817015E-02  1.2547617E-02
   7.60000  9.5652388E-03  2.1744375E-02  1.3609270E-02
   7.80000  1.0364129E-02  2.3899616E-02  1.4822909E-02
   8.00000  1.1245669E-02  2.6308619E-02  1.6203122E-02
   8.20000  1.2213145E-02  2.8995333E-02  1.7752456E-02
   8.40000  1.3263538E-02  3.1977990E-02  1.9456042E-02
   8.60000  1.4385166E-02  3.5263149E-02  2.1275904E-02
   8.80000  1.5556997E-02  3.8837275E-02  2.3147678E-02
   9.00000  1.6752018E-02  4.2656236E-02  2.4984419E-02
   9.20000  1.7944677E-02  4.6634056E-02  2.6689264E-02
   9.40000  1.9118816E-02  5.0633811E-02  2.8173482E-02
   9.60000  2.0271125E-02  5.4465453E-02  2.9373128E-02
   9.80000  2.1407624E-02  5.7896563E-02  3.0258450E-02
   10.0000  2.2535336E-02  6.0679829E-02  3.0834527E-02
   10.2500  2.3930999E-02  6.2917455E-02  3.1173206E-02
   10.5000  2.5285527E-02  6.3537935E-02  3.1187805E-02
   10.7500  2.6550632E-02  6.2538023E-02  3.0999377E-02
   11.0000  2.7673314E-02  6.0165868E-02  3.0722482E-02
   11.2500  2.8615360E-02  5.6822776E-02  3.0452810E-02
   11.5000  2.9365941E-02  5.2940473E-02  3.0263602E-02
   11.7500  2.9943479E-02  4.8887278E-02  3.0205574E-02
   12.0000  3.0388304E-02  4.4925340E-02  3.0307254E-02
   12.2500  3.0749881E-02  4.1214818E-02  3.0576305E-02
   12.5000  3.1074724E-02  3.7839739E-02  3.1001577E-02
   12.7500  3.1400824E-02  3.4832925E-02  3.1557256E-02
   13.0000  3.1757116E-02  3.2194333E-02  3.2208729E-02
   13.2500  3.2164446E-02  2.9904220E-02  3.2918819E-02
   13.5000  3.2636411E-02  2.7932505E-02  3.3653332E-02
   13.7500  3.3179297E-02  2.6245368E-02  3.4384549E-02
   14.0000  3.3791626E-02  2.4809496E-02  3.5092480E-02
   14.2500  3.4464425E-02  2.3594102E-02  3.5764690E-02
   14.5000  3.5182109E-02  2.2571544E-02  3.6394891E-02
   14.7500  3.5923526E-02  2.1717422E-02  3.6980528E-02
   15.0000  3.6663213E-02  2.1010518E-02  3.7520159E-02
   15.2500  3.7373063E-02  2.0432636E-02  3.8011442E-02
   15.5000  3.8024486E-02  1.9968369E-02  3.8450103E-02
   15.7500  3.8590938E-02  1.9604797E-02  3.8829885E-02
   16.0000  3.9050517E-02  1.9331165E-02  3.9143266E-02
   16.2500  3.9388239E-02  1.9138536E-02  3.9382616E-02
   16.5000  3.9597534E-02  1.9019457E-02  3.9541472E-02
   16.7500  3.9680663E-02  1.8967655E-02  3.9615628E-02
   17.0000  3.9647930E-02  1.8977758E-02  3.9603852E-02
   17.2500  3.9515892E-02  1.9045070E-02  3.9508159E-02
   17.5000  3.9304974E-02  1.9165387E-02  3.9333663E-02
   17.7500  3.9037024E-02  1.9334874E-02  3.9088120E-02
   18.0000  3.8733246E-02  1.9549977E-02  3.8781283E-02
   18.2500  3.8412766E-02  1.9807384E-02  3.8424196E-02
   18.5000  3.8091893E-02  2.0104001E-02  3.8028485E-02
   18.7500  3.7783940E-02  2.0436958E-02  3.7605722E-02
   19.0000  3.7499403E-02  2.0803632E-02  3.7166871E-02
   19.2500  3.7246300E-02  2.1201695E-02  3.6721807E-02
   19.5000  3.7030500E-02  2.1629157E-02  3.6278951E-02
   19.7500  3.6855984E-02  2.2084343E-02  3.5845051E-02
   20.0000  3.6725065E-02  2.2565654E-02  3.5425263E-02
   21.0000  3.6640129E-02  2.4703126E-02  3.3957709E-02
   22.0000  3.7137374E-02  2.7040518E-02  3.2893392E-02
   23.0000  3.7831197E-02  2.9379639E-02  3.2152011E-02
   24.0000  3.8170554E-02  3.1488631E-02  3.1566055E-02
   25.0000  3.7684851E-02  3.3145287E-02  3.0979419E-02
   26.0000  3.6264731E-02  3.4212040E-02  3.0309619E-02
   27.0000  3.4220078E-02  3.4675983E-02  2.9562275E-02
   28.0000  3.2029796E-02  3.4619632E-02  2.8802129E-02
   29.0000  3.0066401E-02  3.4172813E-02  2.8110071E-02
   30.0000  2.8498826E-02  3.3473792E-02  2.7543868E-02
   31.0000  2.7322677E-02  3.2623706E-02  2.7114267E-02
   32.0000  2.6457357E-02  3.1682622E-02  2.6801468E-02
   33.0000  2.5809523E-02  3.0682809E-02  2.6577334E-02
   34.0000  2.5295833E-02  2.9640763E-02  2.6416774E-02
   35.0000  2.4852446E-02  2.8568065E-02  2.6301243E-02
   36.0000  2.4438815E-02  2.7479427E-02  2.6216315E-02
   37.0000  2.4037756E-02  2.6398181E-02  2.6146021E-02
   38.0000  2.3652947E-02  2.5361707E-02  2.6070078E-02
   39.0000  2.3304568E-02  2.4428885E-02  2.5974614E-02
   40.0000  2.3021700E-02  2.3680261E-02  2.5872594E-02
