    Energy   (100,001)      (010,001)      (001,110)   
  -25.0000  1.6445618E-04  1.8522044E-04  1.7919345E-04
  -24.0000  1.7043964E-04  1.9217162E-04  1.8565527E-04
  -23.0000  1.7682464E-04  1.9962083E-04  1.9255877E-04
  -22.0000  1.8365136E-04  2.0762230E-04  1.9994969E-04
  -21.0000  1.9096539E-04  2.1623831E-04  2.0788026E-04
  -20.0000  1.9881870E-04  2.2554074E-04  2.1641034E-04
  -19.0000  2.0727080E-04  2.3561298E-04  2.2560892E-04
  -18.0000  2.1639010E-04  2.4655230E-04  2.3555589E-04
  -17.0000  2.2625566E-04  2.5847283E-04  2.4634429E-04
  -16.0000  2.3695932E-04  2.7150934E-04  2.5808313E-04
  -15.0000  2.4860842E-04  2.8582211E-04  2.7090098E-04
  -14.0000  2.6132912E-04  3.0160313E-04  2.8495055E-04
  -13.0000  2.7527079E-04  3.1908436E-04  3.0041471E-04
  -12.0000  2.9061155E-04  3.3854849E-04  3.1751433E-04
  -11.0000  3.0756558E-04  3.6034354E-04  3.3651877E-04
  -10.0000  3.2639278E-04  3.8490264E-04  3.5776013E-04
  -9.00000  3.4741170E-04  4.1277149E-04  3.8165291E-04
  -8.00000  3.7101733E-04  4.4464707E-04  4.0872166E-04
  -7.00000  3.9770580E-04  4.8143349E-04  4.3964094E-04
  -6.00000  4.2810969E-04  5.2432447E-04  4.7529452E-04
  -5.00000  4.6304966E-04  5.7492857E-04  5.1686599E-04
  -4.00000  5.0361256E-04  6.3546583E-04  5.6598279E-04
  -3.00000  5.5127395E-04  7.0908857E-04  6.2495608E-04
  -2.00000  6.0809979E-04  8.0043077E-04  6.9720329E-04
  -1.00000  6.7709872E-04  9.1660612E-04  7.8804773E-04
   0.00000  7.6288777E-04  1.0691674E-03  9.0637674E-04
   1.00000  8.7309353E-04  1.2783747E-03  1.0685259E-03
   2.00000  1.0217935E-03  1.5839772E-03  1.3090415E-03
   3.00000  1.2402100E-03  2.0793295E-03  1.7187413E-03
   4.00000  1.6249711E-03  3.0661179E-03  2.6390407E-03
   5.00000  2.5902405E-03  5.8697925E-03  5.7516123E-03
   5.20000  2.8849293E-03  6.7612441E-03  6.7339088E-03
   5.40000  3.1802241E-03  7.6607840E-03  7.6271899E-03
   5.60000  3.4679934E-03  8.5404445E-03  8.3381732E-03
   5.80000  3.7508792E-03  9.4058994E-03  8.8299459E-03
   6.00000  4.0347795E-03  1.0274970E-02  9.1103143E-03
   6.20000  4.3258316E-03  1.1168632E-02  9.2249779E-03
   6.40000  4.6300384E-03  1.2108714E-02  9.2438138E-03
   6.60000  4.9533444E-03  1.3115831E-02  9.2394981E-03
   6.80000  5.3017183E-03  1.4207259E-02  9.2703816E-03
   7.00000  5.6813329E-03  1.5396222E-02  9.3747942E-03
   7.20000  6.0987804E-03  1.6693064E-02  9.5742094E-03
   7.40000  6.5611098E-03  1.8107341E-02  9.8792562E-03
   7.60000  7.0755368E-03  1.9649508E-02  1.0294612E-02
   7.80000  7.6487753E-03  2.1331716E-02  1.0821566E-02
   8.00000  8.2860142E-03  2.3167866E-02  1.1458541E-02
   8.20000  8.9896453E-03  2.5173049E-02  1.2200370E-02
   8.40000  9.7579706E-03  2.7362506E-02  1.3037397E-02
   8.60000  1.0584330E-02  2.9750183E-02  1.3955695E-02
   8.80000  1.1457329E-02  3.2346719E-02  1.4939612E-02
   9.00000  1.2362841E-02  3.5156420E-02  1.5976909E-02
   9.20000  1.3287798E-02  3.8172489E-02  1.7064816E-02
   9.40000  1.4224402E-02  4.1369766E-02  1.8213500E-02
   9.60000  1.5172589E-02  4.4695038E-02  1.9443904E-02
   9.80000  1.6139526E-02  4.8056808E-02  2.0780075E-02
   10.0000  1.7136668E-02  5.1317744E-02  2.2239263E-02
   10.2500  1.8443402E-02  5.4969836E-02  2.4237916E-02
   10.5000  1.9831769E-02  5.7759257E-02  2.6394436E-02
   10.7500  2.1304951E-02  5.9301291E-02  2.8632053E-02
   11.0000  2.2850761E-02  5.9373107E-02  3.0849111E-02
   11.2500  2.4442389E-02  5.8002314E-02  3.2937892E-02
   11.5000  2.6042791E-02  5.5455374E-02  3.4799721E-02
   11.7500  2.7610814E-02  5.2133482E-02  3.6354142E-02
   12.0000  2.9105145E-02  4.8445856E-02  3.7546521E-02
   12.2500  3.0488713E-02  4.4722732E-02  3.8355449E-02
   12.5000  3.1736508E-02  4.1184672E-02  3.8795561E-02
   12.7500  3.2839596E-02  3.7953271E-02  3.8913059E-02
   13.0000  3.3802671E-02  3.5078818E-02  3.8775614E-02
   13.2500  3.4640477E-02  3.2566533E-02  3.8460642E-02
   13.5000  3.5374463E-02  3.0395960E-02  3.8044779E-02
   13.7500  3.6028656E-02  2.8534583E-02  3.7595524E-02
   14.0000  3.6625860E-02  2.6946597E-02  3.7166248E-02
   14.2500  3.7185555E-02  2.5597429E-02  3.6795295E-02
   14.5000  3.7723198E-02  2.4455582E-02  3.6507815E-02
   14.7500  3.8249959E-02  2.3493373E-02  3.6318507E-02
   15.0000  3.8772664E-02  2.2687110E-02  3.6234077E-02
   15.2500  3.9294089E-02  2.2016845E-02  3.6254852E-02
   15.5000  3.9813471E-02  2.1465871E-02  3.6375650E-02
   15.7500  4.0327039E-02  2.1020190E-02  3.6586285E-02
   16.0000  4.0828536E-02  2.0668055E-02  3.6871986E-02
   16.2500  4.1309799E-02  2.0399578E-02  3.7213883E-02
   16.5000  4.1761474E-02  2.0206401E-02  3.7589725E-02
   16.7500  4.2173875E-02  2.0081429E-02  3.7974943E-02
   17.0000  4.2537957E-02  2.0018603E-02  3.8344097E-02
   17.2500  4.2846296E-02  2.0012705E-02  3.8672663E-02
   17.5000  4.3093950E-02  2.0059198E-02  3.8938957E-02
   17.7500  4.3279046E-02  2.0154085E-02  3.9125912E-02
   18.0000  4.3402987E-02  2.0293792E-02  3.9222402E-02
   18.2500  4.3470237E-02  2.0475064E-02  3.9223860E-02
   18.5000  4.3487737E-02  2.0694904E-02  3.9132090E-02
   18.7500  4.3464035E-02  2.0950527E-02  3.8954359E-02
   19.0000  4.3408316E-02  2.1239360E-02  3.8701948E-02
   19.2500  4.3329441E-02  2.1559078E-02  3.8388465E-02
   19.5000  4.3235145E-02  2.1907654E-02  3.8028170E-02
   19.7500  4.3131445E-02  2.2283364E-02  3.7634636E-02
   20.0000  4.3022343E-02  2.2684608E-02  3.7220008E-02
   21.0000  4.2547709E-02  2.4501652E-02  3.5547245E-02
   22.0000  4.1897682E-02  2.6547855E-02  3.4128174E-02
   23.0000  4.0802143E-02  2.8681638E-02  3.3029660E-02
   24.0000  3.9072512E-02  3.0727619E-02  3.2151125E-02
   25.0000  3.6768361E-02  3.2476630E-02  3.1363307E-02
   26.0000  3.4191304E-02  3.3736035E-02  3.0571785E-02
   27.0000  3.1713997E-02  3.4401876E-02  2.9746322E-02
   28.0000  2.9601008E-02  3.4501252E-02  2.8926510E-02
   29.0000  2.7945219E-02  3.4165437E-02  2.8192776E-02
   30.0000  2.6694427E-02  3.3545834E-02  2.7602344E-02
   31.0000  2.5751143E-02  3.2765090E-02  2.7170140E-02
   32.0000  2.5028995E-02  3.1907272E-02  2.6876094E-02
   33.0000  2.4458690E-02  3.1023723E-02  2.6678589E-02
   34.0000  2.3983242E-02  3.0143124E-02  2.6529506E-02
   35.0000  2.3555137E-02  2.9279558E-02  2.6384652E-02
   36.0000  2.3137213E-02  2.8438415E-02  2.6208699E-02
   37.0000  2.2706669E-02  2.7623092E-02  2.5978250E-02
   38.0000  2.2261040E-02  2.6845333E-02  2.5687403E-02
   39.0000  2.1825077E-02  2.6138940E-02  2.5359234E-02
   40.0000  2.1451140E-02  2.5565347E-02  2.5055069E-02
