    Energy   (100,001)      (010,001)      (001,110)   
  -25.0000  1.7748670E-04  1.8285940E-04  1.7721526E-04
  -24.0000  1.8412718E-04  1.8976809E-04  1.8397937E-04
  -23.0000  1.9123634E-04  1.9717365E-04  1.9122897E-04
  -22.0000  1.9886406E-04  2.0513032E-04  1.9901648E-04
  -21.0000  2.0706744E-04  2.1370040E-04  2.0740199E-04
  -20.0000  2.1591212E-04  2.2295583E-04  2.1645473E-04
  -19.0000  2.2547399E-04  2.3298007E-04  2.2625483E-04
  -18.0000  2.3584118E-04  2.4387049E-04  2.3689552E-04
  -17.0000  2.4711666E-04  2.5574139E-04  2.4848594E-04
  -16.0000  2.5942143E-04  2.6872777E-04  2.6115460E-04
  -15.0000  2.7289867E-04  2.8299020E-04  2.7505384E-04
  -14.0000  2.8771899E-04  2.9872111E-04  2.9036558E-04
  -13.0000  3.0408733E-04  3.1615299E-04  3.0730879E-04
  -12.0000  3.2225194E-04  3.3556929E-04  3.2614931E-04
  -11.0000  3.4251646E-04  3.5731899E-04  3.4721305E-04
  -10.0000  3.6525618E-04  3.8183649E-04  3.7090374E-04
  -9.00000  3.9094052E-04  4.0966913E-04  3.9772757E-04
  -8.00000  4.2016443E-04  4.4151599E-04  4.2832763E-04
  -7.00000  4.5369339E-04  4.7828376E-04  4.6353336E-04
  -6.00000  4.9252953E-04  5.2116918E-04  5.0443314E-04
  -5.00000  5.3801124E-04  5.7178399E-04  5.5248385E-04
  -4.00000  5.9196866E-04  6.3235045E-04  6.0968177E-04
  -3.00000  6.5697582E-04  7.0601947E-04  6.7883948E-04
  -2.00000  7.3677992E-04  7.9741245E-04  7.6405624E-04
  -1.00000  8.3707692E-04  9.1359957E-04  8.7156504E-04
   0.00000  9.6702605E-04  1.0660032E-03  1.0113768E-03
   1.00000  1.1425302E-03  1.2744952E-03  1.2008098E-03
   2.00000  1.3944667E-03  1.5775846E-03  1.4732195E-03
   3.00000  1.7944938E-03  2.0640191E-03  1.9047638E-03
   4.00000  2.5706364E-03  3.0130076E-03  2.7303019E-03
   5.00000  4.7138030E-03  5.6209375E-03  4.9546831E-03
   5.20000  5.3960483E-03  6.4436107E-03  5.6884047E-03
   5.40000  6.0923262E-03  7.2797082E-03  6.4746767E-03
   5.60000  6.7850710E-03  8.1111901E-03  7.2997045E-03
   5.80000  7.4821580E-03  8.9522722E-03  8.1622958E-03
   6.00000  8.1996065E-03  9.8271976E-03  9.0583966E-03
   6.20000  8.9531988E-03  1.0759371E-02  9.9775647E-03
   6.40000  9.7570277E-03  1.1768771E-02  1.0910066E-02
   6.60000  1.0624428E-02  1.2872183E-02  1.1857526E-02
   6.80000  1.1569142E-02  1.4084302E-02  1.2839093E-02
   7.00000  1.2605819E-02  1.5419085E-02  1.3888686E-02
   7.20000  1.3749417E-02  1.6890747E-02  1.5045997E-02
   7.40000  1.5012921E-02  1.8513887E-02  1.6347142E-02
   7.60000  1.6402669E-02  2.0302554E-02  1.7818374E-02
   7.80000  1.7911507E-02  2.2268574E-02  1.9472514E-02
   8.00000  1.9512937E-02  2.4419853E-02  2.1306620E-02
   8.20000  2.1162620E-02  2.6759538E-02  2.3300391E-02
   8.40000  2.2811503E-02  2.9286233E-02  2.5416022E-02
   8.60000  2.4424697E-02  3.1994144E-02  2.7600418E-02
   8.80000  2.5991904E-02  3.4872209E-02  2.9790053E-02
   9.00000  2.7521369E-02  3.7902360E-02  3.1917682E-02
   9.20000  2.9024397E-02  4.1056360E-02  3.3920202E-02
   9.40000  3.0502183E-02  4.4288946E-02  3.5747739E-02
   9.60000  3.1941257E-02  4.7528818E-02  3.7371337E-02
   9.80000  3.3317089E-02  5.0672842E-02  3.8784595E-02
   10.0000  3.4599910E-02  5.3584324E-02  3.9998957E-02
   10.2500  3.6024688E-02  5.6639723E-02  4.1269173E-02
   10.5000  3.7194147E-02  5.8711724E-02  4.2300249E-02
   10.7500  3.8054542E-02  5.9494508E-02  4.3109994E-02
   11.0000  3.8572874E-02  5.8851343E-02  4.3686238E-02
   11.2500  3.8753625E-02  5.6891675E-02  4.3996145E-02
   11.5000  3.8643865E-02  5.3939099E-02  4.4010051E-02
   11.7500  3.8321997E-02  5.0407213E-02  4.3724574E-02
   12.0000  3.7877137E-02  4.6674204E-02  4.3167464E-02
   12.2500  3.7388620E-02  4.3019808E-02  4.2386622E-02
   12.5000  3.6914325E-02  3.9617265E-02  4.1440406E-02
   12.7500  3.6490701E-02  3.6551192E-02  4.0391522E-02
   13.0000  3.6138438E-02  3.3844324E-02  3.9300870E-02
   13.2500  3.5867789E-02  3.1483191E-02  3.8222284E-02
   13.5000  3.5682072E-02  2.9437174E-02  3.7199461E-02
   13.7500  3.5579783E-02  2.7670232E-02  3.6265033E-02
   14.0000  3.5555836E-02  2.6147077E-02  3.5441050E-02
   14.2500  3.5602293E-02  2.4835883E-02  3.4740187E-02
   14.5000  3.5708802E-02  2.3709103E-02  3.4167183E-02
   14.7500  3.5862846E-02  2.2743386E-02  3.3720255E-02
   15.0000  3.6049924E-02  2.1919119E-02  3.3392370E-02
   15.2500  3.6253750E-02  2.1219892E-02  3.3172373E-02
   15.5000  3.6456600E-02  2.0631993E-02  3.3046031E-02
   15.7500  3.6639915E-02  2.0143955E-02  3.2997022E-02
   16.0000  3.6785262E-02  1.9746180E-02  3.3007953E-02
   16.2500  3.6875647E-02  1.9430610E-02  3.3061371E-02
   16.5000  3.6897083E-02  1.9190449E-02  3.3140748E-02
   16.7500  3.6840159E-02  1.9019922E-02  3.3231338E-02
   17.0000  3.6701293E-02  1.8914067E-02  3.3320814E-02
   17.2500  3.6483344E-02  1.8868558E-02  3.3399622E-02
   17.5000  3.6195411E-02  1.8879564E-02  3.3461027E-02
   17.7500  3.5851786E-02  1.8943635E-02  3.3500895E-02
   18.0000  3.5470284E-02  1.9057625E-02  3.3517277E-02
   18.2500  3.5070274E-02  1.9218635E-02  3.3509903E-02
   18.5000  3.4670762E-02  1.9423977E-02  3.3479665E-02
   18.7500  3.4288828E-02  1.9671165E-02  3.3428146E-02
   19.0000  3.3938553E-02  1.9957918E-02  3.3357248E-02
   19.2500  3.3630453E-02  2.0282200E-02  3.3268892E-02
   19.5000  3.3371347E-02  2.0642253E-02  3.3164826E-02
   19.7500  3.3164508E-02  2.1036591E-02  3.3046516E-02
   20.0000  3.3010011E-02  2.1463795E-02  3.2915149E-02
   21.0000  3.2835936E-02  2.3459034E-02  3.2277700E-02
   22.0000  3.3046761E-02  2.5799284E-02  3.1486865E-02
   23.0000  3.3129845E-02  2.8329080E-02  3.0559986E-02
   24.0000  3.2669433E-02  3.0843118E-02  2.9529465E-02
   25.0000  3.1537366E-02  3.3054213E-02  2.8467450E-02
   26.0000  2.9940479E-02  3.4651164E-02  2.7471214E-02
   27.0000  2.8241916E-02  3.5482730E-02  2.6602837E-02
   28.0000  2.6763844E-02  3.5589928E-02  2.5900263E-02
   29.0000  2.5664834E-02  3.5143237E-02  2.5397192E-02
   30.0000  2.4941854E-02  3.4353805E-02  2.5101902E-02
   31.0000  2.4508810E-02  3.3399527E-02  2.4974598E-02
   32.0000  2.4265447E-02  3.2395106E-02  2.4937081E-02
   33.0000  2.4129110E-02  3.1396178E-02  2.4901610E-02
   34.0000  2.4041070E-02  3.0417488E-02  2.4796147E-02
   35.0000  2.3962565E-02  2.9452880E-02  2.4579599E-02
   36.0000  2.3869066E-02  2.8492569E-02  2.4249505E-02
   37.0000  2.3746064E-02  2.7537115E-02  2.3840632E-02
   38.0000  2.3589297E-02  2.6608711E-02  2.3411211E-02
   39.0000  2.3411019E-02  2.5760071E-02  2.3021838E-02
   40.0000  2.3244699E-02  2.5071932E-02  2.2717627E-02
