    Energy   (100,001)      (010,001)      (001,110)   
  -25.0000  1.6600603E-04  1.7624078E-04  1.7301442E-04
  -24.0000  1.7235155E-04  1.8311028E-04  1.7958747E-04
  -23.0000  1.7914534E-04  1.9048340E-04  1.8662835E-04
  -22.0000  1.8643466E-04  1.9841582E-04  1.9418708E-04
  -21.0000  1.9427349E-04  2.0697157E-04  2.0232093E-04
  -20.0000  2.0272377E-04  2.1622470E-04  2.1109580E-04
  -19.0000  2.1185693E-04  2.2626121E-04  2.2058784E-04
  -18.0000  2.2175576E-04  2.3718160E-04  2.3088556E-04
  -17.0000  2.3251669E-04  2.4910400E-04  2.4209238E-04
  -16.0000  2.4425276E-04  2.6216815E-04  2.5432992E-04
  -15.0000  2.5709730E-04  2.7654053E-04  2.6774210E-04
  -14.0000  2.7120867E-04  2.9242097E-04  2.8250052E-04
  -13.0000  2.8677638E-04  3.1005135E-04  2.9881139E-04
  -12.0000  3.0402913E-04  3.2972711E-04  3.1692462E-04
  -11.0000  3.2324545E-04  3.5181273E-04  3.3714609E-04
  -10.0000  3.4476806E-04  3.7676285E-04  3.5985414E-04
  -9.00000  3.6902351E-04  4.0515161E-04  3.8552238E-04
  -8.00000  3.9654961E-04  4.3771411E-04  4.1475174E-04
  -7.00000  4.2803445E-04  4.7540623E-04  4.4831653E-04
  -6.00000  4.6437344E-04  5.1949317E-04  4.8723227E-04
  -5.00000  5.0675502E-04  5.7168400E-04  5.3285872E-04
  -4.00000  5.5679377E-04  6.3434290E-04  5.8706171E-04
  -3.00000  6.1674577E-04  7.1083381E-04  6.5247855E-04
  -2.00000  6.8987457E-04  8.0610932E-04  7.3297610E-04
  -1.00000  7.8111291E-04  9.2777720E-04  8.3449520E-04
   0.00000  8.9835868E-04  1.0881818E-03  9.6674481E-04
   1.00000  1.0553004E-03  1.3088970E-03  1.1470149E-03
   2.00000  1.2785839E-03  1.6319289E-03  1.4102711E-03
   3.00000  1.6306313E-03  2.1545599E-03  1.8432437E-03
   4.00000  2.3137879E-03  3.1844461E-03  2.7523246E-03
   5.00000  4.2153897E-03  6.0464992E-03  5.5255647E-03
   5.20000  4.8122049E-03  6.9516188E-03  6.3315510E-03
   5.40000  5.4125542E-03  7.8683549E-03  7.0609312E-03
   5.60000  6.0034896E-03  8.7720292E-03  7.6979312E-03
   5.80000  6.5965310E-03  9.6730970E-03  8.2681888E-03
   6.00000  7.2102742E-03  1.0594830E-02  8.8006601E-03
   6.20000  7.8626564E-03  1.1562771E-02  9.3201850E-03
   6.40000  8.5690198E-03  1.2602160E-02  9.8512478E-03
   6.60000  9.3409049E-03  1.3737817E-02  1.0419853E-02
   6.80000  1.0184151E-02  1.4994858E-02  1.1052481E-02
   7.00000  1.1096422E-02  1.6399691E-02  1.1773556E-02
   7.20000  1.2064723E-02  1.7980825E-02  1.2601989E-02
   7.40000  1.3063989E-02  1.9769230E-02  1.3547281E-02
   7.60000  1.4058656E-02  2.1798375E-02  1.4606747E-02
   7.80000  1.5009415E-02  2.4103686E-02  1.5766790E-02
   8.00000  1.5885189E-02  2.6720618E-02  1.7010297E-02
   8.20000  1.6675454E-02  2.9680585E-02  1.8327683E-02
   8.40000  1.7395178E-02  3.3004131E-02  1.9724225E-02
   8.60000  1.8078728E-02  3.6690521E-02  2.1217379E-02
   8.80000  1.8767214E-02  4.0703151E-02  2.2825130E-02
   9.00000  1.9497434E-02  4.4951409E-02  2.4552844E-02
   9.20000  2.0297063E-02  4.9272776E-02  2.6385799E-02
   9.40000  2.1185063E-02  5.3424242E-02  2.8289747E-02
   9.60000  2.2173689E-02  5.7096470E-02  3.0217530E-02
   9.80000  2.3269443E-02  5.9960995E-02  3.2118009E-02
   10.0000  2.4472973E-02  6.1744236E-02  3.3943698E-02
   10.2500  2.6120717E-02  6.2245245E-02  3.6059584E-02
   10.5000  2.7905654E-02  6.0912068E-02  3.7928318E-02
   10.7500  2.9786393E-02  5.8150257E-02  3.9490521E-02
   11.0000  3.1703262E-02  5.4514983E-02  4.0700026E-02
   11.2500  3.3588387E-02  5.0523770E-02  4.1533135E-02
   11.5000  3.5377139E-02  4.6555351E-02  4.1993515E-02
   11.7500  3.7015628E-02  4.2836035E-02  4.2111236E-02
   12.0000  3.8464812E-02  3.9472032E-02  4.1937347E-02
   12.2500  3.9701080E-02  3.6492611E-02  4.1536203E-02
   12.5000  4.0715043E-02  3.3885805E-02  4.0977107E-02
   12.7500  4.1510815E-02  3.1620790E-02  4.0326630E-02
   13.0000  4.2103777E-02  2.9660104E-02  3.9643472E-02
   13.2500  4.2516387E-02  2.7966222E-02  3.8976129E-02
   13.5000  4.2774429E-02  2.6504765E-02  3.8361886E-02
   13.7500  4.2904626E-02  2.5245741E-02  3.7826325E-02
   14.0000  4.2933091E-02  2.4163722E-02  3.7383993E-02
   14.2500  4.2883760E-02  2.3237459E-02  3.7040172E-02
   14.5000  4.2776831E-02  2.2449259E-02  3.6792771E-02
   14.7500  4.2627742E-02  2.1784324E-02  3.6633814E-02
   15.0000  4.2446863E-02  2.1230153E-02  3.6550629E-02
   15.2500  4.2239810E-02  2.0776038E-02  3.6527000E-02
   15.5000  4.2008217E-02  2.0412686E-02  3.6544432E-02
   15.7500  4.1750801E-02  2.0131936E-02  3.6583595E-02
   16.0000  4.1464564E-02  1.9926562E-02  3.6625835E-02
   16.2500  4.1146014E-02  1.9790135E-02  3.6654612E-02
   16.5000  4.0792280E-02  1.9716925E-02  3.6656653E-02
   16.7500  4.0402025E-02  1.9701808E-02  3.6622663E-02
   17.0000  3.9976091E-02  1.9740201E-02  3.6547516E-02
   17.2500  3.9517824E-02  1.9827978E-02  3.6429967E-02
   17.5000  3.9033074E-02  1.9961401E-02  3.6272007E-02
   17.7500  3.8529903E-02  2.0137056E-02  3.6078017E-02
   18.0000  3.8018061E-02  2.0351795E-02  3.5853890E-02
   18.2500  3.7508317E-02  2.0602702E-02  3.5606241E-02
   18.5000  3.7011728E-02  2.0887079E-02  3.5341759E-02
   18.7500  3.6538935E-02  2.1202450E-02  3.5066729E-02
   19.0000  3.6099538E-02  2.1546595E-02  3.4786697E-02
   19.2500  3.5701574E-02  2.1917608E-02  3.4506254E-02
   19.5000  3.5351115E-02  2.2313956E-02  3.4228909E-02
   19.7500  3.5052000E-02  2.2734476E-02  3.3957063E-02
   20.0000  3.4805730E-02  2.3178178E-02  3.3692118E-02
   21.0000  3.4309262E-02  2.5153169E-02  3.2709562E-02
   22.0000  3.4312240E-02  2.7355350E-02  3.1822576E-02
   23.0000  3.4204311E-02  2.9632283E-02  3.0943651E-02
   24.0000  3.3426344E-02  3.1756143E-02  2.9997701E-02
   25.0000  3.1889638E-02  3.3453818E-02  2.8970451E-02
   26.0000  2.9972201E-02  3.4511127E-02  2.7916412E-02
   27.0000  2.8100743E-02  3.4882288E-02  2.6919437E-02
   28.0000  2.6522104E-02  3.4658332E-02  2.6060869E-02
   29.0000  2.5311820E-02  3.3995385E-02  2.5391434E-02
   30.0000  2.4439808E-02  3.3055923E-02  2.4914192E-02
   31.0000  2.3826946E-02  3.1969450E-02  2.4589356E-02
   32.0000  2.3382269E-02  3.0821273E-02  2.4355093E-02
   33.0000  2.3022323E-02  2.9659530E-02  2.4150701E-02
   34.0000  2.2679743E-02  2.8507170E-02  2.3931343E-02
   35.0000  2.2309082E-02  2.7373822E-02  2.3671935E-02
   36.0000  2.1892590E-02  2.6266833E-02  2.3365297E-02
   37.0000  2.1442268E-02  2.5200583E-02  2.3019895E-02
   38.0000  2.0993661E-02  2.4203539E-02  2.2658898E-02
   39.0000  2.0592271E-02  2.3323683E-02  2.2318786E-02
   40.0000  2.0276665E-02  2.2625715E-02  2.2041390E-02
