    Energy   (100,001)      (010,001)      (001,110)   
  -25.0000  1.6858136E-04  1.9016455E-04  1.7532884E-04
  -24.0000  1.7501809E-04  1.9707462E-04  1.8206506E-04
  -23.0000  1.8191022E-04  2.0447003E-04  1.8928612E-04
  -22.0000  1.8930590E-04  2.1240296E-04  1.9704443E-04
  -21.0000  1.9726017E-04  2.2093328E-04  2.0540009E-04
  -20.0000  2.0583623E-04  2.3013000E-04  2.1442232E-04
  -19.0000  2.1510700E-04  2.4007308E-04  2.2419126E-04
  -18.0000  2.2515705E-04  2.5085569E-04  2.3480020E-04
  -17.0000  2.3608496E-04  2.6258698E-04  2.4635832E-04
  -16.0000  2.4800636E-04  2.7539569E-04  2.5899422E-04
  -15.0000  2.6105776E-04  2.8943468E-04  2.7286040E-04
  -14.0000  2.7540141E-04  3.0488681E-04  2.8813901E-04
  -13.0000  2.9123165E-04  3.2197264E-04  3.0504938E-04
  -12.0000  3.0878319E-04  3.4096051E-04  3.2385790E-04
  -11.0000  3.2834217E-04  3.6218017E-04  3.4489133E-04
  -10.0000  3.5026092E-04  3.8604121E-04  3.6855478E-04
  -9.00000  3.7497831E-04  4.1305855E-04  3.9535656E-04
  -8.00000  4.0304802E-04  4.4388827E-04  4.2594321E-04
  -7.00000  4.3517875E-04  4.7937915E-04  4.6114977E-04
  -6.00000  4.7229279E-04  5.2064843E-04  5.0207402E-04
  -5.00000  5.1561367E-04  5.6919629E-04  5.5018896E-04
  -4.00000  5.6680138E-04  6.2708449E-04  6.0751939E-04
  -3.00000  6.2816936E-04  6.9722594E-04  6.7693024E-04
  -2.00000  7.0304861E-04  7.8387596E-04  7.6262134E-04
  -1.00000  7.9643501E-04  8.9351538E-04  8.7102989E-04
   0.00000  9.1622770E-04  1.0365602E-03  1.0126123E-03
   1.00000  1.0758444E-03  1.2310203E-03  1.2057543E-03
   2.00000  1.3005764E-03  1.5115379E-03  1.4867299E-03
   3.00000  1.6467255E-03  1.9572125E-03  1.9414285E-03
   4.00000  2.2833459E-03  2.8141302E-03  2.8494902E-03
   5.00000  3.9081279E-03  5.1264320E-03  5.4448468E-03
   5.20000  4.4214995E-03  5.8527453E-03  6.2770685E-03
   5.40000  4.9618422E-03  6.5932925E-03  7.1265561E-03
   5.60000  5.5280823E-03  7.3342134E-03  7.9746982E-03
   5.80000  6.1354755E-03  8.0892139E-03  8.8350861E-03
   6.00000  6.7996429E-03  8.8804224E-03  9.7304594E-03
   6.20000  7.5275045E-03  9.7298717E-03  1.0680714E-02
   6.40000  8.3164889E-03  1.0657895E-02  1.1698560E-02
   6.60000  9.1605368E-03  1.1682886E-02  1.2786403E-02
   6.80000  1.0058376E-02  1.2820722E-02  1.3931909E-02
   7.00000  1.1018105E-02  1.4084207E-02  1.5103898E-02
   7.20000  1.2055935E-02  1.5483548E-02  1.6254447E-02
   7.40000  1.3191156E-02  1.7028147E-02  1.7333259E-02
   7.60000  1.4439796E-02  1.8727969E-02  1.8312443E-02
   7.80000  1.5808124E-02  2.0590955E-02  1.9207972E-02
   8.00000  1.7287009E-02  2.2615211E-02  2.0081818E-02
   8.20000  1.8849471E-02  2.4781213E-02  2.1022449E-02
   8.40000  2.0454767E-02  2.7053333E-02  2.2117061E-02
   8.60000  2.2060023E-02  2.9394520E-02  2.3430783E-02
   8.80000  2.3634766E-02  3.1786126E-02  2.4998541E-02
   9.00000  2.5170153E-02  3.4239110E-02  2.6825819E-02
   9.20000  2.6677230E-02  3.6786983E-02  2.8891818E-02
   9.40000  2.8174075E-02  3.9459329E-02  3.1150912E-02
   9.60000  2.9670149E-02  4.2250901E-02  3.3533179E-02
   9.80000  3.1158186E-02  4.5106417E-02  3.5947672E-02
   10.0000  3.2613606E-02  4.7921046E-02  3.8290001E-02
   10.2500  3.4326331E-02  5.1154844E-02  4.0953811E-02
   10.5000  3.5830252E-02  5.3750612E-02  4.3152968E-02
   10.7500  3.7027752E-02  5.5376573E-02  4.4760901E-02
   11.0000  3.7844552E-02  5.5807873E-02  4.5728182E-02
   11.2500  3.8251965E-02  5.5003090E-02  4.6079048E-02
   11.5000  3.8276628E-02  5.3118475E-02  4.5891455E-02
   11.7500  3.7991918E-02  5.0449576E-02  4.5272259E-02
   12.0000  3.7496178E-02  4.7335178E-02  4.4337360E-02
   12.2500  3.6889325E-02  4.4075378E-02  4.3197729E-02
   12.5000  3.6256558E-02  4.0890989E-02  4.1950889E-02
   12.7500  3.5661114E-02  3.7919331E-02  4.0678240E-02
   13.0000  3.5143938E-02  3.5230011E-02  3.9443885E-02
   13.2500  3.4727330E-02  3.2846185E-02  3.8293765E-02
   13.5000  3.4420140E-02  3.0762664E-02  3.7257882E-02
   13.7500  3.4222591E-02  2.8958733E-02  3.6354324E-02
   14.0000  3.4129778E-02  2.7406546E-02  3.5592605E-02
   14.2500  3.4133857E-02  2.6076296E-02  3.4975812E-02
   14.5000  3.4225280E-02  2.4939153E-02  3.4501941E-02
   14.7500  3.4393404E-02  2.3968754E-02  3.4164735E-02
   15.0000  3.4626751E-02  2.3141830E-02  3.3954186E-02
   15.2500  3.4913089E-02  2.2438325E-02  3.3856850E-02
   15.5000  3.5239517E-02  2.1841248E-02  3.3856117E-02
   15.7500  3.5592641E-02  2.1336423E-02  3.3932583E-02
   16.0000  3.5958924E-02  2.0912195E-02  3.4064661E-02
   16.2500  3.6325184E-02  2.0559138E-02  3.4229504E-02
   16.5000  3.6679192E-02  2.0269785E-02  3.4404228E-02
   16.7500  3.7010302E-02  2.0038350E-02  3.4567353E-02
   17.0000  3.7310008E-02  1.9860467E-02  3.4700255E-02
   17.2500  3.7572352E-02  1.9732912E-02  3.4788405E-02
   17.5000  3.7794124E-02  1.9653336E-02  3.4822187E-02
   17.7500  3.7974808E-02  1.9620008E-02  3.4797143E-02
   18.0000  3.8116300E-02  1.9631583E-02  3.4713643E-02
   18.2500  3.8222418E-02  1.9686918E-02  3.4576090E-02
   18.5000  3.8298281E-02  1.9784935E-02  3.4391820E-02
   18.7500  3.8349634E-02  1.9924542E-02  3.4169920E-02
   19.0000  3.8382192E-02  2.0104599E-02  3.3920106E-02
   19.2500  3.8401083E-02  2.0323939E-02  3.3651775E-02
   19.5000  3.8410399E-02  2.0581403E-02  3.3373295E-02
   19.7500  3.8412895E-02  2.0875853E-02  3.3091562E-02
   20.0000  3.8409804E-02  2.1206032E-02  3.2811908E-02
   21.0000  3.8314260E-02  2.2844626E-02  3.1781649E-02
   22.0000  3.7909575E-02  2.4890250E-02  3.0946704E-02
   23.0000  3.6919850E-02  2.7217006E-02  3.0244393E-02
   24.0000  3.5246538E-02  2.9633100E-02  2.9568032E-02
   25.0000  3.3082293E-02  3.1842053E-02  2.8843075E-02
   26.0000  3.0766069E-02  3.3583555E-02  2.8045671E-02
   27.0000  2.8622326E-02  3.4691024E-02  2.7204031E-02
   28.0000  2.6849379E-02  3.5131691E-02  2.6386486E-02
   29.0000  2.5497134E-02  3.5010436E-02  2.5674152E-02
   30.0000  2.4521579E-02  3.4508377E-02  2.5127180E-02
   31.0000  2.3842630E-02  3.3805484E-02  2.4761452E-02
   32.0000  2.3373530E-02  3.3032952E-02  2.4547118E-02
   33.0000  2.3032869E-02  3.2262958E-02  2.4423564E-02
   34.0000  2.2750835E-02  3.1521437E-02  2.4318954E-02
   35.0000  2.2473648E-02  3.0808739E-02  2.4167458E-02
   36.0000  2.2167081E-02  3.0118654E-02  2.3922633E-02
   37.0000  2.1818942E-02  2.9450834E-02  2.3568132E-02
   38.0000  2.1440448E-02  2.8817014E-02  2.3125840E-02
   39.0000  2.1066228E-02  2.8246033E-02  2.2658099E-02
   40.0000  2.0747725E-02  2.7785880E-02  2.2252795E-02
