    Energy   (100,001)      (010,001)      (001,110)   
  -25.0000  1.6403711E-04  1.7535756E-04  1.6581835E-04
  -24.0000  1.7021060E-04  1.8222022E-04  1.7217277E-04
  -23.0000  1.7681267E-04  1.8958748E-04  1.7897719E-04
  -22.0000  1.8388766E-04  1.9751523E-04  1.8627917E-04
  -21.0000  1.9148615E-04  2.0606777E-04  1.9413310E-04
  -20.0000  1.9966601E-04  2.1531942E-04  2.0260141E-04
  -19.0000  2.0849380E-04  2.2535656E-04  2.1175613E-04
  -18.0000  2.1804643E-04  2.3628012E-04  2.2168081E-04
  -17.0000  2.2841324E-04  2.4820872E-04  2.3247283E-04
  -16.0000  2.3969860E-04  2.6128273E-04  2.4424643E-04
  -15.0000  2.5202514E-04  2.7566934E-04  2.5713648E-04
  -14.0000  2.6553797E-04  2.9156925E-04  2.7130330E-04
  -13.0000  2.8041000E-04  3.0922540E-04  2.8693897E-04
  -12.0000  2.9684889E-04  3.2893445E-04  3.0427558E-04
  -11.0000  3.1510625E-04  3.5106234E-04  3.2359614E-04
  -10.0000  3.3548985E-04  3.7606539E-04  3.4524946E-04
  -9.00000  3.5838029E-04  4.0451967E-04  3.6967037E-04
  -8.00000  3.8425388E-04  4.3716231E-04  3.9740821E-04
  -7.00000  4.1371497E-04  4.7495116E-04  4.2916738E-04
  -6.00000  4.4754254E-04  5.1915275E-04  4.6586688E-04
  -5.00000  4.8675908E-04  5.7147567E-04  5.0872994E-04
  -4.00000  5.3273591E-04  6.3427913E-04  5.5942391E-04
  -3.00000  5.8736029E-04  7.1091156E-04  6.2028719E-04
  -2.00000  6.5331339E-04  8.0628557E-04  6.9471621E-04
  -1.00000  7.3456106E-04  9.2791018E-04  7.8786644E-04
   0.00000  8.3729029E-04  1.0878820E-03  9.0802491E-04
   1.00000  9.7189670E-04  1.3071147E-03  1.0695877E-03
   2.00000  1.1578980E-03  1.6256516E-03  1.3005050E-03
   3.00000  1.4392664E-03  2.1337749E-03  1.6652325E-03
   4.00000  1.9537603E-03  3.1052815E-03  2.3631682E-03
   5.00000  3.2943595E-03  5.6783905E-03  4.2545503E-03
   5.20000  3.7059224E-03  6.4955255E-03  4.9036345E-03
   5.40000  4.1165803E-03  7.3456761E-03  5.6301426E-03
   5.60000  4.5157105E-03  8.2167697E-03  6.4350262E-03
   5.80000  4.9093772E-03  9.1238525E-03  7.3273318E-03
   6.00000  5.3083688E-03  1.0088786E-02  8.3060398E-03
   6.20000  5.7224695E-03  1.1130269E-02  9.3455273E-03
   6.40000  6.1592376E-03  1.2262354E-02  1.0389732E-02
   6.60000  6.6244968E-03  1.3497996E-02  1.1363268E-02
   6.80000  7.1235883E-03  1.4855886E-02  1.2202371E-02
   7.00000  7.6626685E-03  1.6366413E-02  1.2887558E-02
   7.20000  8.2491471E-03  1.8071739E-02  1.3449878E-02
   7.40000  8.8910383E-03  2.0019850E-02  1.3947095E-02
   7.60000  9.5959442E-03  2.2257081E-02  1.4434531E-02
   7.80000  1.0370441E-02  2.4822657E-02  1.4951270E-02
   8.00000  1.1220065E-02  2.7745367E-02  1.5521422E-02
   8.20000  1.2149758E-02  3.1040612E-02  1.6160067E-02
   8.40000  1.3164601E-02  3.4705755E-02  1.6876893E-02
   8.60000  1.4270644E-02  3.8711849E-02  1.7676770E-02
   8.80000  1.5475326E-02  4.2990638E-02  1.8559556E-02
   9.00000  1.6786872E-02  4.7418730E-02  1.9520965E-02
   9.20000  1.8212460E-02  5.1805460E-02  2.0554502E-02
   9.40000  1.9755595E-02  5.5894866E-02  2.1653421E-02
   9.60000  2.1413531E-02  5.9391917E-02  2.2811981E-02
   9.80000  2.3175202E-02  6.2013962E-02  2.4025694E-02
   10.0000  2.5019288E-02  6.3551166E-02  2.5289806E-02
   10.2500  2.7387804E-02  6.3815467E-02  2.6927520E-02
   10.5000  2.9739857E-02  6.2337315E-02  2.8601589E-02
   10.7500  3.1969162E-02  5.9459024E-02  3.0273744E-02
   11.0000  3.3976832E-02  5.5654467E-02  3.1903586E-02
   11.2500  3.5689236E-02  5.1397103E-02  3.3452512E-02
   11.5000  3.7067801E-02  4.7071017E-02  3.4884768E-02
   11.7500  3.8110471E-02  4.2939521E-02  3.6166947E-02
   12.0000  3.8845554E-02  3.9155096E-02  3.7269245E-02
   12.2500  3.9321514E-02  3.5786872E-02  3.8169456E-02
   12.5000  3.9596472E-02  3.2848992E-02  3.8857580E-02
   12.7500  3.9729396E-02  3.0323000E-02  3.9339325E-02
   13.0000  3.9773684E-02  2.8173431E-02  3.9637475E-02
   13.2500  3.9772909E-02  2.6358097E-02  3.9789885E-02
   13.5000  3.9758585E-02  2.4834439E-02  3.9843747E-02
   13.7500  3.9750350E-02  2.3562920E-02  3.9848453E-02
   14.0000  3.9757979E-02  2.2508509E-02  3.9849805E-02
   14.2500  3.9783758E-02  2.1641037E-02  3.9885896E-02
   14.5000  3.9824431E-02  2.0934952E-02  3.9984435E-02
   14.7500  3.9872696E-02  2.0368818E-02  4.0161387E-02
   15.0000  3.9918406E-02  1.9924758E-02  4.0420692E-02
   15.2500  3.9949618E-02  1.9587888E-02  4.0754697E-02
   15.5000  3.9953572E-02  1.9345817E-02  4.1145168E-02
   15.7500  3.9917688E-02  1.9188201E-02  4.1564913E-02
   16.0000  3.9830616E-02  1.9106365E-02  4.1980155E-02
   16.2500  3.9683313E-02  1.9093004E-02  4.2353760E-02
   16.5000  3.9470052E-02  1.9141925E-02  4.2649147E-02
   16.7500  3.9189224E-02  1.9247852E-02  4.2834447E-02
   17.0000  3.8843772E-02  1.9406238E-02  4.2886212E-02
   17.2500  3.8441143E-02  1.9613109E-02  4.2791929E-02
   17.5000  3.7992744E-02  1.9864908E-02  4.2550830E-02
   17.7500  3.7512961E-02  2.0158346E-02  4.2172915E-02
   18.0000  3.7017900E-02  2.0490285E-02  4.1676555E-02
   18.2500  3.6524064E-02  2.0857637E-02  4.1085349E-02
   18.5000  3.6047133E-02  2.1257307E-02  4.0424937E-02
   18.7500  3.5601002E-02  2.1686170E-02  3.9720293E-02
   19.0000  3.5197126E-02  2.2141115E-02  3.8993782E-02
   19.2500  3.4844171E-02  2.2619130E-02  3.8263988E-02
   19.5000  3.4547916E-02  2.3117424E-02  3.7545202E-02
   19.7500  3.4311339E-02  2.3633486E-02  3.6847474E-02
   20.0000  3.4134843E-02  2.4164914E-02  3.6177229E-02
   21.0000  3.3972402E-02  2.6380886E-02  3.3831911E-02
   22.0000  3.4419207E-02  2.8588655E-02  3.2035084E-02
   23.0000  3.4995575E-02  3.0628756E-02  3.0658186E-02
   24.0000  3.5190009E-02  3.2333541E-02  2.9548227E-02
   25.0000  3.4654102E-02  3.3523015E-02  2.8596738E-02
   26.0000  3.3373749E-02  3.4106496E-02  2.7748474E-02
   27.0000  3.1646391E-02  3.4099601E-02  2.7002959E-02
   28.0000  2.9855939E-02  3.3606259E-02  2.6391077E-02
   29.0000  2.8271427E-02  3.2779663E-02  2.5931868E-02
   30.0000  2.6992056E-02  3.1769405E-02  2.5605805E-02
   31.0000  2.5993420E-02  3.0686354E-02  2.5360805E-02
   32.0000  2.5196775E-02  2.9594923E-02  2.5134120E-02
   33.0000  2.4517757E-02  2.8523336E-02  2.4868537E-02
   34.0000  2.3889637E-02  2.7479658E-02  2.4518330E-02
   35.0000  2.3271347E-02  2.6464760E-02  2.4051929E-02
   36.0000  2.2648709E-02  2.5480252E-02  2.3458023E-02
   37.0000  2.2031198E-02  2.4534051E-02  2.2754650E-02
   38.0000  2.1445487E-02  2.3646900E-02  2.1995898E-02
   39.0000  2.0928534E-02  2.2860029E-02  2.1269393E-02
   40.0000  2.0519143E-02  2.2233132E-02  2.0674678E-02
