    Energy   (100,001)      (010,001)      (001,110)   
  -25.0000  1.6742098E-04  1.8926826E-04  1.7762392E-04
  -24.0000  1.7371337E-04  1.9624089E-04  1.8442668E-04
  -23.0000  1.8044353E-04  2.0370727E-04  1.9171858E-04
  -22.0000  1.8765692E-04  2.1172075E-04  1.9955252E-04
  -21.0000  1.9540537E-04  2.2034259E-04  2.0798920E-04
  -20.0000  2.0374827E-04  2.2964343E-04  2.1709854E-04
  -19.0000  2.1275396E-04  2.3970516E-04  2.2696152E-04
  -18.0000  2.2250142E-04  2.5062323E-04  2.3767246E-04
  -17.0000  2.3308250E-04  2.6250955E-04  2.4934176E-04
  -16.0000  2.4460454E-04  2.7549620E-04  2.6209958E-04
  -15.0000  2.5719382E-04  2.8974006E-04  2.7610031E-04
  -14.0000  2.7099985E-04  3.0542896E-04  2.9152851E-04
  -13.0000  2.8620097E-04  3.2278958E-04  3.0860657E-04
  -12.0000  3.0301163E-04  3.4209795E-04  3.2760485E-04
  -11.0000  3.2169197E-04  3.6369350E-04  3.4885530E-04
  -10.0000  3.4256063E-04  3.8799822E-04  3.7276993E-04
  -9.00000  3.6601225E-04  4.1554309E-04  3.9986641E-04
  -8.00000  3.9254158E-04  4.4700540E-04  4.3080414E-04
  -7.00000  4.2277756E-04  4.8326238E-04  4.6643624E-04
  -6.00000  4.5753256E-04  5.2547018E-04  5.0788643E-04
  -5.00000  4.9787533E-04  5.7518362E-04  5.5666583E-04
  -4.00000  5.4524265E-04  6.3454340E-04  6.1485673E-04
  -3.00000  6.0161659E-04  7.0658035E-04  6.8541345E-04
  -2.00000  6.6981874E-04  7.9573377E-04  7.7267948E-04
  -1.00000  7.5402710E-04  9.0878721E-04  8.8333172E-04
   0.00000  8.6075185E-04  1.0566908E-03  1.0282434E-03
   1.00000  1.0008645E-03  1.2584900E-03  1.2265572E-03
   2.00000  1.1944375E-03  1.5511229E-03  1.5159663E-03
   3.00000  1.4849645E-03  2.0199349E-03  1.9848949E-03
   4.00000  1.9981211E-03  2.9347774E-03  2.9144583E-03
   5.00000  3.2421534E-03  5.4563132E-03  5.5257314E-03
   5.20000  3.6419348E-03  6.2506441E-03  6.3858077E-03
   5.40000  4.0748314E-03  7.0563146E-03  7.2983368E-03
   5.60000  4.5383170E-03  7.8558817E-03  8.2529975E-03
   5.80000  5.0389561E-03  8.6624562E-03  9.2645595E-03
   6.00000  5.5852882E-03  9.4978493E-03  1.0351226E-02
   6.20000  6.1842922E-03  1.0382846E-02  1.1522747E-02
   6.40000  6.8404183E-03  1.1335959E-02  1.2775650E-02
   6.60000  7.5555356E-03  1.2374543E-02  1.4091502E-02
   6.80000  8.3292943E-03  1.3515677E-02  1.5438620E-02
   7.00000  9.1597987E-03  1.4775795E-02  1.6779466E-02
   7.20000  1.0044425E-02  1.6168661E-02  1.8083330E-02
   7.40000  1.0980425E-02  1.7702330E-02  1.9338137E-02
   7.60000  1.1964879E-02  1.9376960E-02  2.0552546E-02
   7.80000  1.2993933E-02  2.1185463E-02  2.1745911E-02
   8.00000  1.4062117E-02  2.3117596E-02  2.2934140E-02
   8.20000  1.5162980E-02  2.5166432E-02  2.4122123E-02
   8.40000  1.6291400E-02  2.7334717E-02  2.5306193E-02
   8.60000  1.7446290E-02  2.9637503E-02  2.6481904E-02
   8.80000  1.8631431E-02  3.2097908E-02  2.7650542E-02
   9.00000  1.9853311E-02  3.4736382E-02  2.8820768E-02
   9.20000  2.1117424E-02  3.7557594E-02  3.0005160E-02
   9.40000  2.2424861E-02  4.0538437E-02  3.1214105E-02
   9.60000  2.3769649E-02  4.3617609E-02  3.2450301E-02
   9.80000  2.5136878E-02  4.6691096E-02  3.3705710E-02
   10.0000  2.6502058E-02  4.9619654E-02  3.4960972E-02
   10.2500  2.8154174E-02  5.2835655E-02  3.6485528E-02
   10.5000  2.9673531E-02  5.5277338E-02  3.7901140E-02
   10.7500  3.0987210E-02  5.6704512E-02  3.9151734E-02
   11.0000  3.2046357E-02  5.6984734E-02  4.0194736E-02
   11.2500  3.2838301E-02  5.6122442E-02  4.1000542E-02
   11.5000  3.3389547E-02  5.4260299E-02  4.1550257E-02
   11.7500  3.3755991E-02  5.1643579E-02  4.1832650E-02
   12.0000  3.4003657E-02  4.8559187E-02  4.1846242E-02
   12.2500  3.4192123E-02  4.5277265E-02  4.1607775E-02
   12.5000  3.4367421E-02  4.2014709E-02  4.1156661E-02
   12.7500  3.4561749E-02  3.8922733E-02  4.0549948E-02
   13.0000  3.4795953E-02  3.6091427E-02  3.9851759E-02
   13.2500  3.5083140E-02  3.3562499E-02  3.9123029E-02
   13.5000  3.5431645E-02  3.1343676E-02  3.8414643E-02
   13.7500  3.5846355E-02  2.9421327E-02  3.7764293E-02
   14.0000  3.6328907E-02  2.7770148E-02  3.7196200E-02
   14.2500  3.6877499E-02  2.6359903E-02  3.6722500E-02
   14.5000  3.7486681E-02  2.5159735E-02  3.6345289E-02
   14.7500  3.8147271E-02  2.4140675E-02  3.6058754E-02
   15.0000  3.8846414E-02  2.3276885E-02  3.5851130E-02
   15.2500  3.9567809E-02  2.2546112E-02  3.5706479E-02
   15.5000  4.0292143E-02  2.1929650E-02  3.5606361E-02
   15.7500  4.0997770E-02  2.1412044E-02  3.5531440E-02
   16.0000  4.1661707E-02  2.0980679E-02  3.5463067E-02
   16.2500  4.2260932E-02  2.0625351E-02  3.5384756E-02
   16.5000  4.2773929E-02  2.0337853E-02  3.5283437E-02
   16.7500  4.3182336E-02  2.0111614E-02  3.5150339E-02
   17.0000  4.3472478E-02  1.9941382E-02  3.4981354E-02
   17.2500  4.3636572E-02  1.9822950E-02  3.4776851E-02
   17.5000  4.3673385E-02  1.9752920E-02  3.4540984E-02
   17.7500  4.3588223E-02  1.9728502E-02  3.4280649E-02
   18.0000  4.3392253E-02  1.9747345E-02  3.4004297E-02
   18.2500  4.3101269E-02  1.9807403E-02  3.3720782E-02
   18.5000  4.2734102E-02  1.9906848E-02  3.3438420E-02
   18.7500  4.2310914E-02  2.0044012E-02  3.3164311E-02
   19.0000  4.1851584E-02  2.0217383E-02  3.2903965E-02
   19.2500  4.1374327E-02  2.0425629E-02  3.2661163E-02
   19.5000  4.0894647E-02  2.0667644E-02  3.2438014E-02
   19.7500  4.0424686E-02  2.0942551E-02  3.2235131E-02
   20.0000  3.9973121E-02  2.1249587E-02  3.2051905E-02
   21.0000  3.8433041E-02  2.2777341E-02  3.1479405E-02
   22.0000  3.7275979E-02  2.4733361E-02  3.1049664E-02
   23.0000  3.6157640E-02  2.7041627E-02  3.0613827E-02
   24.0000  3.4711280E-02  2.9518237E-02  3.0072030E-02
   25.0000  3.2836032E-02  3.1840956E-02  2.9388931E-02
   26.0000  3.0703236E-02  3.3715416E-02  2.8587842E-02
   27.0000  2.8609990E-02  3.4954411E-02  2.7749365E-02
   28.0000  2.6790949E-02  3.5524414E-02  2.6984841E-02
   29.0000  2.5345136E-02  3.5535552E-02  2.6380778E-02
   30.0000  2.4271348E-02  3.5163459E-02  2.5964879E-02
   31.0000  2.3515649E-02  3.4571065E-02  2.5713468E-02
   32.0000  2.3000544E-02  3.3868783E-02  2.5573573E-02
   33.0000  2.2643953E-02  3.3111416E-02  2.5480517E-02
   34.0000  2.2372155E-02  3.2315133E-02  2.5369504E-02
   35.0000  2.2127652E-02  3.1479047E-02  2.5183861E-02
   36.0000  2.1874288E-02  3.0603139E-02  2.4883636E-02
   37.0000  2.1600125E-02  2.9699893E-02  2.4456310E-02
   38.0000  2.1316108E-02  2.8801482E-02  2.3927540E-02
   39.0000  2.1049090E-02  2.7967497E-02  2.3367342E-02
   40.0000  2.0829721E-02  2.7285869E-02  2.2879186E-02
