    Energy   (100,001)      (010,001)      (001,110)   
  -25.0000  1.6749964E-04  1.8174300E-04  1.7369476E-04
  -24.0000  1.7355330E-04  1.8866263E-04  1.7999116E-04
  -23.0000  1.8001336E-04  1.9608243E-04  1.8671619E-04
  -22.0000  1.8692066E-04  2.0405716E-04  1.9391386E-04
  -21.0000  1.9432163E-04  2.1264979E-04  2.0163435E-04
  -20.0000  2.0226923E-04  2.2193300E-04  2.0993509E-04
  -19.0000  2.1082413E-04  2.3199120E-04  2.1888217E-04
  -18.0000  2.2005619E-04  2.4292288E-04  2.2855200E-04
  -17.0000  2.3004625E-04  2.5484367E-04  2.3903339E-04
  -16.0000  2.4088834E-04  2.6789025E-04  2.5043022E-04
  -15.0000  2.5269249E-04  2.8222521E-04  2.6286474E-04
  -14.0000  2.6558825E-04  2.9804352E-04  2.7648188E-04
  -13.0000  2.7972927E-04  3.1558082E-04  2.9145471E-04
  -12.0000  2.9529909E-04  3.3512455E-04  3.0799178E-04
  -11.0000  3.1251885E-04  3.5702882E-04  3.2634672E-04
  -10.0000  3.3165743E-04  3.8173463E-04  3.4683131E-04
  -9.00000  3.5304517E-04  4.0979795E-04  3.6983341E-04
  -8.00000  3.7709260E-04  4.4192938E-04  3.9584224E-04
  -7.00000  4.0431667E-04  4.7905118E-04  4.2548462E-04
  -6.00000  4.3537813E-04  5.2238155E-04  4.5957860E-04
  -5.00000  4.7113642E-04  5.7356252E-04  4.9921535E-04
  -4.00000  5.1273257E-04  6.3486026E-04  5.4588910E-04
  -3.00000  5.6171924E-04  7.0949143E-04  6.0171331E-04
  -2.00000  6.2027425E-04  8.0217987E-04  6.6980199E-04
  -1.00000  6.9157218E-04  9.2016405E-04  7.5499357E-04
   0.00000  7.8048218E-04  1.0751631E-03  8.6536347E-04
   1.00000  8.9502264E-04  1.2876284E-03  1.0158149E-03
   2.00000  1.0498870E-03  1.5973938E-03  1.2382569E-03
   3.00000  1.2772184E-03  2.0971090E-03  1.6189386E-03
   4.00000  1.6743862E-03  3.0833293E-03  2.4995567E-03
   5.00000  2.6493029E-03  5.8416396E-03  5.5237996E-03
   5.20000  2.9439098E-03  6.6988273E-03  6.3200871E-03
   5.40000  3.2398397E-03  7.5467021E-03  6.8825265E-03
   5.60000  3.5319399E-03  8.3608094E-03  7.1790364E-03
   5.80000  3.8269782E-03  9.1576232E-03  7.2846138E-03
   6.00000  4.1349184E-03  9.9680573E-03  7.2971948E-03
   6.20000  4.4645756E-03  1.0823118E-02  7.2911740E-03
   6.40000  4.8223642E-03  1.1750237E-02  7.3116443E-03
   6.60000  5.2122356E-03  1.2773881E-02  7.3849939E-03
   6.80000  5.6362398E-03  1.3917172E-02  7.5294453E-03
   7.00000  6.0953957E-03  1.5203252E-02  7.7605804E-03
   7.20000  6.5905185E-03  1.6655998E-02  8.0927803E-03
   7.40000  7.1228062E-03  1.8299948E-02  8.5384867E-03
   7.60000  7.6941656E-03  2.0159437E-02  9.1062466E-03
   7.80000  8.3073320E-03  2.2257049E-02  9.7977596E-03
   8.00000  8.9658530E-03  2.4611581E-02  1.0604410E-02
   8.20000  9.6740200E-03  2.7235718E-02  1.1504855E-02
   8.40000  1.0436828E-02  3.0133748E-02  1.2466320E-02
   8.60000  1.1260003E-02  3.3299320E-02  1.3451790E-02
   8.80000  1.2150032E-02  3.6712284E-02  1.4431913E-02
   9.00000  1.3113939E-02  4.0333098E-02  1.5395442E-02
   9.20000  1.4158480E-02  4.4094237E-02  1.6350915E-02
   9.40000  1.5288990E-02  4.7890452E-02  1.7318736E-02
   9.60000  1.6508494E-02  5.1571960E-02  1.8320423E-02
   9.80000  1.7817050E-02  5.4945623E-02  1.9371472E-02
   10.0000  1.9210773E-02  5.7789125E-02  2.0479117E-02
   10.2500  2.1057606E-02  6.0264026E-02  2.1941725E-02
   10.5000  2.2988226E-02  6.1243004E-02  2.3476544E-02
   10.7500  2.4952019E-02  6.0627921E-02  2.5058701E-02
   11.0000  2.6886348E-02  5.8587471E-02  2.6658791E-02
   11.2500  2.8725299E-02  5.5490922E-02  2.8246888E-02
   11.5000  3.0411763E-02  5.1779952E-02  2.9792369E-02
   11.7500  3.1907633E-02  4.7852151E-02  3.1262030E-02
   12.0000  3.3196372E-02  4.4000611E-02  3.2622758E-02
   12.2500  3.4278946E-02  4.0406500E-02  3.3847216E-02
   12.5000  3.5168192E-02  3.7160139E-02  3.4918382E-02
   12.7500  3.5885471E-02  3.4289674E-02  3.5830769E-02
   13.0000  3.6458745E-02  3.1786225E-02  3.6588808E-02
   13.2500  3.6919293E-02  2.9622081E-02  3.7204893E-02
   13.5000  3.7297651E-02  2.7762570E-02  3.7698097E-02
   13.7500  3.7620493E-02  2.6172687E-02  3.8092434E-02
   14.0000  3.7908573E-02  2.4819981E-02  3.8413588E-02
   14.2500  3.8175514E-02  2.3675407E-02  3.8685331E-02
   14.5000  3.8427534E-02  2.2713363E-02  3.8927128E-02
   14.7500  3.8664066E-02  2.1911427E-02  3.9153121E-02
   15.0000  3.8879080E-02  2.1250012E-02  3.9372026E-02
   15.2500  3.9062781E-02  2.0712025E-02  3.9587515E-02
   15.5000  3.9203419E-02  2.0282583E-02  3.9798787E-02
   15.7500  3.9289020E-02  1.9948767E-02  4.0001230E-02
   16.0000  3.9308949E-02  1.9699431E-02  4.0187169E-02
   16.2500  3.9255247E-02  1.9525021E-02  4.0346750E-02
   16.5000  3.9123708E-02  1.9417414E-02  4.0468997E-02
   16.7500  3.8914631E-02  1.9369746E-02  4.0543031E-02
   17.0000  3.8633178E-02  1.9376247E-02  4.0559369E-02
   17.2500  3.8289272E-02  1.9432080E-02  4.0511137E-02
   17.5000  3.7897027E-02  1.9533186E-02  4.0395000E-02
   17.7500  3.7473758E-02  1.9676149E-02  4.0211657E-02
   18.0000  3.7038689E-02  1.9858076E-02  3.9965797E-02
   18.2500  3.6611557E-02  2.0076498E-02  3.9665561E-02
   18.5000  3.6211263E-02  2.0329295E-02  3.9321636E-02
   18.7500  3.5854768E-02  2.0614632E-02  3.8946146E-02
   19.0000  3.5556274E-02  2.0930939E-02  3.8551530E-02
   19.2500  3.5326748E-02  2.1276912E-02  3.8149523E-02
   19.5000  3.5173717E-02  2.1651538E-02  3.7750354E-02
   19.7500  3.5101245E-02  2.2054067E-02  3.7362219E-02
   20.0000  3.5110015E-02  2.2483817E-02  3.6991180E-02
   21.0000  3.5871471E-02  2.4447891E-02  3.5745525E-02
   22.0000  3.7383281E-02  2.6722262E-02  3.4897541E-02
   23.0000  3.8879301E-02  2.9167846E-02  3.4284137E-02
   24.0000  3.9583731E-02  3.1543785E-02  3.3687015E-02
   25.0000  3.9055976E-02  3.3524591E-02  3.2951681E-02
   26.0000  3.7384037E-02  3.4827378E-02  3.2028416E-02
   27.0000  3.5054977E-02  3.5345224E-02  3.0968313E-02
   28.0000  3.2634498E-02  3.5176401E-02  2.9898130E-02
   29.0000  3.0516757E-02  3.4539629E-02  2.8962069E-02
   30.0000  2.8833830E-02  3.3645442E-02  2.8236368E-02
   31.0000  2.7562713E-02  3.2641723E-02  2.7719658E-02
   32.0000  2.6625814E-02  3.1613862E-02  2.7360088E-02
   33.0000  2.5930381E-02  3.0600194E-02  2.7083421E-02
   34.0000  2.5386038E-02  2.9610691E-02  2.6815991E-02
   35.0000  2.4914476E-02  2.8643246E-02  2.6498627E-02
   36.0000  2.4455851E-02  2.7695527E-02  2.6094766E-02
   37.0000  2.3974496E-02  2.6772600E-02  2.5596085E-02
   38.0000  2.3465322E-02  2.5893208E-02  2.5026756E-02
   39.0000  2.2960390E-02  2.5098529E-02  2.4447052E-02
   40.0000  2.2525968E-02  2.4455693E-02  2.3948137E-02
