    Energy   (100,001)      (010,001)      (001,110)   
  -25.0000  1.6646318E-04  1.7801406E-04  1.6354445E-04
  -24.0000  1.7267854E-04  1.8485580E-04  1.6979013E-04
  -23.0000  1.7932384E-04  1.9219384E-04  1.7647507E-04
  -22.0000  1.8644349E-04  2.0008254E-04  1.8364527E-04
  -21.0000  1.9408809E-04  2.0858443E-04  1.9135326E-04
  -20.0000  2.0231558E-04  2.1777166E-04  1.9965924E-04
  -19.0000  2.1119255E-04  2.2772802E-04  2.0863257E-04
  -18.0000  2.2079593E-04  2.3855127E-04  2.1835352E-04
  -17.0000  2.3121503E-04  2.5035617E-04  2.2891548E-04
  -16.0000  2.4255416E-04  2.6327834E-04  2.4042779E-04
  -15.0000  2.5493581E-04  2.7747910E-04  2.5301917E-04
  -14.0000  2.6850485E-04  2.9315185E-04  2.6684224E-04
  -13.0000  2.8343372E-04  3.1053030E-04  2.8207929E-04
  -12.0000  2.9992941E-04  3.2989949E-04  2.9894978E-04
  -11.0000  3.1824238E-04  3.5161046E-04  3.1772033E-04
  -10.0000  3.3867863E-04  3.7610029E-04  3.3871798E-04
  -9.00000  3.6161594E-04  4.0391992E-04  3.6234839E-04
  -8.00000  3.8752613E-04  4.3577325E-04  3.8912091E-04
  -7.00000  4.1700641E-04  4.7257360E-04  4.1968409E-04
  -6.00000  4.5082405E-04  5.1552699E-04  4.5487700E-04
  -5.00000  4.8998221E-04  5.6625839E-04  4.9580543E-04
  -4.00000  5.3581929E-04  6.2700951E-04  5.4395857E-04
  -3.00000  5.9016494E-04  7.0096054E-04  6.0139453E-04
  -2.00000  6.5559542E-04  7.9277854E-04  6.7104883E-04
  -1.00000  7.3587609E-04  9.0960757E-04  7.5727736E-04
   0.00000  8.3678590E-04  1.0629948E-03  8.6688430E-04
   1.00000  9.6781670E-04  1.2730332E-03  1.0112689E-03
   2.00000  1.1462300E-03  1.5786440E-03  1.2115775E-03
   3.00000  1.4092397E-03  2.0693628E-03  1.5139750E-03
   4.00000  1.8672024E-03  3.0256407E-03  2.0533636E-03
   5.00000  2.9745435E-03  5.6455296E-03  3.3868405E-03
   5.20000  3.3073231E-03  6.4756377E-03  3.8239725E-03
   5.40000  3.6411385E-03  7.3249601E-03  4.3007910E-03
   5.60000  3.9692415E-03  8.1761890E-03  4.8109397E-03
   5.80000  4.2982637E-03  9.0424856E-03  5.3552491E-03
   6.00000  4.6393671E-03  9.9458437E-03  5.9347372E-03
   6.20000  5.0041071E-03  1.0907157E-02  6.5472758E-03
   6.40000  5.4033141E-03  1.1944610E-02  7.1877647E-03
   6.60000  5.8465432E-03  1.3074614E-02  7.8506944E-03
   6.80000  6.3414956E-03  1.4313144E-02  8.5341002E-03
   7.00000  6.8937966E-03  1.5676918E-02  9.2428891E-03
   7.20000  7.5075626E-03  1.7184010E-02  9.9891649E-03
   7.40000  8.1866373E-03  1.8853610E-02  1.0789010E-02
   7.60000  8.9358926E-03  2.0705082E-02  1.1657905E-02
   7.80000  9.7620451E-03  2.2756957E-02  1.2607771E-02
   8.00000  1.0673763E-02  2.5025528E-02  1.3647022E-02
   8.20000  1.1681082E-02  2.7521796E-02  1.4782610E-02
   8.40000  1.2794458E-02  3.0246727E-02  1.6021778E-02
   8.60000  1.4023970E-02  3.3186027E-02  1.7371635E-02
   8.80000  1.5379161E-02  3.6305764E-02  1.8836253E-02
   9.00000  1.6869377E-02  3.9549955E-02  2.0412231E-02
   9.20000  1.8503737E-02  4.2840373E-02  2.2084339E-02
   9.40000  2.0289874E-02  4.6077920E-02  2.3823103E-02
   9.60000  2.2231651E-02  4.9145309E-02  2.5586040E-02
   9.80000  2.4326381E-02  5.1912838E-02  2.7323149E-02
   10.0000  2.6561203E-02  5.4248957E-02  2.8984929E-02
   10.2500  2.9506657E-02  5.6381500E-02  3.0893571E-02
   10.5000  3.2521332E-02  5.7476810E-02  3.2565178E-02
   10.7500  3.5437160E-02  5.7451725E-02  3.3977516E-02
   11.0000  3.8030581E-02  5.6333675E-02  3.5134605E-02
   11.2500  4.0069194E-02  5.4258795E-02  3.6055626E-02
   11.5000  4.1390212E-02  5.1453734E-02  3.6765814E-02
   11.7500  4.1967148E-02  4.8198345E-02  3.7291457E-02
   12.0000  4.1915049E-02  4.4772629E-02  3.7658407E-02
   12.2500  4.1432963E-02  4.1406822E-02  3.7892701E-02
   12.5000  4.0733100E-02  3.8256387E-02  3.8020974E-02
   12.7500  3.9995115E-02  3.5404969E-02  3.8069687E-02
   13.0000  3.9346456E-02  3.2882279E-02  3.8064265E-02
   13.2500  3.8860215E-02  3.0684010E-02  3.8028602E-02
   13.5000  3.8564936E-02  2.8787556E-02  3.7984427E-02
   13.7500  3.8458319E-02  2.7162379E-02  3.7950653E-02
   14.0000  3.8518644E-02  2.5776125E-02  3.7942766E-02
   14.2500  3.8712599E-02  2.4597953E-02  3.7971917E-02
   14.5000  3.9000575E-02  2.3600154E-02  3.8044325E-02
   14.7500  3.9340648E-02  2.2758761E-02  3.8161881E-02
   15.0000  3.9691858E-02  2.2053584E-02  3.8323231E-02
   15.2500  4.0016843E-02  2.1467888E-02  3.8524151E-02
   15.5000  4.0283777E-02  2.0987918E-02  3.8757289E-02
   15.7500  4.0467597E-02  2.0602390E-02  3.9011968E-02
   16.0000  4.0550538E-02  2.0302016E-02  3.9274409E-02
   16.2500  4.0522084E-02  2.0079079E-02  3.9528462E-02
   16.5000  4.0378495E-02  1.9927077E-02  3.9756821E-02
   16.7500  4.0122070E-02  1.9840433E-02  3.9942593E-02
   17.0000  3.9760264E-02  1.9814284E-02  4.0071016E-02
   17.2500  3.9304707E-02  1.9844333E-02  4.0131014E-02
   17.5000  3.8770189E-02  1.9926738E-02  4.0116293E-02
   17.7500  3.8173622E-02  2.0058038E-02  4.0025757E-02
   18.0000  3.7533026E-02  2.0235090E-02  3.9863214E-02
   18.2500  3.6866590E-02  2.0455018E-02  3.9636470E-02
   18.5000  3.6191848E-02  2.0715166E-02  3.9356069E-02
   18.7500  3.5524997E-02  2.1013075E-02  3.9033910E-02
   19.0000  3.4880366E-02  2.1346471E-02  3.8681983E-02
   19.2500  3.4270028E-02  2.1713301E-02  3.8311339E-02
   19.5000  3.3703527E-02  2.2111770E-02  3.7931357E-02
   19.7500  3.3187786E-02  2.2540335E-02  3.7549354E-02
   20.0000  3.2727298E-02  2.2997500E-02  3.7170594E-02
   21.0000  3.1475093E-02  2.5066590E-02  3.5745469E-02
   22.0000  3.1125744E-02  2.7392609E-02  3.4482134E-02
   23.0000  3.1431153E-02  2.9763433E-02  3.3281098E-02
   24.0000  3.2007095E-02  3.1890439E-02  3.2048170E-02
   25.0000  3.2410139E-02  3.3543000E-02  3.0761682E-02
   26.0000  3.2300764E-02  3.4588080E-02  2.9472668E-02
   27.0000  3.1620898E-02  3.5001964E-02  2.8265352E-02
   28.0000  3.0575829E-02  3.4862568E-02  2.7210412E-02
   29.0000  2.9432409E-02  3.4303623E-02  2.6340398E-02
   30.0000  2.8362245E-02  3.3465121E-02  2.5648801E-02
   31.0000  2.7421174E-02  3.2464589E-02  2.5099171E-02
   32.0000  2.6594427E-02  3.1387268E-02  2.4637541E-02
   33.0000  2.5841077E-02  3.0286418E-02  2.4206007E-02
   34.0000  2.5120562E-02  2.9189502E-02  2.3753819E-02
   35.0000  2.4405968E-02  2.8107830E-02  2.3244452E-02
   36.0000  2.3690479E-02  2.7047072E-02  2.2660805E-02
   37.0000  2.2989504E-02  2.6016831E-02  2.2010977E-02
   38.0000  2.2337694E-02  2.5040104E-02  2.1333505E-02
   39.0000  2.1779162E-02  2.4163719E-02  2.0696223E-02
   40.0000  2.1350393E-02  2.3459502E-02  2.0177872E-02
