    Energy   (100,001)      (010,001)      (001,110)   
  -25.0000  1.7005524E-04  1.7737051E-04  1.7814232E-04
  -24.0000  1.7650855E-04  1.8433623E-04  1.8462031E-04
  -23.0000  1.8341970E-04  1.9181688E-04  1.9154374E-04
  -22.0000  1.9083755E-04  1.9986985E-04  1.9895881E-04
  -21.0000  1.9881803E-04  2.0856124E-04  2.0691822E-04
  -20.0000  2.0742554E-04  2.1796756E-04  2.1548238E-04
  -19.0000  2.1673450E-04  2.2817779E-04  2.2472080E-04
  -18.0000  2.2683145E-04  2.3929605E-04  2.3471390E-04
  -17.0000  2.3781753E-04  2.5144489E-04  2.4555519E-04
  -16.0000  2.4981178E-04  2.6476952E-04  2.5735406E-04
  -15.0000  2.6295515E-04  2.7944320E-04  2.7023920E-04
  -14.0000  2.7741587E-04  2.9567429E-04  2.8436309E-04
  -13.0000  2.9339627E-04  3.1371550E-04  2.9990767E-04
  -12.0000  3.1114197E-04  3.3387614E-04  3.1709179E-04
  -11.0000  3.3095404E-04  3.5653870E-04  3.3618098E-04
  -10.0000  3.5320561E-04  3.8218155E-04  3.5750056E-04
  -9.00000  3.7836486E-04  4.1141054E-04  3.8145339E-04
  -8.00000  4.0702750E-04  4.4500383E-04  4.0854436E-04
  -7.00000  4.3996363E-04  4.8397703E-04  4.3941484E-04
  -6.00000  4.7818721E-04  5.2967986E-04  4.7489230E-04
  -5.00000  5.2306203E-04  5.8394408E-04  5.1606342E-04
  -4.00000  5.7646927E-04  6.4931715E-04  5.6438524E-04
  -3.00000  6.4108367E-04  7.2944619E-04  6.2186039E-04
  -2.00000  7.2085250E-04  8.2973927E-04  6.9132538E-04
  -1.00000  8.2188049E-04  9.5857340E-04  7.7695233E-04
   0.00000  9.5420354E-04  1.1296737E-03  8.8518688E-04
   1.00000  1.1357488E-03  1.3672955E-03  1.0266844E-03
   2.00000  1.4026176E-03  1.7192440E-03  1.2209245E-03
   3.00000  1.8425232E-03  2.2974993E-03  1.5099846E-03
   4.00000  2.7497071E-03  3.4581891E-03  2.0180885E-03
   5.00000  5.4507883E-03  6.7396511E-03  3.2485923E-03
   5.20000  6.3214739E-03  7.7965017E-03  3.6156553E-03
   5.40000  7.2019122E-03  8.8872764E-03  3.9849458E-03
   5.60000  8.0669997E-03  9.9908301E-03  4.3534231E-03
   5.80000  8.9256497E-03  1.1123685E-02  4.7324002E-03
   6.00000  9.7966880E-03  1.2313231E-02  5.1366122E-03
   6.20000  1.0697471E-02  1.3584946E-02  5.5800332E-03
   6.40000  1.1641185E-02  1.4959575E-02  6.0755387E-03
   6.60000  1.2636142E-02  1.6453234E-02  6.6350773E-03
   6.80000  1.3684612E-02  1.8078048E-02  7.2691782E-03
   7.00000  1.4780758E-02  1.9842973E-02  7.9857131E-03
   7.20000  1.5908122E-02  2.1754797E-02  8.7884378E-03
   7.40000  1.7038103E-02  2.3819288E-02  9.6762970E-03
   7.60000  1.8131729E-02  2.6042217E-02  1.0644579E-02
   7.80000  1.9146919E-02  2.8430067E-02  1.1688295E-02
   8.00000  2.0051355E-02  3.0990731E-02  1.2806667E-02
   8.20000  2.0836984E-02  3.3734051E-02  1.4006519E-02
   8.40000  2.1528749E-02  3.6670215E-02  1.5302650E-02
   8.60000  2.2181443E-02  3.9802747E-02  1.6714781E-02
   8.80000  2.2865036E-02  4.3113988E-02  1.8262336E-02
   9.00000  2.3645243E-02  4.6544745E-02  1.9958947E-02
   9.20000  2.4567149E-02  4.9974424E-02  2.1808119E-02
   9.40000  2.5645792E-02  5.3211827E-02  2.3800507E-02
   9.60000  2.6863661E-02  5.6008133E-02  2.5912749E-02
   9.80000  2.8173738E-02  5.8098910E-02  2.8107844E-02
   10.0000  2.9507165E-02  5.9267999E-02  3.0337049E-02
   10.2500  3.1086023E-02  5.9282826E-02  3.3083429E-02
   10.5000  3.2433789E-02  5.7786387E-02  3.5672066E-02
   10.7500  3.3453740E-02  5.5126551E-02  3.7987537E-02
   11.0000  3.4114007E-02  5.1757927E-02  3.9935377E-02
   11.2500  3.4439552E-02  4.8099473E-02  4.1452843E-02
   11.5000  3.4493797E-02  4.4462376E-02  4.2513734E-02
   11.7500  3.4359357E-02  4.1040355E-02  4.3127159E-02
   12.0000  3.4121708E-02  3.7931173E-02  4.3332274E-02
   12.2500  3.3857611E-02  3.5166900E-02  4.3191275E-02
   12.5000  3.3626446E-02  3.2742294E-02  4.2780012E-02
   12.7500  3.3465765E-02  3.0635067E-02  4.2177727E-02
   13.0000  3.3393715E-02  2.8816416E-02  4.1460090E-02
   13.2500  3.3414662E-02  2.7255856E-02  4.0694912E-02
   13.5000  3.3523975E-02  2.5923843E-02  3.9939046E-02
   13.7500  3.3711441E-02  2.4793105E-02  3.9237025E-02
   14.0000  3.3963601E-02  2.3839137E-02  3.8621103E-02
   14.2500  3.4265149E-02  2.3040326E-02  3.8111866E-02
   14.5000  3.4599696E-02  2.2377895E-02  3.7719110E-02
   14.7500  3.4950213E-02  2.1835728E-02  3.7442976E-02
   15.0000  3.5299432E-02  2.1400122E-02  3.7275266E-02
   15.2500  3.5630359E-02  2.1059518E-02  3.7200944E-02
   15.5000  3.5926937E-02  2.0804210E-02  3.7199808E-02
   15.7500  3.6174811E-02  2.0626050E-02  3.7248352E-02
   16.0000  3.6362111E-02  2.0518172E-02  3.7321803E-02
   16.2500  3.6480142E-02  2.0474727E-02  3.7396235E-02
   16.5000  3.6523905E-02  2.0490638E-02  3.7450582E-02
   16.7500  3.6492357E-02  2.0561391E-02  3.7468275E-02
   17.0000  3.6388377E-02  2.0682841E-02  3.7438262E-02
   17.2500  3.6218445E-02  2.0851066E-02  3.7355261E-02
   17.5000  3.5992040E-02  2.1062249E-02  3.7219232E-02
   17.7500  3.5720848E-02  2.1312605E-02  3.7034274E-02
   18.0000  3.5417844E-02  2.1598351E-02  3.6807224E-02
   18.2500  3.5096373E-02  2.1915708E-02  3.6546239E-02
   18.5000  3.4769328E-02  2.2260936E-02  3.6259610E-02
   18.7500  3.4448477E-02  2.2630396E-02  3.5954907E-02
   19.0000  3.4144002E-02  2.3020630E-02  3.5638467E-02
   19.2500  3.3864207E-02  2.3428474E-02  3.5315164E-02
   19.5000  3.3615385E-02  2.3851162E-02  3.4988388E-02
   19.7500  3.3401820E-02  2.4286361E-02  3.4660190E-02
   20.0000  3.3225916E-02  2.4731993E-02  3.4331610E-02
   21.0000  3.2899888E-02  2.6567343E-02  3.3022403E-02
   22.0000  3.3070621E-02  2.8360234E-02  3.1728400E-02
   23.0000  3.3444088E-02  2.9969568E-02  3.0456114E-02
   24.0000  3.3642737E-02  3.1275972E-02  2.9237865E-02
   25.0000  3.3343855E-02  3.2195673E-02  2.8129396E-02
   26.0000  3.2429354E-02  3.2692729E-02  2.7201718E-02
   27.0000  3.1049129E-02  3.2783729E-02  2.6522873E-02
   28.0000  2.9512262E-02  3.2530077E-02  2.6124861E-02
   29.0000  2.8096399E-02  3.2016446E-02  2.5983184E-02
   30.0000  2.6938925E-02  3.1332458E-02  2.6028766E-02
   31.0000  2.6048005E-02  3.0558028E-02  2.6176202E-02
   32.0000  2.5364132E-02  2.9739938E-02  2.6347374E-02
   33.0000  2.4813006E-02  2.8895490E-02  2.6481162E-02
   34.0000  2.4331041E-02  2.8023577E-02  2.6532826E-02
   35.0000  2.3873067E-02  2.7114556E-02  2.6471745E-02
   36.0000  2.3412632E-02  2.6163644E-02  2.6282818E-02
   37.0000  2.2940197E-02  2.5184656E-02  2.5971782E-02
   38.0000  2.2463866E-02  2.4218843E-02  2.5571421E-02
   39.0000  2.2013513E-02  2.3336746E-02  2.5144246E-02
   40.0000  2.1638619E-02  2.2626727E-02  2.4773320E-02
