    Energy   (100,001)      (010,001)      (001,110)   
  -25.0000  1.6391138E-04  1.8807949E-04  1.7085923E-04
  -24.0000  1.7002153E-04  1.9517585E-04  1.7716105E-04
  -23.0000  1.7654940E-04  2.0278543E-04  1.8389707E-04
  -22.0000  1.8353743E-04  2.1096476E-04  1.9111223E-04
  -21.0000  1.9103383E-04  2.1977889E-04  1.9885775E-04
  -20.0000  1.9909366E-04  2.2930301E-04  2.0719231E-04
  -19.0000  2.0778006E-04  2.3962453E-04  2.1618343E-04
  -18.0000  2.1716573E-04  2.5084562E-04  2.2590918E-04
  -17.0000  2.2733486E-04  2.6308643E-04  2.3646033E-04
  -16.0000  2.3838543E-04  2.7648919E-04  2.4794303E-04
  -15.0000  2.5043216E-04  2.9122348E-04  2.6048215E-04
  -14.0000  2.6361019E-04  3.0749304E-04  2.7422561E-04
  -13.0000  2.7807985E-04  3.2554475E-04  2.8934996E-04
  -12.0000  2.9403277E-04  3.4568056E-04  3.0606759E-04
  -11.0000  3.1169995E-04  3.6827353E-04  3.2463634E-04
  -10.0000  3.3136235E-04  3.9378988E-04  3.4537235E-04
  -9.00000  3.5336534E-04  4.2281957E-04  3.6866757E-04
  -8.00000  3.7813832E-04  4.5611990E-04  3.9501406E-04
  -7.00000  4.0622230E-04  4.9467851E-04  4.2503844E-04
  -6.00000  4.3830930E-04  5.3980732E-04  4.5955184E-04
  -5.00000  4.7530018E-04  5.9328600E-04  4.9962436E-04
  -4.00000  5.1839240E-04  6.5758913E-04  5.4669995E-04
  -3.00000  5.6921819E-04  7.3625983E-04  6.0278050E-04
  -2.00000  6.3007263E-04  8.3455516E-04  6.7073582E-04
  -1.00000  7.0431376E-04  9.6062937E-04  7.5485848E-04
   0.00000  7.9712176E-04  1.1278779E-03  8.6193995E-04
   1.00000  9.1710489E-04  1.3600873E-03  1.0035970E-03
   2.00000  1.0802692E-03  1.7045438E-03  1.2021408E-03
   3.00000  1.3224650E-03  2.2737404E-03  1.5092653E-03
   4.00000  1.7562413E-03  3.4351450E-03  2.0919453E-03
   5.00000  2.8661118E-03  6.8075557E-03  3.6853973E-03
   5.20000  3.2005384E-03  7.8789385E-03  4.1826417E-03
   5.40000  3.5292754E-03  8.9543361E-03  4.6805648E-03
   5.60000  3.8439392E-03  1.0002905E-02  5.1659019E-03
   5.80000  4.1507450E-03  1.1038113E-02  5.6437459E-03
   6.00000  4.4598739E-03  1.2087722E-02  6.1223965E-03
   6.20000  4.7806234E-03  1.3179861E-02  6.6070694E-03
   6.40000  5.1205410E-03  1.4340831E-02  7.0998750E-03
   6.60000  5.4857497E-03  1.5596391E-02  7.6018046E-03
   6.80000  5.8814621E-03  1.6973218E-02  8.1148121E-03
   7.00000  6.3124082E-03  1.8499619E-02  8.6431764E-03
   7.20000  6.7830731E-03  2.0205164E-02  9.1939557E-03
   7.40000  7.2977214E-03  2.2118940E-02  9.7768558E-03
   7.60000  7.8602538E-03  2.4266000E-02  1.0403951E-02
   7.80000  8.4740068E-03  2.6661654E-02  1.1089501E-02
   8.00000  9.1416745E-03  2.9303796E-02  1.1849849E-02
   8.20000  9.8655689E-03  3.2164908E-02  1.2703237E-02
   8.40000  1.0648352E-02  3.5187286E-02  1.3669282E-02
   8.60000  1.1494123E-02  3.8286021E-02  1.4767801E-02
   8.80000  1.2409337E-02  4.1361784E-02  1.6016659E-02
   9.00000  1.3402810E-02  4.4318864E-02  1.7428540E-02
   9.20000  1.4484380E-02  4.7077996E-02  1.9007095E-02
   9.40000  1.5662573E-02  4.9575395E-02  2.0743454E-02
   9.60000  1.6942232E-02  5.1749765E-02  2.2614063E-02
   9.80000  1.8322820E-02  5.3528678E-02  2.4580156E-02
   10.0000  1.9797421E-02  5.4825672E-02  2.6589188E-02
   10.2500  2.1750746E-02  5.5635208E-02  2.9065292E-02
   10.5000  2.3784355E-02  5.5431438E-02  3.1383571E-02
   10.7500  2.5836715E-02  5.4209956E-02  3.3432967E-02
   11.0000  2.7833074E-02  5.2110512E-02  3.5136365E-02
   11.2500  2.9694861E-02  4.9382392E-02  3.6458011E-02
   11.5000  3.1353606E-02  4.6314076E-02  3.7402278E-02
   11.7500  3.2764212E-02  4.3166703E-02  3.8005489E-02
   12.0000  3.3911655E-02  4.0135188E-02  3.8323335E-02
   12.2500  3.4808927E-02  3.7339097E-02  3.8418203E-02
   12.5000  3.5489291E-02  3.4833315E-02  3.8349829E-02
   12.7500  3.5997653E-02  3.2626824E-02  3.8170279E-02
   13.0000  3.6383226E-02  3.0701564E-02  3.7922368E-02
   13.2500  3.6692852E-02  2.9027019E-02  3.7640377E-02
   13.5000  3.6965539E-02  2.7569549E-02  3.7352038E-02
   13.7500  3.7230343E-02  2.6297786E-02  3.7080030E-02
   14.0000  3.7507373E-02  2.5185155E-02  3.6842315E-02
   14.2500  3.7809702E-02  2.4210306E-02  3.6652301E-02
   14.5000  3.8144896E-02  2.3356492E-02  3.6519185E-02
   14.7500  3.8516184E-02  2.2610644E-02  3.6448162E-02
   15.0000  3.8923465E-02  2.1962493E-02  3.6440441E-02
   15.2500  3.9364236E-02  2.1403852E-02  3.6493247E-02
   15.5000  3.9834359E-02  2.0928083E-02  3.6599930E-02
   15.7500  4.0328607E-02  2.0529727E-02  3.6750313E-02
   16.0000  4.0840921E-02  2.0204239E-02  3.6931331E-02
   16.2500  4.1364411E-02  1.9947802E-02  3.7127976E-02
   16.5000  4.1891227E-02  1.9757164E-02  3.7324491E-02
   16.7500  4.2412431E-02  1.9629496E-02  3.7505694E-02
   17.0000  4.2918081E-02  1.9562255E-02  3.7658260E-02
   17.2500  4.3397634E-02  1.9553054E-02  3.7771759E-02
   17.5000  4.3840715E-02  1.9599555E-02  3.7839313E-02
   17.7500  4.4238124E-02  1.9699383E-02  3.7857795E-02
   18.0000  4.4582865E-02  1.9850070E-02  3.7827586E-02
   18.2500  4.4870918E-02  2.0049039E-02  3.7751995E-02
   18.5000  4.5101523E-02  2.0293615E-02  3.7636483E-02
   18.7500  4.5276892E-02  2.0581068E-02  3.7487820E-02
   19.0000  4.5401406E-02  2.0908684E-02  3.7313288E-02
   19.2500  4.5480512E-02  2.1273874E-02  3.7120003E-02
   19.5000  4.5519548E-02  2.1674267E-02  3.6914368E-02
   19.7500  4.5522741E-02  2.2107739E-02  3.6701730E-02
   20.0000  4.5492499E-02  2.2572222E-02  3.6486277E-02
   21.0000  4.5013683E-02  2.4682770E-02  3.5649612E-02
   22.0000  4.3769809E-02  2.7042002E-02  3.4888592E-02
   23.0000  4.1547064E-02  2.9433772E-02  3.4130221E-02
   24.0000  3.8467167E-02  3.1610402E-02  3.3266738E-02
   25.0000  3.5003140E-02  3.3335347E-02  3.2242018E-02
   26.0000  3.1708662E-02  3.4451432E-02  3.1082823E-02
   27.0000  2.8946431E-02  3.4923729E-02  2.9887410E-02
   28.0000  2.6825813E-02  3.4830190E-02  2.8782401E-02
   29.0000  2.5294793E-02  3.4313018E-02  2.7866712E-02
   30.0000  2.4240272E-02  3.3524370E-02  2.7175808E-02
   31.0000  2.3541800E-02  3.2589844E-02  2.6683642E-02
   32.0000  2.3091515E-02  3.1596421E-02  2.6327921E-02
   33.0000  2.2792162E-02  3.0605638E-02  2.6034327E-02
   34.0000  2.2554113E-02  2.9665885E-02  2.5734353E-02
   35.0000  2.2310379E-02  2.8800033E-02  2.5382567E-02
   36.0000  2.2016160E-02  2.8015888E-02  2.4955332E-02
   37.0000  2.1650308E-02  2.7315381E-02  2.4448194E-02
   38.0000  2.1223935E-02  2.6695681E-02  2.3881231E-02
   39.0000  2.0783710E-02  2.6159537E-02  2.3308062E-02
   40.0000  2.0401027E-02  2.5731092E-02  2.2815043E-02
