    Energy   (100,001)      (010,001)      (001,110)   
  -25.0000  1.6949009E-04  1.8073509E-04  1.7816673E-04
  -24.0000  1.7545633E-04  1.8772561E-04  1.8440218E-04
  -23.0000  1.8181451E-04  1.9522636E-04  1.9104953E-04
  -22.0000  1.8860334E-04  2.0329356E-04  1.9814988E-04
  -21.0000  1.9586671E-04  2.1199186E-04  2.0574995E-04
  -20.0000  2.0365464E-04  2.2139596E-04  2.1390300E-04
  -19.0000  2.1202433E-04  2.3159261E-04  2.2267009E-04
  -18.0000  2.2104152E-04  2.4268314E-04  2.3212148E-04
  -17.0000  2.3078213E-04  2.5478656E-04  2.4233849E-04
  -16.0000  2.4133435E-04  2.6804361E-04  2.5341574E-04
  -15.0000  2.5280118E-04  2.8262186E-04  2.6546398E-04
  -14.0000  2.6530369E-04  2.9872233E-04  2.7861368E-04
  -13.0000  2.7898525E-04  3.1658817E-04  2.9301969E-04
  -12.0000  2.9401688E-04  3.3651619E-04  3.0886717E-04
  -11.0000  3.1060437E-04  3.5887227E-04  3.2637950E-04
  -10.0000  3.2899767E-04  3.8411248E-04  3.4582876E-04
  -9.00000  3.4950370E-04  4.1281228E-04  3.6754997E-04
  -8.00000  3.7250384E-04  4.4570785E-04  3.9196069E-04
  -7.00000  3.9847860E-04  4.8375570E-04  4.1958868E-04
  -6.00000  4.2804324E-04  5.2822082E-04  4.5111190E-04
  -5.00000  4.6200048E-04  5.8081071E-04  4.8741778E-04
  -4.00000  5.0142155E-04  6.4388593E-04  5.2969452E-04
  -3.00000  5.4777593E-04  7.2080407E-04  5.7957710E-04
  -2.00000  6.0315040E-04  8.1650884E-04  6.3939327E-04
  -1.00000  6.7064398E-04  9.3860109E-04  7.1260510E-04
   0.00000  7.5514507E-04  1.0994411E-03  8.0466952E-04
   1.00000  8.6505096E-04  1.3207270E-03  9.2491194E-04
   2.00000  1.0167583E-03  1.6450561E-03  1.0912872E-03
   3.00000  1.2496529E-03  2.1725100E-03  1.3455884E-03
   4.00000  1.6990335E-03  3.2268858E-03  1.8227847E-03
   5.00000  2.9845800E-03  6.2250912E-03  3.1262153E-03
   5.20000  3.3718090E-03  7.1679921E-03  3.5512087E-03
   5.40000  3.7342494E-03  8.1104736E-03  3.9951971E-03
   5.60000  4.0558229E-03  9.0265621E-03  4.4461969E-03
   5.80000  4.3415827E-03  9.9296913E-03  4.9029543E-03
   6.00000  4.6029819E-03  1.0845576E-02  5.3649865E-03
   6.20000  4.8508448E-03  1.1799680E-02  5.8276205E-03
   6.40000  5.0939601E-03  1.2814670E-02  6.2809352E-03
   6.60000  5.3395447E-03  1.3910435E-02  6.7108192E-03
   6.80000  5.5941844E-03  1.5104064E-02  7.1021872E-03
   7.00000  5.8647613E-03  1.6409542E-02  7.4443869E-03
   7.20000  6.1589732E-03  1.7837877E-02  7.7371511E-03
   7.40000  6.4851144E-03  1.9398451E-02  7.9939371E-03
   7.60000  6.8511113E-03  2.1101916E-02  8.2402860E-03
   7.80000  7.2633069E-03  2.2964037E-02  8.5079173E-03
   8.00000  7.7257324E-03  2.5008639E-02  8.8278639E-03
   8.20000  8.2402908E-03  2.7267527E-02  9.2256406E-03
   8.40000  8.8076707E-03  2.9776374E-02  9.7192956E-03
   8.60000  9.4283875E-03  3.2567197E-02  1.0319504E-02
   8.80000  1.0103338E-02  3.5658919E-02  1.1030444E-02
   9.00000  1.0833705E-02  3.9047448E-02  1.1850633E-02
   9.20000  1.1620503E-02  4.2696073E-02  1.2773540E-02
   9.40000  1.2464085E-02  4.6526582E-02  1.3788130E-02
   9.60000  1.3363847E-02  5.0412399E-02  1.4879620E-02
   9.80000  1.4318310E-02  5.4176932E-02  1.6030601E-02
   10.0000  1.5325521E-02  5.7601398E-02  1.7222493E-02
   10.2500  1.6655454E-02  6.1037575E-02  1.8742445E-02
   10.5000  1.8059442E-02  6.3134172E-02  2.0268544E-02
   10.7500  1.9529465E-02  6.3616241E-02  2.1782653E-02
   11.0000  2.1051304E-02  6.2465511E-02  2.3279116E-02
   11.2500  2.2601919E-02  5.9924662E-02  2.4760191E-02
   11.5000  2.4149103E-02  5.6402158E-02  2.6229489E-02
   11.7500  2.5653385E-02  5.2341469E-02  2.7687099E-02
   12.0000  2.7070766E-02  4.8122697E-02  2.9125442E-02
   12.2500  2.8357328E-02  4.4020621E-02  3.0525769E-02
   12.5000  2.9477890E-02  4.0206731E-02  3.1859287E-02
   12.7500  3.0415263E-02  3.6770798E-02  3.3093636E-02
   13.0000  3.1174921E-02  3.3744960E-02  3.4200568E-02
   13.2500  3.1783221E-02  3.1124114E-02  3.5162114E-02
   13.5000  3.2280458E-02  2.8881610E-02  3.5975229E-02
   13.7500  3.2711945E-02  2.6980472E-02  3.6653449E-02
   14.0000  3.3120301E-02  2.5380606E-02  3.7223618E-02
   14.2500  3.3540408E-02  2.4042992E-02  3.7719604E-02
   14.5000  3.3996975E-02  2.2931916E-02  3.8176084E-02
   14.7500  3.4504079E-02  2.2015958E-02  3.8623820E-02
   15.0000  3.5065911E-02  2.1268202E-02  3.9086595E-02
   15.2500  3.5678116E-02  2.0665991E-02  3.9579548E-02
   15.5000  3.6329351E-02  2.0190443E-02  4.0108549E-02
   15.7500  3.7002897E-02  1.9825888E-02  4.0670347E-02
   16.0000  3.7678256E-02  1.9559295E-02  4.1253320E-02
   16.2500  3.8332791E-02  1.9379753E-02  4.1838806E-02
   16.5000  3.8943403E-02  1.9278018E-02  4.2403012E-02
   16.7500  3.9488239E-02  1.9246148E-02  4.2919451E-02
   17.0000  3.9948351E-02  1.9277217E-02  4.3361735E-02
   17.2500  4.0309177E-02  1.9365100E-02  4.3706412E-02
   17.5000  4.0561707E-02  1.9504331E-02  4.3935434E-02
   17.7500  4.0703171E-02  1.9690007E-02  4.4037880E-02
   18.0000  4.0737159E-02  1.9917745E-02  4.4010673E-02
   18.2500  4.0673149E-02  2.0183659E-02  4.3858246E-02
   18.5000  4.0525502E-02  2.0484358E-02  4.3591340E-02
   18.7500  4.0312083E-02  2.0816954E-02  4.3225242E-02
   19.0000  4.0052680E-02  2.1179085E-02  4.2777806E-02
   19.2500  3.9767406E-02  2.1568940E-02  4.2267569E-02
   19.5000  3.9475256E-02  2.1985280E-02  4.1712146E-02
   19.7500  3.9192981E-02  2.2427378E-02  4.1127142E-02
   20.0000  3.8934521E-02  2.2894760E-02  4.0525798E-02
   21.0000  3.8330251E-02  2.4995344E-02  3.8165115E-02
   22.0000  3.8579511E-02  2.7382931E-02  3.6168691E-02
   23.0000  3.9427723E-02  2.9878100E-02  3.4609890E-02
   24.0000  4.0265679E-02  3.2176771E-02  3.3385369E-02
   25.0000  4.0418636E-02  3.3927864E-02  3.2356149E-02
   26.0000  3.9469096E-02  3.4887586E-02  3.1414424E-02
   27.0000  3.7516290E-02  3.5031756E-02  3.0529520E-02
   28.0000  3.5095807E-02  3.4540275E-02  2.9750712E-02
   29.0000  3.2734820E-02  3.3669276E-02  2.9137568E-02
   30.0000  3.0726536E-02  3.2638052E-02  2.8717937E-02
   31.0000  2.9150260E-02  3.1586017E-02  2.8476468E-02
   32.0000  2.7961902E-02  3.0577944E-02  2.8361916E-02
   33.0000  2.7071807E-02  2.9626578E-02  2.8305742E-02
   34.0000  2.6387407E-02  2.8716054E-02  2.8239190E-02
   35.0000  2.5830700E-02  2.7820850E-02  2.8103977E-02
   36.0000  2.5343376E-02  2.6920354E-02  2.7858902E-02
   37.0000  2.4887316E-02  2.6010087E-02  2.7486495E-02
   38.0000  2.4445081E-02  2.5111076E-02  2.7002542E-02
   39.0000  2.4024793E-02  2.4278196E-02  2.6467525E-02
   40.0000  2.3665354E-02  2.3596816E-02  2.5986573E-02
