    Energy   (100,001)      (010,001)      (001,110)   
  -25.0000  1.6097755E-04  1.8026000E-04  1.7149406E-04
  -24.0000  1.6705469E-04  1.8708372E-04  1.7806013E-04
  -23.0000  1.7355296E-04  1.9439814E-04  1.8509401E-04
  -22.0000  1.8051573E-04  2.0225674E-04  1.9264563E-04
  -21.0000  1.8799238E-04  2.1072097E-04  2.0077209E-04
  -20.0000  1.9603940E-04  2.1986175E-04  2.0953907E-04
  -19.0000  2.0472170E-04  2.2976135E-04  2.1902245E-04
  -18.0000  2.1411417E-04  2.4051574E-04  2.2931033E-04
  -17.0000  2.2430373E-04  2.5223751E-04  2.4050562E-04
  -16.0000  2.3539178E-04  2.6505966E-04  2.5272921E-04
  -15.0000  2.4749735E-04  2.7914030E-04  2.6612407E-04
  -14.0000  2.6076105E-04  2.9466888E-04  2.8086050E-04
  -13.0000  2.7535017E-04  3.1187425E-04  2.9714290E-04
  -12.0000  2.9146534E-04  3.3103532E-04  3.1521878E-04
  -11.0000  3.0934921E-04  3.5249547E-04  3.3539061E-04
  -10.0000  3.2929810E-04  3.7668198E-04  3.5803200E-04
  -9.00000  3.5167771E-04  4.0413320E-04  3.8360988E-04
  -8.00000  3.7694488E-04  4.3553662E-04  4.1271554E-04
  -7.00000  4.0567812E-04  4.7178395E-04  4.4610920E-04
  -6.00000  4.3862161E-04  5.1405226E-04  4.8478527E-04
  -5.00000  4.7675043E-04  5.6392720E-04  5.3007103E-04
  -4.00000  5.2137011E-04  6.2359619E-04  5.8378071E-04
  -3.00000  5.7427515E-04  6.9616302E-04  6.4846610E-04
  -2.00000  6.3801351E-04  7.8618531E-04  7.2784500E-04
  -1.00000  7.1635620E-04  9.0064754E-04  8.2758038E-04
   0.00000  8.1520075E-04  1.0508614E-03  9.5681661E-04
   1.00000  9.4451114E-04  1.2565758E-03  1.1315541E-03
   2.00000  1.1231891E-03  1.5562529E-03  1.3832906E-03
   3.00000  1.3945742E-03  2.0391448E-03  1.7868906E-03
   4.00000  1.8980441E-03  2.9884677E-03  2.5899608E-03
   5.00000  3.2440485E-03  5.6265454E-03  4.8978156E-03
   5.20000  3.6547903E-03  6.4618282E-03  5.6203148E-03
   5.40000  4.0576896E-03  7.3110748E-03  6.3304838E-03
   5.60000  4.4410535E-03  8.1553007E-03  7.0029113E-03
   5.80000  4.8118882E-03  9.0073120E-03  7.6478492E-03
   6.00000  5.1830559E-03  9.8890407E-03  8.2901142E-03
   6.20000  5.5671180E-03  1.0820926E-02  8.9564748E-03
   6.40000  5.9746331E-03  1.1819831E-02  9.6696860E-03
   6.60000  6.4134002E-03  1.2899635E-02  1.0444703E-02
   6.80000  6.8875067E-03  1.4072538E-02  1.1286160E-02
   7.00000  7.3965423E-03  1.5350841E-02  1.2188547E-02
   7.20000  7.9361744E-03  1.6748992E-02  1.3141341E-02
   7.40000  8.5010069E-03  1.8284935E-02  1.4139071E-02
   7.60000  9.0888112E-03  1.9979735E-02  1.5190912E-02
   7.80000  9.7034452E-03  2.1855105E-02  1.6321998E-02
   8.00000  1.0354552E-02  2.3929451E-02  1.7564170E-02
   8.20000  1.1054880E-02  2.6213354E-02  1.8942063E-02
   8.40000  1.1817497E-02  2.8705304E-02  2.0462013E-02
   8.60000  1.2654268E-02  3.1388785E-02  2.2107142E-02
   8.80000  1.3575560E-02  3.4232123E-02  2.3838176E-02
   9.00000  1.4590503E-02  3.7191051E-02  2.5598892E-02
   9.20000  1.5707200E-02  4.0211380E-02  2.7325301E-02
   9.40000  1.6932581E-02  4.3228227E-02  2.8957047E-02
   9.60000  1.8271765E-02  4.6160114E-02  3.0448316E-02
   9.80000  1.9726858E-02  4.8902172E-02  3.1774850E-02
   10.0000  2.1295161E-02  5.1326331E-02  3.2934946E-02
   10.2500  2.3398621E-02  5.3695866E-02  3.4177033E-02
   10.5000  2.5621302E-02  5.5101097E-02  3.5235860E-02
   10.7500  2.7896382E-02  5.5392051E-02  3.6153792E-02
   11.0000  3.0137100E-02  5.4570829E-02  3.6945154E-02
   11.2500  3.2246715E-02  5.2791725E-02  3.7603161E-02
   11.5000  3.4131775E-02  5.0309593E-02  3.8118800E-02
   11.7500  3.5717547E-02  4.7407929E-02  3.8492766E-02
   12.0000  3.6961249E-02  4.4341183E-02  3.8737438E-02
   12.2500  3.7858497E-02  4.1305090E-02  3.8874142E-02
   12.5000  3.8441615E-02  3.8430952E-02  3.8930138E-02
   12.7500  3.8770530E-02  3.5794168E-02  3.8935977E-02
   13.0000  3.8918651E-02  3.3428656E-02  3.8921886E-02
   13.2500  3.8958877E-02  3.1341110E-02  3.8914036E-02
   13.5000  3.8954102E-02  2.9521827E-02  3.8932533E-02
   13.7500  3.8952589E-02  2.7951979E-02  3.8991055E-02
   14.0000  3.8986812E-02  2.6608419E-02  3.9096904E-02
   14.2500  3.9074603E-02  2.5466903E-02  3.9250606E-02
   14.5000  3.9221496E-02  2.4504099E-02  3.9445621E-02
   14.7500  3.9423314E-02  2.3698563E-02  3.9669140E-02
   15.0000  3.9668590E-02  2.3031049E-02  3.9903783E-02
   15.2500  3.9940811E-02  2.2484531E-02  4.0129525E-02
   15.5000  4.0220538E-02  2.2044121E-02  4.0325578E-02
   15.7500  4.0487407E-02  2.1696924E-02  4.0472177E-02
   16.0000  4.0721995E-02  2.1431870E-02  4.0552182E-02
   16.2500  4.0907512E-02  2.1239515E-02  4.0552378E-02
   16.5000  4.1031273E-02  2.1111854E-02  4.0464376E-02
   16.7500  4.1085844E-02  2.1042109E-02  4.0285027E-02
   17.0000  4.1069758E-02  2.1024529E-02  4.0016349E-02
   17.2500  4.0987687E-02  2.1054201E-02  3.9665003E-02
   17.5000  4.0849996E-02  2.1126877E-02  3.9241406E-02
   17.7500  4.0671677E-02  2.1238839E-02  3.8758619E-02
   18.0000  4.0470809E-02  2.1386798E-02  3.8231140E-02
   18.2500  4.0266742E-02  2.1567823E-02  3.7673767E-02
   18.5000  4.0078273E-02  2.1779302E-02  3.7100635E-02
   18.7500  3.9922048E-02  2.2018924E-02  3.6524475E-02
   19.0000  3.9811357E-02  2.2284679E-02  3.5956132E-02
   19.2500  3.9755363E-02  2.2574889E-02  3.5404282E-02
   19.5000  3.9758738E-02  2.2888231E-02  3.4875325E-02
   19.7500  3.9821539E-02  2.3223711E-02  3.4373445E-02
   20.0000  3.9939127E-02  2.3580487E-02  3.3900941E-02
   21.0000  4.0712137E-02  2.5194139E-02  3.2316790E-02
   22.0000  4.1122325E-02  2.7027295E-02  3.1179842E-02
   23.0000  4.0134149E-02  2.8926514E-02  3.0347655E-02
   24.0000  3.7555722E-02  3.0661539E-02  2.9664125E-02
   25.0000  3.4125632E-02  3.2053383E-02  2.9008095E-02
   26.0000  3.0758997E-02  3.3011337E-02  2.8313026E-02
   27.0000  2.7976165E-02  3.3524782E-02  2.7576955E-02
   28.0000  2.5892363E-02  3.3639530E-02  2.6850052E-02
   29.0000  2.4414958E-02  3.3426931E-02  2.6197439E-02
   30.0000  2.3391102E-02  3.2962257E-02  2.5660940E-02
   31.0000  2.2677467E-02  3.2312893E-02  2.5243842E-02
   32.0000  2.2162231E-02  3.1533324E-02  2.4918730E-02
   33.0000  2.1764349E-02  3.0664910E-02  2.4642759E-02
   34.0000  2.1426408E-02  2.9739295E-02  2.4369625E-02
   35.0000  2.1108719E-02  2.8782731E-02  2.4056827E-02
   36.0000  2.0786956E-02  2.7819160E-02  2.3672013E-02
   37.0000  2.0452869E-02  2.6871949E-02  2.3201359E-02
   38.0000  2.0115392E-02  2.5968653E-02  2.2660151E-02
   39.0000  1.9799057E-02  2.5153731E-02  2.2103196E-02
   40.0000  1.9536908E-02  2.4496312E-02  2.1620785E-02
