    Energy   (100,001)      (010,001)      (001,110)   
  -25.0000  1.6628205E-04  1.8288981E-04  1.8150881E-04
  -24.0000  1.7236725E-04  1.8982841E-04  1.8820221E-04
  -23.0000  1.7886482E-04  1.9726730E-04  1.9536344E-04
  -22.0000  1.8581650E-04  2.0526115E-04  2.0304202E-04
  -21.0000  1.9326974E-04  2.1387280E-04  2.1129461E-04
  -20.0000  2.0127870E-04  2.2317477E-04  2.2018640E-04
  -19.0000  2.0990550E-04  2.3325123E-04  2.2979267E-04
  -18.0000  2.1922170E-04  2.4420040E-04  2.4020090E-04
  -17.0000  2.2931014E-04  2.5613754E-04  2.5151332E-04
  -16.0000  2.4026725E-04  2.6919882E-04  2.6385012E-04
  -15.0000  2.5220599E-04  2.8354624E-04  2.7735357E-04
  -14.0000  2.6525943E-04  2.9937390E-04  2.9219337E-04
  -13.0000  2.7958553E-04  3.1691638E-04  3.0857360E-04
  -12.0000  2.9537313E-04  3.3645967E-04  3.2674185E-04
  -11.0000  3.1285001E-04  3.5835596E-04  3.4700160E-04
  -10.0000  3.3229339E-04  3.8304367E-04  3.6972896E-04
  -9.00000  3.5404422E-04  4.1107534E-04  3.9539602E-04
  -8.00000  3.7852680E-04  4.4315683E-04  4.2460386E-04
  -7.00000  4.0627619E-04  4.8020399E-04  4.5813046E-04
  -6.00000  4.3797750E-04  5.2342620E-04  4.9700216E-04
  -5.00000  4.7452367E-04  5.7445329E-04  5.4260356E-04
  -4.00000  5.1710323E-04  6.3553468E-04  5.9685316E-04
  -3.00000  5.6733858E-04  7.0986420E-04  6.6249697E-04
  -2.00000  6.2751467E-04  8.0213595E-04  7.4362734E-04
  -1.00000  7.0098003E-04  9.1955401E-04  8.4666570E-04
   0.00000  7.9290777E-04  1.0738146E-03  9.8239764E-04
   1.00000  9.1190188E-04  1.2854282E-03  1.1707182E-03
   2.00000  1.0739498E-03  1.5946760E-03  1.4536773E-03
   3.00000  1.3147062E-03  2.0965630E-03  1.9411532E-03
   4.00000  1.7448224E-03  3.1019691E-03  3.0420914E-03
   5.00000  2.8375974E-03  5.9716203E-03  6.7001194E-03
   5.20000  3.1719640E-03  6.8493226E-03  7.7948494E-03
   5.40000  3.5080869E-03  7.7009794E-03  8.7661931E-03
   5.60000  3.8386699E-03  8.5064947E-03  9.5734351E-03
   5.80000  4.1685574E-03  9.2901727E-03  1.0256514E-02
   6.00000  4.5050894E-03  1.0086765E-02  1.0867478E-02
   6.20000  4.8540887E-03  1.0926020E-02  1.1435536E-02
   6.40000  5.2196169E-03  1.1830876E-02  1.1964685E-02
   6.60000  5.6049103E-03  1.2819713E-02  1.2445890E-02
   6.80000  6.0135054E-03  1.3908737E-02  1.2872391E-02
   7.00000  6.4500945E-03  1.5113606E-02  1.3251395E-02
   7.20000  6.9207889E-03  1.6450339E-02  1.3607989E-02
   7.40000  7.4326865E-03  1.7935796E-02  1.3980746E-02
   7.60000  7.9929330E-03  1.9587801E-02  1.4412409E-02
   7.80000  8.6076645E-03  2.1424756E-02  1.4940607E-02
   8.00000  9.2812980E-03  2.3464816E-02  1.5592039E-02
   8.20000  1.0016581E-02  2.5725092E-02  1.6380801E-02
   8.40000  1.0815422E-02  2.8220944E-02  1.7309582E-02
   8.60000  1.1680022E-02  3.0964610E-02  1.8371828E-02
   8.80000  1.2613748E-02  3.3962073E-02  1.9553536E-02
   9.00000  1.3621363E-02  3.7206922E-02  2.0834367E-02
   9.20000  1.4708534E-02  4.0670573E-02  2.2188615E-02
   9.40000  1.5880777E-02  4.4290317E-02  2.3586768E-02
   9.60000  1.7141983E-02  4.7959041E-02  2.4998230E-02
   9.80000  1.8492598E-02  5.1521544E-02  2.6395051E-02
   10.0000  1.9927607E-02  5.4780876E-02  2.7754619E-02
   10.2500  2.1820487E-02  5.8091941E-02  2.9373909E-02
   10.5000  2.3782198E-02  6.0179231E-02  3.0874832E-02
   10.7500  2.5746400E-02  6.0781555E-02  3.2233234E-02
   11.0000  2.7624996E-02  5.9876119E-02  3.3430620E-02
   11.2500  2.9320738E-02  5.7682942E-02  3.4444739E-02
   11.5000  3.0754051E-02  5.4577606E-02  3.5253081E-02
   11.7500  3.1890721E-02  5.0970130E-02  3.5848337E-02
   12.0000  3.2752508E-02  4.7211652E-02  3.6247835E-02
   12.2500  3.3403842E-02  4.3553493E-02  3.6490098E-02
   12.5000  3.3925184E-02  4.0149164E-02  3.6624193E-02
   12.7500  3.4390207E-02  3.7075490E-02  3.6699200E-02
   13.0000  3.4853808E-02  3.4356652E-02  3.6757559E-02
   13.2500  3.5349179E-02  3.1984636E-02  3.6832015E-02
   13.5000  3.5890299E-02  2.9934143E-02  3.6944956E-02
   13.7500  3.6476657E-02  2.8172411E-02  3.7109259E-02
   14.0000  3.7098191E-02  2.6665125E-02  3.7329784E-02
   14.2500  3.7739469E-02  2.5379654E-02  3.7604963E-02
   14.5000  3.8382847E-02  2.4286604E-02  3.7928230E-02
   14.7500  3.9010647E-02  2.3360369E-02  3.8289209E-02
   15.0000  3.9606531E-02  2.2579125E-02  3.8674676E-02
   15.2500  4.0156264E-02  2.1924533E-02  3.9069336E-02
   15.5000  4.0648079E-02  2.1381316E-02  3.9456495E-02
   15.7500  4.1072806E-02  2.0936789E-02  3.9818701E-02
   16.0000  4.1423882E-02  2.0580425E-02  4.0138458E-02
   16.2500  4.1697348E-02  2.0303448E-02  4.0399048E-02
   16.5000  4.1891862E-02  2.0098493E-02  4.0585486E-02
   16.7500  4.2008742E-02  1.9959314E-02  4.0685527E-02
   17.0000  4.2051950E-02  1.9880552E-02  4.0690605E-02
   17.2500  4.2027979E-02  1.9857546E-02  4.0596543E-02
   17.5000  4.1945558E-02  1.9886195E-02  4.0403887E-02
   17.7500  4.1815172E-02  1.9962849E-02  4.0117777E-02
   18.0000  4.1648416E-02  2.0084235E-02  3.9747367E-02
   18.2500  4.1457251E-02  2.0247405E-02  3.9304883E-02
   18.5000  4.1253241E-02  2.0449702E-02  3.8804473E-02
   18.7500  4.1046868E-02  2.0688748E-02  3.8261023E-02
   19.0000  4.0846981E-02  2.0962441E-02  3.7689067E-02
   19.2500  4.0660412E-02  2.1268979E-02  3.7101881E-02
   19.5000  4.0491774E-02  2.1606884E-02  3.6510824E-02
   19.7500  4.0343399E-02  2.1974957E-02  3.5924989E-02
   20.0000  4.0215422E-02  2.2372077E-02  3.5351339E-02
   21.0000  3.9849132E-02  2.4214615E-02  3.3277134E-02
   22.0000  3.9460955E-02  2.6354147E-02  3.1673982E-02
   23.0000  3.8661983E-02  2.8613801E-02  3.0526739E-02
   24.0000  3.7226512E-02  3.0756789E-02  2.9734081E-02
   25.0000  3.5236180E-02  3.2530051E-02  2.9169693E-02
   26.0000  3.3014660E-02  3.3738080E-02  2.8712816E-02
   27.0000  3.0917239E-02  3.4306849E-02  2.8282295E-02
   28.0000  2.9124518E-02  3.4309300E-02  2.7849386E-02
   29.0000  2.7669330E-02  3.3905109E-02  2.7433122E-02
   30.0000  2.6519673E-02  3.3264882E-02  2.7072750E-02
   31.0000  2.5619940E-02  3.2519749E-02  2.6795816E-02
   32.0000  2.4907910E-02  3.1743285E-02  2.6602792E-02
   33.0000  2.4323355E-02  3.0959261E-02  2.6469621E-02
   34.0000  2.3815180E-02  3.0160222E-02  2.6358789E-02
   35.0000  2.3347300E-02  2.9326837E-02  2.6230241E-02
   36.0000  2.2902498E-02  2.8444460E-02  2.6049324E-02
   37.0000  2.2482114E-02  2.7516295E-02  2.5793833E-02
   38.0000  2.2100070E-02  2.6573762E-02  2.5463203E-02
   39.0000  2.1774267E-02  2.5685274E-02  2.5090955E-02
   40.0000  2.1520138E-02  2.4952888E-02  2.4749989E-02
