    Energy   (100,001)      (010,001)      (001,110)   
  -25.0000  1.7270025E-04  1.8651916E-04  1.8052610E-04
  -24.0000  1.7888854E-04  1.9363367E-04  1.8694149E-04
  -23.0000  1.8549135E-04  2.0126516E-04  1.9378930E-04
  -22.0000  1.9255039E-04  2.0947065E-04  2.0111371E-04
  -21.0000  2.0011310E-04  2.1831572E-04  2.0896502E-04
  -20.0000  2.0823363E-04  2.2787618E-04  2.1740081E-04
  -19.0000  2.1697406E-04  2.3824013E-04  2.2648727E-04
  -18.0000  2.2640593E-04  2.4951051E-04  2.3630088E-04
  -17.0000  2.3661204E-04  2.6180835E-04  2.4693048E-04
  -16.0000  2.4768885E-04  2.7527685E-04  2.5847984E-04
  -15.0000  2.5974931E-04  2.9008666E-04  2.7107100E-04
  -14.0000  2.7292662E-04  3.0644269E-04  2.8484837E-04
  -13.0000  2.8737892E-04  3.2459306E-04  2.9998425E-04
  -12.0000  3.0329548E-04  3.4484096E-04  3.1668577E-04
  -11.0000  3.2090477E-04  3.6756067E-04  3.3520432E-04
  -10.0000  3.4048521E-04  3.9321934E-04  3.5584807E-04
  -9.00000  3.6237976E-04  4.2240734E-04  3.7899909E-04
  -8.00000  3.8701603E-04  4.5588122E-04  4.0513720E-04
  -7.00000  4.1493454E-04  4.9462582E-04  4.3487386E-04
  -6.00000  4.4682942E-04  5.3994629E-04  4.6900149E-04
  -5.00000  4.8360867E-04  5.9360833E-04  5.0856745E-04
  -4.00000  5.2648642E-04  6.5805897E-04  5.5498868E-04
  -3.00000  5.7712966E-04  7.3678777E-04  6.1023683E-04
  -2.00000  6.3790367E-04  8.3494649E-04  6.7715240E-04
  -1.00000  7.1230856E-04  9.6047606E-04  7.6001208E-04
   0.00000  8.0582208E-04  1.1263164E-03  8.6563855E-04
   1.00000  9.2771774E-04  1.3552011E-03  1.0058160E-03
   2.00000  1.0956601E-03  1.6916631E-03  1.2033896E-03
   3.00000  1.3504552E-03  2.2394386E-03  1.5114597E-03
   4.00000  1.8248808E-03  3.3272443E-03  2.0986737E-03
   5.00000  3.1072980E-03  6.3762839E-03  3.7086807E-03
   5.20000  3.4994070E-03  7.3578166E-03  4.2465656E-03
   5.40000  3.8817696E-03  8.3699818E-03  4.8261616E-03
   5.60000  4.2409384E-03  9.3894074E-03  5.4387987E-03
   5.80000  4.5813435E-03  1.0426456E-02  6.0857956E-03
   6.00000  4.9129902E-03  1.1501812E-02  6.7649274E-03
   6.20000  5.2452981E-03  1.2635558E-02  7.4626253E-03
   6.40000  5.5855163E-03  1.3845342E-02  8.1524475E-03
   6.60000  5.9388494E-03  1.5147394E-02  8.7996054E-03
   6.80000  6.3093571E-03  1.6557824E-02  9.3716480E-03
   7.00000  6.7013055E-03  1.8093760E-02  9.8520815E-03
   7.20000  7.1205136E-03  1.9774215E-02  1.0249704E-02
   7.40000  7.5751540E-03  2.1620188E-02  1.0597586E-02
   7.60000  8.0757692E-03  2.3653429E-02  1.0942575E-02
   7.80000  8.6346987E-03  2.5893627E-02  1.1332151E-02
   8.00000  9.2652595E-03  2.8354206E-02  1.1804983E-02
   8.20000  9.9808687E-03  3.1037176E-02  1.2387080E-02
   8.40000  1.0794122E-02  3.3927747E-02  1.3091795E-02
   8.60000  1.1715787E-02  3.6989715E-02  1.3921196E-02
   8.80000  1.2753702E-02  4.0163156E-02  1.4867296E-02
   9.00000  1.3911555E-02  4.3366204E-02  1.5913126E-02
   9.20000  1.5187509E-02  4.6501789E-02  1.7034626E-02
   9.40000  1.6572713E-02  4.9467750E-02  1.8204322E-02
   9.60000  1.8050210E-02  5.2166350E-02  1.9396595E-02
   9.80000  1.9595171E-02  5.4509070E-02  2.0592816E-02
   10.0000  2.1176454E-02  5.6414529E-02  2.1784065E-02
   10.2500  2.3148095E-02  5.8059140E-02  2.3266934E-02
   10.5000  2.5039380E-02  5.8746586E-02  2.4754012E-02
   10.7500  2.6772650E-02  5.8380991E-02  2.6255190E-02
   11.0000  2.8287513E-02  5.6972100E-02  2.7768761E-02
   11.2500  2.9551271E-02  5.4657253E-02  2.9283303E-02
   11.5000  3.0562127E-02  5.1675881E-02  3.0782163E-02
   11.7500  3.1344371E-02  4.8310311E-02  3.2244665E-02
   12.0000  3.1937540E-02  4.4824995E-02  3.3644956E-02
   12.2500  3.2385251E-02  4.1427575E-02  3.4950980E-02
   12.5000  3.2728239E-02  3.8256489E-02  3.6127537E-02
   12.7500  3.3001359E-02  3.5387567E-02  3.7143121E-02
   13.0000  3.3233128E-02  3.2848887E-02  3.7976650E-02
   13.2500  3.3446871E-02  3.0636664E-02  3.8621655E-02
   13.5000  3.3662392E-02  2.8728799E-02  3.9086846E-02
   13.7500  3.3897013E-02  2.7094797E-02  3.9393514E-02
   14.0000  3.4165515E-02  2.5702086E-02  3.9571097E-02
   14.2500  3.4479363E-02  2.4519526E-02  3.9652222E-02
   14.5000  3.4845794E-02  2.3519058E-02  3.9668251E-02
   14.7500  3.5267201E-02  2.2676253E-02  3.9646064E-02
   15.0000  3.5741008E-02  2.1970279E-02  3.9606256E-02
   15.2500  3.6259981E-02  2.1383591E-02  3.9562616E-02
   15.5000  3.6812924E-02  2.0901523E-02  3.9522505E-02
   15.7500  3.7385627E-02  2.0511850E-02  3.9487812E-02
   16.0000  3.7961988E-02  2.0204379E-02  3.9456189E-02
   16.2500  3.8525182E-02  1.9970577E-02  3.9422376E-02
   16.5000  3.9058805E-02  1.9803253E-02  3.9379494E-02
   16.7500  3.9547887E-02  1.9696302E-02  3.9320199E-02
   17.0000  3.9979721E-02  1.9644500E-02  3.9237650E-02
   17.2500  4.0344477E-02  1.9643349E-02  3.9126236E-02
   17.5000  4.0635609E-02  1.9688969E-02  3.8982061E-02
   17.7500  4.0850051E-02  1.9778016E-02  3.8803183E-02
   18.0000  4.0988236E-02  1.9907618E-02  3.8589652E-02
   18.2500  4.1053920E-02  2.0075320E-02  3.8343371E-02
   18.5000  4.1053822E-02  2.0279021E-02  3.8067821E-02
   18.7500  4.0997069E-02  2.0516930E-02  3.7767670E-02
   19.0000  4.0894464E-02  2.0787522E-02  3.7448323E-02
   19.2500  4.0757624E-02  2.1089516E-02  3.7115417E-02
   19.5000  4.0598051E-02  2.1421861E-02  3.6774339E-02
   19.7500  4.0426290E-02  2.1783664E-02  3.6429848E-02
   20.0000  4.0251361E-02  2.2173974E-02  3.6085955E-02
   21.0000  3.9643418E-02  2.3983294E-02  3.4780784E-02
   22.0000  3.9267488E-02  2.6074388E-02  3.3673359E-02
   23.0000  3.8928358E-02  2.8277053E-02  3.2764467E-02
   24.0000  3.8295966E-02  3.0392559E-02  3.2006930E-02
   25.0000  3.7137501E-02  3.2213479E-02  3.1352262E-02
   26.0000  3.5442482E-02  3.3562928E-02  3.0757925E-02
   27.0000  3.3419947E-02  3.4340532E-02  3.0189646E-02
   28.0000  3.1377129E-02  3.4551575E-02  2.9634375E-02
   29.0000  2.9578653E-02  3.4303637E-02  2.9118671E-02
   30.0000  2.8167723E-02  3.3759302E-02  2.8694477E-02
   31.0000  2.7146804E-02  3.3055427E-02  2.8384794E-02
   32.0000  2.6442535E-02  3.2275823E-02  2.8176737E-02
   33.0000  2.5961493E-02  3.1458777E-02  2.8035422E-02
   34.0000  2.5613334E-02  3.0611864E-02  2.7914312E-02
   35.0000  2.5321574E-02  2.9729362E-02  2.7764623E-02
   36.0000  2.5029057E-02  2.8808554E-02  2.7544597E-02
   37.0000  2.4702013E-02  2.7861744E-02  2.7229670E-02
   38.0000  2.4335210E-02  2.6923749E-02  2.6824089E-02
   39.0000  2.3957229E-02  2.6057832E-02  2.6373341E-02
   40.0000  2.3626018E-02  2.5353100E-02  2.5965629E-02
