    Energy   (100,001)      (010,001)      (001,110)   
  -25.0000  1.7045361E-04  1.8483112E-04  1.7497295E-04
  -24.0000  1.7680601E-04  1.9174018E-04  1.8140624E-04
  -23.0000  1.8360125E-04  1.9914344E-04  1.8828429E-04
  -22.0000  1.9088574E-04  2.0709467E-04  1.9565340E-04
  -21.0000  1.9871250E-04  2.1565564E-04  2.0356638E-04
  -20.0000  2.0714238E-04  2.2489764E-04  2.1208379E-04
  -19.0000  2.1624556E-04  2.3490334E-04  2.2127537E-04
  -18.0000  2.2610336E-04  2.4576922E-04  2.3122185E-04
  -17.0000  2.3681054E-04  2.5760845E-04  2.4201718E-04
  -16.0000  2.4847820E-04  2.7055467E-04  2.5377132E-04
  -15.0000  2.6123744E-04  2.8476681E-04  2.6661381E-04
  -14.0000  2.7524401E-04  3.0043528E-04  2.8069829E-04
  -13.0000  2.9068442E-04  3.1779009E-04  2.9620837E-04
  -12.0000  3.0778389E-04  3.3711158E-04  3.1336524E-04
  -11.0000  3.2681693E-04  3.5874489E-04  3.3243785E-04
  -10.0000  3.4812161E-04  3.8311957E-04  3.5375651E-04
  -9.00000  3.7211910E-04  4.1077681E-04  3.7773145E-04
  -8.00000  3.9934101E-04  4.4240787E-04  4.0487865E-04
  -7.00000  4.3046838E-04  4.7890944E-04  4.3585652E-04
  -6.00000  4.6638860E-04  5.2146544E-04  4.7151910E-04
  -5.00000  5.0828106E-04  5.7167117E-04  5.1299563E-04
  -4.00000  5.5775025E-04  6.3172815E-04  5.6181317E-04
  -3.00000  6.1704098E-04  7.0476189E-04  6.2009326E-04
  -2.00000  6.8940395E-04  7.9536541E-04  6.9088245E-04
  -1.00000  7.7975565E-04  9.1058593E-04  7.7874177E-04
   0.00000  8.9596821E-04  1.0618591E-03  8.9088189E-04
   1.00000  1.0516751E-03  1.2692162E-03  1.0395874E-03
   2.00000  1.2733737E-03  1.5719053E-03  1.2482150E-03
   3.00000  1.6230402E-03  2.0620476E-03  1.5697591E-03
   4.00000  2.3016789E-03  3.0383228E-03  2.1691916E-03
   5.00000  4.1952848E-03  5.8009091E-03  3.7513072E-03
   5.20000  4.7901407E-03  6.6535006E-03  4.2474523E-03
   5.40000  5.3851566E-03  7.4929429E-03  4.7536938E-03
   5.60000  5.9625248E-03  8.3001734E-03  5.2594473E-03
   5.80000  6.5287264E-03  9.0951053E-03  5.7729015E-03
   6.00000  7.0979745E-03  9.9073875E-03  6.3082650E-03
   6.20000  7.6841200E-03  1.0763435E-02  6.8795599E-03
   6.40000  8.2985500E-03  1.1684778E-02  7.4990955E-03
   6.60000  8.9500965E-03  1.2689847E-02  8.1772077E-03
   6.80000  9.6456943E-03  1.3796009E-02  8.9220169E-03
   7.00000  1.0391421E-02  1.5020868E-02  9.7390554E-03
   7.20000  1.1193521E-02  1.6382781E-02  1.0630907E-02
   7.40000  1.2059022E-02  1.7900858E-02  1.1597011E-02
   7.60000  1.2995852E-02  1.9594725E-02  1.2633713E-02
   7.80000  1.4012550E-02  2.1483913E-02  1.3734488E-02
   8.00000  1.5117485E-02  2.3586356E-02  1.4890153E-02
   8.20000  1.6317719E-02  2.5915746E-02  1.6089498E-02
   8.40000  1.7617994E-02  2.8478070E-02  1.7321211E-02
   8.60000  1.9019840E-02  3.1267784E-02  1.8576722E-02
   8.80000  2.0520489E-02  3.4263994E-02  1.9852632E-02
   9.00000  2.2111550E-02  3.7426907E-02  2.1151235E-02
   9.20000  2.3777671E-02  4.0694628E-02  2.2478089E-02
   9.40000  2.5495479E-02  4.3980556E-02  2.3836932E-02
   9.60000  2.7233168E-02  4.7172375E-02  2.5223783E-02
   9.80000  2.8950970E-02  5.0134855E-02  2.6622593E-02
   10.0000  3.0602530E-02  5.2718661E-02  2.8004000E-02
   10.2500  3.2496204E-02  5.5191742E-02  2.9644536E-02
   10.5000  3.4106919E-02  5.6606342E-02  3.1109820E-02
   10.7500  3.5349842E-02  5.6838992E-02  3.2332679E-02
   11.0000  3.6174099E-02  5.5911289E-02  3.3283229E-02
   11.2500  3.6576828E-02  5.3980185E-02  3.3973025E-02
   11.5000  3.6605920E-02  5.1295616E-02  3.4445478E-02
   11.7500  3.6349062E-02  4.8144020E-02  3.4759852E-02
   12.0000  3.5913254E-02  4.4796706E-02  3.4976224E-02
   12.2500  3.5403832E-02  4.1474904E-02  3.5145267E-02
   12.5000  3.4909332E-02  3.8334908E-02  3.5303823E-02
   12.7500  3.4494082E-02  3.5470106E-02  3.5475197E-02
   13.0000  3.4197567E-02  3.2923036E-02  3.5672138E-02
   13.2500  3.4038027E-02  3.0700655E-02  3.5900686E-02
   13.5000  3.4017538E-02  2.8788212E-02  3.6163566E-02
   13.7500  3.4126667E-02  2.7159755E-02  3.6462313E-02
   14.0000  3.4348145E-02  2.5785122E-02  3.6798111E-02
   14.2500  3.4659649E-02  2.4634144E-02  3.7171733E-02
   14.5000  3.5035845E-02  2.3678853E-02  3.7582979E-02
   14.7500  3.5449855E-02  2.2894429E-02  3.8029916E-02
   15.0000  3.5874323E-02  2.2259387E-02  3.8508107E-02
   15.2500  3.6282264E-02  2.1755382E-02  3.9009973E-02
   15.5000  3.6647855E-02  2.1366831E-02  3.9524403E-02
   15.7500  3.6947305E-02  2.1080477E-02  4.0036709E-02
   16.0000  3.7159875E-02  2.0884967E-02  4.0529020E-02
   16.2500  3.7269044E-02  2.0770467E-02  4.0981185E-02
   16.5000  3.7263688E-02  2.0728341E-02  4.1372184E-02
   16.7500  3.7139085E-02  2.0750891E-02  4.1681937E-02
   17.0000  3.6897501E-02  2.0831148E-02  4.1893271E-02
   17.2500  3.6548190E-02  2.0962718E-02  4.1993735E-02
   17.5000  3.6106711E-02  2.1139677E-02  4.1976925E-02
   17.7500  3.5593630E-02  2.1356502E-02  4.1843067E-02
   18.0000  3.5032767E-02  2.1608040E-02  4.1598766E-02
   18.2500  3.4449264E-02  2.1889506E-02  4.1255999E-02
   18.5000  3.3867731E-02  2.2196498E-02  4.0830592E-02
   18.7500  3.3310697E-02  2.2525026E-02  4.0340455E-02
   19.0000  3.2797483E-02  2.2871549E-02  3.9803872E-02
   19.2500  3.2343539E-02  2.3233033E-02  3.9238021E-02
   19.5000  3.1960170E-02  2.3606994E-02  3.8657843E-02
   19.7500  3.1654603E-02  2.3991492E-02  3.8075397E-02
   20.0000  3.1430327E-02  2.4384938E-02  3.7499833E-02
   21.0000  3.1324795E-02  2.6011218E-02  3.5383547E-02
   22.0000  3.2262734E-02  2.7636837E-02  3.3672149E-02
   23.0000  3.3741712E-02  2.9178312E-02  3.2295765E-02
   24.0000  3.5109578E-02  3.0558854E-02  3.1110482E-02
   25.0000  3.5714809E-02  3.1698823E-02  2.9995532E-02
   26.0000  3.5188802E-02  3.2519312E-02  2.8892779E-02
   27.0000  3.3670190E-02  3.2959859E-02  2.7823640E-02
   28.0000  3.1682152E-02  3.3011890E-02  2.6868168E-02
   29.0000  2.9754152E-02  3.2735945E-02  2.6103681E-02
   30.0000  2.8139807E-02  3.2228366E-02  2.5540616E-02
   31.0000  2.6864905E-02  3.1584299E-02  2.5137758E-02
   32.0000  2.5863184E-02  3.0875620E-02  2.4837210E-02
   33.0000  2.5055478E-02  3.0144386E-02  2.4584975E-02
   34.0000  2.4381039E-02  2.9409378E-02  2.4342001E-02
   35.0000  2.3802878E-02  2.8678305E-02  2.4089493E-02
   36.0000  2.3302651E-02  2.7958547E-02  2.3830797E-02
   37.0000  2.2873523E-02  2.7263128E-02  2.3587051E-02
   38.0000  2.2513162E-02  2.6611945E-02  2.3383700E-02
   39.0000  2.2220116E-02  2.6034115E-02  2.3233776E-02
   40.0000  2.1994861E-02  2.5572038E-02  2.3131596E-02
