    Energy   (100,001)      (010,001)      (001,110)   
  -25.0000  1.6566129E-04  1.8518727E-04  1.6712855E-04
  -24.0000  1.7192186E-04  1.9214006E-04  1.7356896E-04
  -23.0000  1.7861928E-04  1.9959213E-04  1.8046836E-04
  -22.0000  1.8579901E-04  2.0759800E-04  1.8787553E-04
  -21.0000  1.9351287E-04  2.1622035E-04  1.9584626E-04
  -20.0000  2.0182023E-04  2.2553152E-04  2.0444464E-04
  -19.0000  2.1078941E-04  2.3561549E-04  2.1374463E-04
  -18.0000  2.2049941E-04  2.4657028E-04  2.2383200E-04
  -17.0000  2.3104208E-04  2.5851096E-04  2.3480679E-04
  -16.0000  2.4252476E-04  2.7157348E-04  2.4678634E-04
  -15.0000  2.5507375E-04  2.8591964E-04  2.5990918E-04
  -14.0000  2.6883856E-04  3.0174340E-04  2.7433995E-04
  -13.0000  2.8399756E-04  3.1927923E-04  2.9027581E-04
  -12.0000  3.0076517E-04  3.3881313E-04  3.0795480E-04
  -11.0000  3.1940147E-04  3.6069746E-04  3.2766692E-04
  -10.0000  3.4022499E-04  3.8537113E-04  3.4976901E-04
  -9.00000  3.6363010E-04  4.1338758E-04  3.7470503E-04
  -8.00000  3.9011102E-04  4.4545430E-04  4.0303427E-04
  -7.00000  4.2029576E-04  4.8248983E-04  4.3547129E-04
  -6.00000  4.5499498E-04  5.2570789E-04  4.7294379E-04
  -5.00000  4.9527447E-04  5.7674520E-04  5.1667880E-04
  -4.00000  5.4256588E-04  6.3786174E-04  5.6833504E-04
  -3.00000  5.9884248E-04  7.1226718E-04  6.3021395E-04
  -2.00000  6.6691096E-04  8.0467769E-04  7.0561216E-04
  -1.00000  7.5092489E-04  9.2232287E-04  7.9944530E-04
   0.00000  8.5735793E-04  1.0769066E-03  9.1943958E-04
   1.00000  9.9704435E-04  1.2888278E-03  1.0786578E-03
   2.00000  1.1901216E-03  1.5976513E-03  1.3017243E-03
   3.00000  1.4809516E-03  2.0943847E-03  1.6441728E-03
   4.00000  2.0024090E-03  3.0629448E-03  2.2798088E-03
   5.00000  3.3112050E-03  5.7167106E-03  3.9487196E-03
   5.20000  3.7279052E-03  6.5690354E-03  4.4523889E-03
   5.40000  4.1667237E-03  7.4524759E-03  4.9471181E-03
   5.60000  4.6193527E-03  8.3483277E-03  5.4226453E-03
   5.80000  5.0878879E-03  9.2663483E-03  5.8915803E-03
   6.00000  5.5765144E-03  1.0225479E-02  6.3723090E-03
   6.20000  6.0881911E-03  1.1244904E-02  6.8815709E-03
   6.40000  6.6249635E-03  1.2342325E-02  7.4336072E-03
   6.60000  7.1894138E-03  1.3534176E-02  8.0409584E-03
   6.80000  7.7860370E-03  1.4836075E-02  8.7149769E-03
   7.00000  8.4220378E-03  1.6263282E-02  9.4657707E-03
   7.20000  9.1074026E-03  1.7830920E-02  1.0301863E-02
   7.40000  9.8542457E-03  1.9553741E-02  1.1229881E-02
   7.60000  1.0675474E-02  2.1445237E-02  1.2254545E-02
   7.80000  1.1582896E-02  2.3515872E-02  1.3379268E-02
   8.00000  1.2585133E-02  2.5770562E-02  1.4607676E-02
   8.20000  1.3686109E-02  2.8206232E-02  1.5946230E-02
   8.40000  1.4885208E-02  3.0810883E-02  1.7407414E-02
   8.60000  1.6179640E-02  3.3564737E-02  1.9011605E-02
   8.80000  1.7567716E-02  3.6441241E-02  2.0784961E-02
   9.00000  1.9050075E-02  3.9404321E-02  2.2752117E-02
   9.20000  2.0626919E-02  4.2401740E-02  2.4925977E-02
   9.40000  2.2292583E-02  4.5359637E-02  2.7298903E-02
   9.60000  2.4030734E-02  4.8182265E-02  2.9838523E-02
   9.80000  2.5812307E-02  5.0755579E-02  3.2488827E-02
   10.0000  2.7596609E-02  5.2954701E-02  3.5174982E-02
   10.2500  2.9756335E-02  5.4993672E-02  3.8449559E-02
   10.5000  3.1745220E-02  5.6074353E-02  4.1464641E-02
   10.7500  3.3477218E-02  5.6116247E-02  4.4054557E-02
   11.0000  3.4892827E-02  5.5165304E-02  4.6087298E-02
   11.2500  3.5963850E-02  5.3375366E-02  4.7480216E-02
   11.5000  3.6692697E-02  5.0962283E-02  4.8209799E-02
   11.7500  3.7111301E-02  4.8155709E-02  4.8311411E-02
   12.0000  3.7276292E-02  4.5163123E-02  4.7867845E-02
   12.2500  3.7257494E-02  4.2150308E-02  4.6990836E-02
   12.5000  3.7125333E-02  3.9236381E-02  4.5802616E-02
   12.7500  3.6943124E-02  3.6498379E-02  4.4422396E-02
   13.0000  3.6763496E-02  3.3980131E-02  4.2957766E-02
   13.2500  3.6627287E-02  3.1701364E-02  4.1499842E-02
   13.5000  3.6564515E-02  2.9665440E-02  4.0120265E-02
   13.7500  3.6596241E-02  2.7865381E-02  3.8869928E-02
   14.0000  3.6735928E-02  2.6288189E-02  3.7780578E-02
   14.2500  3.6990119E-02  2.4917824E-02  3.6868235E-02
   14.5000  3.7358786E-02  2.3737190E-02  3.6136739E-02
   14.7500  3.7835476E-02  2.2729394E-02  3.5580700E-02
   15.0000  3.8407282E-02  2.1878455E-02  3.5187797E-02
   15.2500  3.9054747E-02  2.1169642E-02  3.4940506E-02
   15.5000  3.9751907E-02  2.0589581E-02  3.4817428E-02
   15.7500  4.0466736E-02  2.0126204E-02  3.4794413E-02
   16.0000  4.1162258E-02  1.9768636E-02  3.4845674E-02
   16.2500  4.1798536E-02  1.9507045E-02  3.4945015E-02
   16.5000  4.2335571E-02  1.9332499E-02  3.5067200E-02
   16.7500  4.2736940E-02  1.9236850E-02  3.5189381E-02
   17.0000  4.2973685E-02  1.9212642E-02  3.5292384E-02
   17.2500  4.3027794E-02  1.9253059E-02  3.5361666E-02
   17.5000  4.2894542E-02  1.9351883E-02  3.5387750E-02
   17.7500  4.2583125E-02  1.9503471E-02  3.5366118E-02
   18.0000  4.2115410E-02  1.9702733E-02  3.5296598E-02
   18.2500  4.1523028E-02  1.9945099E-02  3.5182423E-02
   18.5000  4.0843450E-02  2.0226486E-02  3.5029147E-02
   18.7500  4.0115800E-02  2.0543267E-02  3.4843585E-02
   19.0000  3.9377125E-02  2.0892248E-02  3.4632901E-02
   19.2500  3.8659546E-02  2.1270676E-02  3.4403891E-02
   19.5000  3.7988485E-02  2.1676261E-02  3.4162483E-02
   19.7500  3.7381909E-02  2.2107136E-02  3.3913451E-02
   20.0000  3.6850587E-02  2.2561634E-02  3.3660406E-02
   21.0000  3.5511909E-02  2.4570925E-02  3.2653360E-02
   22.0000  3.5154739E-02  2.6771955E-02  3.1691276E-02
   23.0000  3.5082099E-02  2.9017562E-02  3.0744478E-02
   24.0000  3.4593992E-02  3.1098391E-02  2.9782126E-02
   25.0000  3.3332664E-02  3.2757996E-02  2.8818183E-02
   26.0000  3.1415601E-02  3.3843601E-02  2.7895080E-02
   27.0000  2.9275887E-02  3.4328902E-02  2.7067684E-02
   28.0000  2.7341185E-02  3.4284332E-02  2.6386719E-02
   29.0000  2.5835019E-02  3.3839151E-02  2.5880787E-02
   30.0000  2.4777460E-02  3.3135637E-02  2.5543896E-02
   31.0000  2.4075525E-02  3.2295693E-02  2.5333836E-02
   32.0000  2.3603963E-02  3.1406905E-02  2.5183242E-02
   33.0000  2.3248992E-02  3.0522948E-02  2.5016943E-02
   34.0000  2.2924803E-02  2.9670965E-02  2.4767016E-02
   35.0000  2.2577236E-02  2.8860653E-02  2.4382519E-02
   36.0000  2.2183319E-02  2.8092266E-02  2.3837630E-02
   37.0000  2.1748572E-02  2.7363219E-02  2.3141770E-02
   38.0000  2.1301387E-02  2.6676094E-02  2.2349712E-02
   39.0000  2.0884905E-02  2.6052273E-02  2.1563057E-02
   40.0000  2.0545664E-02  2.5542427E-02  2.0906348E-02
