    Energy   (100,001)      (010,001)      (001,110)   
  -25.0000  1.6737641E-04  1.8062347E-04  1.6971065E-04
  -24.0000  1.7373535E-04  1.8759798E-04  1.7640251E-04
  -23.0000  1.8054191E-04  1.9508370E-04  1.8358359E-04
  -22.0000  1.8784310E-04  2.0313739E-04  1.9130744E-04
  -21.0000  1.9569263E-04  2.1182436E-04  1.9963549E-04
  -20.0000  2.0415207E-04  2.2122019E-04  2.0863868E-04
  -19.0000  2.1329240E-04  2.3141277E-04  2.1839924E-04
  -18.0000  2.2319579E-04  2.4250489E-04  2.2901306E-04
  -17.0000  2.3395791E-04  2.5461750E-04  2.4059266E-04
  -16.0000  2.4569075E-04  2.6789384E-04  2.5327083E-04
  -15.0000  2.5852628E-04  2.8250475E-04  2.6720545E-04
  -14.0000  2.7262100E-04  2.9865561E-04  2.8258565E-04
  -13.0000  2.8816194E-04  3.1659536E-04  2.9963989E-04
  -12.0000  3.0537433E-04  3.3662852E-04  3.1864666E-04
  -11.0000  3.2453189E-04  3.5913144E-04  3.3994896E-04
  -10.0000  3.4597052E-04  3.8457440E-04  3.6397404E-04
  -9.00000  3.7010691E-04  4.1355252E-04  3.9126092E-04
  -8.00000  3.9746435E-04  4.4682934E-04  4.2249954E-04
  -7.00000  4.2870914E-04  4.8540010E-04  4.5858766E-04
  -6.00000  4.6470316E-04  5.3058538E-04  5.0071592E-04
  -5.00000  5.0658178E-04  5.8417394E-04  5.5049885E-04
  -4.00000  5.5587296E-04  6.4864737E-04  6.1018424E-04
  -3.00000  6.1468601E-04  7.2754760E-04  6.8300259E-04
  -2.00000  6.8602477E-04  8.2610609E-04  7.7378214E-04
  -1.00000  7.7433709E-04  9.5238533E-04  8.9010519E-04
   0.00000  8.8655288E-04  1.1195083E-03  1.0446742E-03
   1.00000  1.0342518E-03  1.3504684E-03  1.2607261E-03
   2.00000  1.2388952E-03  1.6900848E-03  1.5864982E-03
   3.00000  1.5476301E-03  2.2419158E-03  2.1437145E-03
   4.00000  2.1021762E-03  3.3303634E-03  3.3580354E-03
   5.00000  3.4859353E-03  6.3554364E-03  7.2857861E-03
   5.20000  3.9040952E-03  7.3382468E-03  8.6541738E-03
   5.40000  4.3251822E-03  8.3563788E-03  1.0065034E-02
   5.60000  4.7451999E-03  9.3723689E-03  1.1390865E-02
   5.80000  5.1780370E-03  1.0376309E-02  1.2529361E-02
   6.00000  5.6419870E-03  1.1376183E-02  1.3431208E-02
   6.20000  6.1529682E-03  1.2397555E-02  1.4120277E-02
   6.40000  6.7229601E-03  1.3481200E-02  1.4676723E-02
   6.60000  7.3609017E-03  1.4675078E-02  1.5196477E-02
   6.80000  8.0744327E-03  1.6027100E-02  1.5761241E-02
   7.00000  8.8708645E-03  1.7582354E-02  1.6428291E-02
   7.20000  9.7564677E-03  1.9383062E-02  1.7229800E-02
   7.40000  1.0734458E-02  2.1468365E-02  1.8174091E-02
   7.60000  1.1802872E-02  2.3872234E-02  1.9247808E-02
   7.80000  1.2953872E-02  2.6619629E-02  2.0419831E-02
   8.00000  1.4176000E-02  2.9723825E-02  2.1648206E-02
   8.20000  1.5459427E-02  3.3189159E-02  2.2891395E-02
   8.40000  1.6801535E-02  3.7016205E-02  2.4119847E-02
   8.60000  1.8209166E-02  4.1197361E-02  2.5320106E-02
   8.80000  1.9696059E-02  4.5694136E-02  2.6491477E-02
   9.00000  2.1276389E-02  5.0397819E-02  2.7640695E-02
   9.20000  2.2958228E-02  5.5088910E-02  2.8777677E-02
   9.40000  2.4740680E-02  5.9421513E-02  2.9912377E-02
   9.60000  2.6612969E-02  6.2956993E-02  3.1052176E-02
   9.80000  2.8552595E-02  6.5257912E-02  3.2199483E-02
   10.0000  3.0523385E-02  6.6020347E-02  3.3349397E-02
   10.2500  3.2955533E-02  6.4739566E-02  3.4768039E-02
   10.5000  3.5249941E-02  6.1401859E-02  3.6121699E-02
   10.7500  3.7299119E-02  5.6793476E-02  3.7354550E-02
   11.0000  3.9014127E-02  5.1706993E-02  3.8416293E-02
   11.2500  4.0338214E-02  4.6722280E-02  3.9271372E-02
   11.5000  4.1254167E-02  4.2167479E-02  3.9901263E-02
   11.7500  4.1782631E-02  3.8177113E-02  4.0303334E-02
   12.0000  4.1973980E-02  3.4767732E-02  4.0489190E-02
   12.2500  4.1897012E-02  3.1895992E-02  4.0482792E-02
   12.5000  4.1626226E-02  2.9494642E-02  4.0317147E-02
   12.7500  4.1230803E-02  2.7492631E-02  4.0030358E-02
   13.0000  4.0769114E-02  2.5825009E-02  3.9662714E-02
   13.2500  4.0288306E-02  2.4436255E-02  3.9253877E-02
   13.5000  3.9825593E-02  2.3280357E-02  3.8839757E-02
   13.7500  3.9409145E-02  2.2319712E-02  3.8450076E-02
   14.0000  3.9058588E-02  2.1523784E-02  3.8106948E-02
   14.2500  3.8785561E-02  2.0867869E-02  3.7824235E-02
   14.5000  3.8594390E-02  2.0332059E-02  3.7607437E-02
   14.7500  3.8482790E-02  1.9900361E-02  3.7454058E-02
   15.0000  3.8442597E-02  1.9559955E-02  3.7354404E-02
   15.2500  3.8460564E-02  1.9300556E-02  3.7292869E-02
   15.5000  3.8519322E-02  1.9113885E-02  3.7249752E-02
   15.7500  3.8598577E-02  1.8993219E-02  3.7203592E-02
   16.0000  3.8676571E-02  1.8933030E-02  3.7133821E-02
   16.2500  3.8731784E-02  1.8928688E-02  3.7023356E-02
   16.5000  3.8744740E-02  1.8976228E-02  3.6860642E-02
   16.7500  3.8699743E-02  1.9072172E-02  3.6640725E-02
   17.0000  3.8586291E-02  1.9213394E-02  3.6365170E-02
   17.2500  3.8399943E-02  1.9397029E-02  3.6040939E-02
   17.5000  3.8142502E-02  1.9620402E-02  3.5678623E-02
   17.7500  3.7821484E-02  1.9880984E-02  3.5290498E-02
   18.0000  3.7449010E-02  2.0176363E-02  3.4888819E-02
   18.2500  3.7040310E-02  2.0504216E-02  3.4484592E-02
   18.5000  3.6612129E-02  2.0862296E-02  3.4086865E-02
   18.7500  3.6181230E-02  2.1248426E-02  3.3702487E-02
   19.0000  3.5763168E-02  2.1660518E-02  3.3336170E-02
   19.2500  3.5371368E-02  2.2096616E-02  3.2990732E-02
   19.5000  3.5016518E-02  2.2554965E-02  3.2667406E-02
   19.7500  3.4706240E-02  2.3034011E-02  3.2366157E-02
   20.0000  3.4445054E-02  2.3532203E-02  3.2086042E-02
   21.0000  3.3894112E-02  2.5667444E-02  3.1146362E-02
   22.0000  3.3916106E-02  2.7897706E-02  3.0408575E-02
   23.0000  3.3954414E-02  3.0037478E-02  2.9746969E-02
   24.0000  3.3455687E-02  3.1870954E-02  2.9072559E-02
   25.0000  3.2217675E-02  3.3240079E-02  2.8361387E-02
   26.0000  3.0474574E-02  3.4036016E-02  2.7644838E-02
   27.0000  2.8641197E-02  3.4220994E-02  2.6986402E-02
   28.0000  2.7022802E-02  3.3864750E-02  2.6450888E-02
   29.0000  2.5731055E-02  3.3119704E-02  2.6067816E-02
   30.0000  2.4747874E-02  3.2156013E-02  2.5813475E-02
   31.0000  2.4004854E-02  3.1109406E-02  2.5625131E-02
   32.0000  2.3427363E-02  3.0064037E-02  2.5429406E-02
   33.0000  2.2951146E-02  2.9060711E-02  2.5162639E-02
   34.0000  2.2527532E-02  2.8112628E-02  2.4778120E-02
   35.0000  2.2126252E-02  2.7219453E-02  2.4248815E-02
   36.0000  2.1737499E-02  2.6377431E-02  2.3573434E-02
   37.0000  2.1370163E-02  2.5585707E-02  2.2784944E-02
   38.0000  2.1043747E-02  2.4851601E-02  2.1954109E-02
   39.0000  2.0777435E-02  2.4199706E-02  2.1180521E-02
   40.0000  2.0579371E-02  2.3676469E-02  2.0562546E-02
