    Energy   (100,001)      (010,001)      (001,110)   
  -25.0000  1.6700692E-04  1.8288193E-04  1.7396199E-04
  -24.0000  1.7324542E-04  1.8983354E-04  1.8064260E-04
  -23.0000  1.7991526E-04  1.9728808E-04  1.8780362E-04
  -22.0000  1.8706090E-04  2.0530074E-04  1.9549701E-04
  -21.0000  1.9473301E-04  2.1393496E-04  2.0378236E-04
  -20.0000  2.0298953E-04  2.2326404E-04  2.1272831E-04
  -19.0000  2.1189705E-04  2.3337308E-04  2.2241440E-04
  -18.0000  2.2153245E-04  2.4436146E-04  2.3293324E-04
  -17.0000  2.3198495E-04  2.5634590E-04  2.4439329E-04
  -16.0000  2.4335868E-04  2.6946437E-04  2.5692240E-04
  -15.0000  2.5577585E-04  2.8388116E-04  2.7067230E-04
  -14.0000  2.6938088E-04  2.9979328E-04  2.8582441E-04
  -13.0000  2.8434563E-04  3.1743907E-04  3.0259745E-04
  -12.0000  3.0087617E-04  3.3710936E-04  3.2125748E-04
  -11.0000  3.1922174E-04  3.5916266E-04  3.4213139E-04
  -10.0000  3.3968661E-04  3.8404580E-04  3.6562529E-04
  -9.00000  3.6264620E-04  4.1232251E-04  3.9225007E-04
  -8.00000  3.8856915E-04  4.4471383E-04  4.2265743E-04
  -7.00000  4.1804836E-04  4.8215643E-04  4.5769222E-04
  -6.00000  4.5184549E-04  5.2588864E-04  4.9846997E-04
  -5.00000  4.9095647E-04  5.7758123E-04  5.4649565E-04
  -4.00000  5.3671105E-04  6.3954230E-04  6.0385191E-04
  -3.00000  5.9092963E-04  7.1505111E-04  6.7351026E-04
  -2.00000  6.5618230E-04  8.0892748E-04  7.5987308E-04
  -1.00000  7.3624176E-04  9.2856072E-04  8.6978038E-04
   0.00000  8.3693868E-04  1.0859119E-03  1.0145424E-03
   1.00000  9.6795393E-04  1.3018199E-03  1.2145273E-03
   2.00000  1.1471826E-03  1.6166800E-03  1.5112742E-03
   3.00000  1.4141100E-03  2.1234055E-03  2.0079248E-03
   4.00000  1.8890946E-03  3.1127359E-03  3.0639735E-03
   5.00000  3.0842206E-03  5.8184928E-03  6.3193929E-03
   5.20000  3.4549743E-03  6.6672876E-03  7.3099584E-03
   5.40000  3.8311991E-03  7.5297394E-03  8.2346309E-03
   5.60000  4.2010021E-03  8.3918578E-03  9.0629891E-03
   5.80000  4.5660228E-03  9.2743069E-03  9.8311869E-03
   6.00000  4.9339774E-03  1.0208160E-02  1.0596999E-02
   6.20000  5.3147366E-03  1.1223541E-02  1.1412936E-02
   6.40000  5.7185881E-03  1.2347387E-02  1.2316173E-02
   6.60000  6.1549185E-03  1.3603674E-02  1.3325480E-02
   6.80000  6.6313082E-03  1.5013259E-02  1.4439986E-02
   7.00000  7.1535186E-03  1.6592441E-02  1.5638854E-02
   7.20000  7.7264598E-03  1.8350229E-02  1.6883981E-02
   7.40000  8.3555868E-03  2.0285160E-02  1.8128742E-02
   7.60000  9.0478780E-03  2.2383732E-02  1.9332941E-02
   7.80000  9.8117824E-03  2.4623200E-02  2.0478182E-02
   8.00000  1.0656173E-02  2.6979944E-02  2.1574622E-02
   8.20000  1.1588994E-02  2.9440454E-02  2.2655051E-02
   8.40000  1.2616379E-02  3.2008632E-02  2.3761301E-02
   8.60000  1.3742428E-02  3.4704574E-02  2.4931368E-02
   8.80000  1.4969267E-02  3.7554749E-02  2.6191414E-02
   9.00000  1.6296825E-02  4.0576522E-02  2.7551890E-02
   9.20000  1.7722073E-02  4.3760334E-02  2.9005827E-02
   9.40000  1.9237830E-02  4.7052872E-02  3.0528479E-02
   9.60000  2.0831615E-02  5.0343987E-02  3.2078541E-02
   9.80000  2.2485213E-02  5.3460354E-02  3.3601574E-02
   10.0000  2.4175244E-02  5.6175850E-02  3.5036285E-02
   10.2500  2.6297240E-02  5.8639432E-02  3.6615383E-02
   10.5000  2.8376651E-02  5.9722574E-02  3.7870900E-02
   10.7500  3.0361508E-02  5.9282646E-02  3.8751769E-02
   11.0000  3.2212533E-02  5.7459143E-02  3.9256525E-02
   11.2500  3.3901080E-02  5.4601180E-02  3.9427641E-02
   11.5000  3.5402860E-02  5.1130992E-02  3.9333964E-02
   11.7500  3.6698771E-02  4.7425812E-02  3.9050046E-02
   12.0000  3.7778813E-02  4.3762547E-02  3.8642469E-02
   12.2500  3.8644435E-02  4.0314905E-02  3.8164383E-02
   12.5000  3.9308840E-02  3.7173936E-02  3.7654935E-02
   12.7500  3.9795385E-02  3.4373455E-02  3.7140661E-02
   13.0000  4.0134703E-02  3.1912345E-02  3.6638672E-02
   13.2500  4.0361335E-02  2.9770599E-02  3.6163106E-02
   13.5000  4.0510354E-02  2.7919340E-02  3.5730696E-02
   13.7500  4.0614432E-02  2.6326855E-02  3.5360029E-02
   14.0000  4.0701786E-02  2.4962175E-02  3.5066957E-02
   14.2500  4.0795033E-02  2.3796911E-02  3.4860963E-02
   14.5000  4.0910868E-02  2.2806003E-02  3.4744316E-02
   14.7500  4.1060100E-02  2.1967845E-02  3.4712851E-02
   15.0000  4.1247732E-02  2.1264039E-02  3.4756981E-02
   15.2500  4.1473053E-02  2.0679008E-02  3.4862591E-02
   15.5000  4.1729897E-02  2.0199560E-02  3.5011982E-02
   15.7500  4.2007175E-02  1.9814503E-02  3.5185023E-02
   16.0000  4.2289772E-02  1.9514320E-02  3.5360577E-02
   16.2500  4.2559836E-02  1.9290922E-02  3.5518153E-02
   16.5000  4.2798426E-02  1.9137441E-02  3.5639611E-02
   16.7500  4.2987408E-02  1.9048078E-02  3.5710698E-02
   17.0000  4.3111390E-02  1.9017964E-02  3.5722139E-02
   17.2500  4.3159398E-02  1.9043031E-02  3.5670099E-02
   17.5000  4.3126029E-02  1.9119895E-02  3.5555953E-02
   17.7500  4.3011857E-02  1.9245732E-02  3.5385457E-02
   18.0000  4.2823029E-02  1.9418171E-02  3.5167528E-02
   18.2500  4.2570149E-02  1.9635186E-02  3.4912883E-02
   18.5000  4.2266685E-02  1.9895019E-02  3.4632775E-02
   18.7500  4.1927216E-02  2.0196112E-02  3.4337957E-02
   19.0000  4.1565786E-02  2.0537080E-02  3.4037953E-02
   19.2500  4.1194561E-02  2.0916708E-02  3.3740611E-02
   19.5000  4.0822911E-02  2.1333967E-02  3.3451892E-02
   19.7500  4.0456918E-02  2.1787958E-02  3.3175870E-02
   20.0000  4.0099366E-02  2.2277660E-02  3.2914943E-02
   21.0000  3.8722603E-02  2.4549471E-02  3.2034295E-02
   22.0000  3.7201379E-02  2.7174443E-02  3.1371826E-02
   23.0000  3.5215153E-02  2.9899791E-02  3.0803261E-02
   24.0000  3.2772057E-02  3.2357635E-02  3.0212707E-02
   25.0000  3.0270077E-02  3.4144338E-02  2.9545385E-02
   26.0000  2.8115013E-02  3.5061302E-02  2.8811896E-02
   27.0000  2.6468930E-02  3.5158390E-02  2.8070642E-02
   28.0000  2.5288203E-02  3.4642851E-02  2.7393378E-02
   29.0000  2.4461867E-02  3.3760336E-02  2.6831855E-02
   30.0000  2.3888191E-02  3.2713716E-02  2.6400611E-02
   31.0000  2.3487526E-02  3.1638858E-02  2.6076069E-02
   32.0000  2.3196722E-02  3.0612027E-02  2.5808857E-02
   33.0000  2.2963967E-02  2.9665500E-02  2.5541840E-02
   34.0000  2.2747300E-02  2.8801834E-02  2.5225520E-02
   35.0000  2.2515900E-02  2.8005270E-02  2.4827397E-02
   36.0000  2.2252722E-02  2.7252320E-02  2.4337016E-02
   37.0000  2.1956458E-02  2.6523671E-02  2.3769044E-02
   38.0000  2.1641501E-02  2.5817521E-02  2.3164481E-02
   39.0000  2.1336745E-02  2.5163145E-02  2.2588380E-02
   40.0000  2.1080842E-02  2.4623556E-02  2.2116434E-02
