    Energy   (100,001)      (010,001)      (001,110)   
  -25.0000  1.7164104E-04  1.7895968E-04  1.7048607E-04
  -24.0000  1.7799583E-04  1.8591865E-04  1.7681675E-04
  -23.0000  1.8479200E-04  1.9338815E-04  1.8358668E-04
  -22.0000  1.9207571E-04  2.0142471E-04  1.9084163E-04
  -21.0000  1.9989971E-04  2.1009341E-04  1.9863383E-04
  -20.0000  2.0832451E-04  2.1946949E-04  2.0702315E-04
  -19.0000  2.1741986E-04  2.2964039E-04  2.1607859E-04
  -18.0000  2.2726662E-04  2.4070836E-04  2.2588000E-04
  -17.0000  2.3795898E-04  2.5279360E-04  2.3652032E-04
  -16.0000  2.4960735E-04  2.6603841E-04  2.4810841E-04
  -15.0000  2.6234199E-04  2.8061240E-04  2.6077249E-04
  -14.0000  2.7631767E-04  2.9671929E-04  2.7466472E-04
  -13.0000  2.9171967E-04  3.1460585E-04  2.8996704E-04
  -12.0000  3.0877170E-04  3.3457376E-04  3.0689876E-04
  -11.0000  3.2774641E-04  3.5699551E-04  3.2572674E-04
  -10.0000  3.4897950E-04  3.8233625E-04  3.4677905E-04
  -9.00000  3.7288922E-04  4.1118409E-04  3.7046366E-04
  -8.00000  4.0000338E-04  4.4429305E-04  3.9729453E-04
  -7.00000  4.3099809E-04  4.8264524E-04  4.2792882E-04
  -6.00000  4.6675428E-04  5.2754306E-04  4.6322125E-04
  -5.00000  5.0844262E-04  5.8074985E-04  5.0430589E-04
  -4.00000  5.5765557E-04  6.4471158E-04  5.5272340E-04
  -3.00000  6.1662082E-04  7.2292028E-04  6.1062739E-04
  -2.00000  6.8856340E-04  8.2053864E-04  6.8113638E-04
  -1.00000  7.7835858E-04  9.4553927E-04  7.6897328E-04
   0.00000  8.9380440E-04  1.1109474E-03  8.8172731E-04
   1.00000  1.0483758E-03  1.3397346E-03  1.0326374E-03
   2.00000  1.2681326E-03  1.6771845E-03  1.2477812E-03
   3.00000  1.6133481E-03  2.2299794E-03  1.5896403E-03
   4.00000  2.2748158E-03  3.3433508E-03  2.2694177E-03
   5.00000  4.0874806E-03  6.5247071E-03  4.2301779E-03
   5.20000  4.6791022E-03  7.5240174E-03  4.8117446E-03
   5.40000  5.2983337E-03  8.5196876E-03  5.3481153E-03
   5.60000  5.9275081E-03  9.4839862E-03  5.8213851E-03
   5.80000  6.5642026E-03  1.0434144E-02  6.2546697E-03
   6.00000  7.2111778E-03  1.1403402E-02  6.6860292E-03
   6.20000  7.8735293E-03  1.2426389E-02  7.1526741E-03
   6.40000  8.5590397E-03  1.3534866E-02  7.6854556E-03
   6.60000  9.2772723E-03  1.4756695E-02  8.3083038E-03
   6.80000  1.0037220E-02  1.6115743E-02  9.0390028E-03
   7.00000  1.0845082E-02  1.7632312E-02  9.8891854E-03
   7.20000  1.1702944E-02  1.9323870E-02  1.0862462E-02
   7.40000  1.2608130E-02  2.1205879E-02  1.1950455E-02
   7.60000  1.3552892E-02  2.3292677E-02  1.3127644E-02
   7.80000  1.4524857E-02  2.5598320E-02  1.4347781E-02
   8.00000  1.5509362E-02  2.8137069E-02  1.5546630E-02
   8.20000  1.6494562E-02  3.0922546E-02  1.6655374E-02
   8.40000  1.7478158E-02  3.3964064E-02  1.7623137E-02
   8.60000  1.8472120E-02  3.7258763E-02  1.8437869E-02
   8.80000  1.9501809E-02  4.0779720E-02  1.9132013E-02
   9.00000  2.0599409E-02  4.4462601E-02  1.9768978E-02
   9.20000  2.1795179E-02  4.8195088E-02  2.0419744E-02
   9.40000  2.3110651E-02  5.1813008E-02  2.1142510E-02
   9.60000  2.4555191E-02  5.5106713E-02  2.1972454E-02
   9.80000  2.6124267E-02  5.7841237E-02  2.2921417E-02
   10.0000  2.7797795E-02  5.9791105E-02  2.3982556E-02
   10.2500  2.9978393E-02  6.0870526E-02  2.5433340E-02
   10.5000  3.2154209E-02  6.0334540E-02  2.6961721E-02
   10.7500  3.4187593E-02  5.8331877E-02  2.8492318E-02
   11.0000  3.5935064E-02  5.5231967E-02  2.9953569E-02
   11.2500  3.7278315E-02  5.1494450E-02  3.1289443E-02
   11.5000  3.8152961E-02  4.7540693E-02  3.2464473E-02
   11.7500  3.8562039E-02  4.3681459E-02  3.3463279E-02
   12.0000  3.8568020E-02  4.0104905E-02  3.4286363E-02
   12.2500  3.8269181E-02  3.6899734E-02  3.4944818E-02
   12.5000  3.7773419E-02  3.4087873E-02  3.5458430E-02
   12.7500  3.7178421E-02  3.1653087E-02  3.5854664E-02
   13.0000  3.6561430E-02  2.9561544E-02  3.6165767E-02
   13.2500  3.5977424E-02  2.7774227E-02  3.6425390E-02
   13.5000  3.5461633E-02  2.6252968E-02  3.6665603E-02
   13.7500  3.5033440E-02  2.4962873E-02  3.6914440E-02
   14.0000  3.4700337E-02  2.3873154E-02  3.7194144E-02
   14.2500  3.4461319E-02  2.2957239E-02  3.7520207E-02
   14.5000  3.4309469E-02  2.2192540E-02  3.7901021E-02
   14.7500  3.4233786E-02  2.1560051E-02  3.8337961E-02
   15.0000  3.4220419E-02  2.1043894E-02  3.8825703E-02
   15.2500  3.4253518E-02  2.0630844E-02  3.9352762E-02
   15.5000  3.4315909E-02  2.0309874E-02  3.9902260E-02
   15.7500  3.4389820E-02  2.0071752E-02  4.0453038E-02
   16.0000  3.4457776E-02  1.9908687E-02  4.0981144E-02
   16.2500  3.4503730E-02  1.9814051E-02  4.1461694E-02
   16.5000  3.4514343E-02  1.9782155E-02  4.1870961E-02
   16.7500  3.4480255E-02  1.9808078E-02  4.2188427E-02
   17.0000  3.4397065E-02  1.9887551E-02  4.2398534E-02
   17.2500  3.4265815E-02  2.0016862E-02  4.2491847E-02
   17.5000  3.4092803E-02  2.0192795E-02  4.2465486E-02
   17.7500  3.3888755E-02  2.0412570E-02  4.2322821E-02
   18.0000  3.3667502E-02  2.0673789E-02  4.2072550E-02
   18.2500  3.3444410E-02  2.0974365E-02  4.1727384E-02
   18.5000  3.3234823E-02  2.1312456E-02  4.1302572E-02
   18.7500  3.3052743E-02  2.1686392E-02  4.0814475E-02
   19.0000  3.2909861E-02  2.2094619E-02  4.0279318E-02
   19.2500  3.2814975E-02  2.2535672E-02  3.9712163E-02
   19.5000  3.2773738E-02  2.3008157E-02  3.9126154E-02
   19.7500  3.2788627E-02  2.3510673E-02  3.8532090E-02
   20.0000  3.2859003E-02  2.4041513E-02  3.7938505E-02
   21.0000  3.3589172E-02  2.6382084E-02  3.5693214E-02
   22.0000  3.4622459E-02  2.8862749E-02  3.3804337E-02
   23.0000  3.5349768E-02  3.1192136E-02  3.2254802E-02
   24.0000  3.5361964E-02  3.3086285E-02  3.0939403E-02
   25.0000  3.4604244E-02  3.4325621E-02  2.9778173E-02
   26.0000  3.3292092E-02  3.4813809E-02  2.8743421E-02
   27.0000  3.1728268E-02  3.4604463E-02  2.7841695E-02
   28.0000  3.0175277E-02  3.3874822E-02  2.7088754E-02
   29.0000  2.8803338E-02  3.2850986E-02  2.6490388E-02
   30.0000  2.7670839E-02  3.1713704E-02  2.6027299E-02
   31.0000  2.6769660E-02  3.0575596E-02  2.5663568E-02
   32.0000  2.6064506E-02  2.9494973E-02  2.5358166E-02
   33.0000  2.5508746E-02  2.8492077E-02  2.5070990E-02
   34.0000  2.5053326E-02  2.7563355E-02  2.4766272E-02
   35.0000  2.4652763E-02  2.6692743E-02  2.4416207E-02
   36.0000  2.4269373E-02  2.5861194E-02  2.4007355E-02
   37.0000  2.3877488E-02  2.5056004E-02  2.3548743E-02
   38.0000  2.3470262E-02  2.4282123E-02  2.3075700E-02
   39.0000  2.3069332E-02  2.3574103E-02  2.2641945E-02
   40.0000  2.2725550E-02  2.2995918E-02  2.2298240E-02
