    Energy   (100,001)      (010,001)      (001,110)   
  -25.0000  1.7023954E-04  1.8653219E-04  1.8178539E-04
  -24.0000  1.7640161E-04  1.9360313E-04  1.8826120E-04
  -23.0000  1.8298108E-04  2.0118593E-04  1.9517567E-04
  -22.0000  1.9002052E-04  2.0933692E-04  2.0257386E-04
  -21.0000  1.9756842E-04  2.1812085E-04  2.1050710E-04
  -20.0000  2.0568026E-04  2.2761260E-04  2.1903417E-04
  -19.0000  2.1441980E-04  2.3789914E-04  2.2822273E-04
  -18.0000  2.2386067E-04  2.4908209E-04  2.3815096E-04
  -17.0000  2.3408837E-04  2.6128092E-04  2.4890975E-04
  -16.0000  2.4520276E-04  2.7463696E-04  2.6060538E-04
  -15.0000  2.5732121E-04  2.8931864E-04  2.7336290E-04
  -14.0000  2.7058259E-04  3.0552821E-04  2.8733047E-04
  -13.0000  2.8515251E-04  3.2351056E-04  3.0268496E-04
  -12.0000  3.0123004E-04  3.4356500E-04  3.1963930E-04
  -11.0000  3.1905673E-04  3.6606109E-04  3.3845213E-04
  -10.0000  3.3892862E-04  3.9146024E-04  3.5944099E-04
  -9.00000  3.6121279E-04  4.2034586E-04  3.8300010E-04
  -8.00000  3.8637019E-04  4.5346605E-04  4.0962541E-04
  -7.00000  4.1498837E-04  4.9179551E-04  4.3995023E-04
  -6.00000  4.4782894E-04  5.3662743E-04  4.7479733E-04
  -5.00000  4.8589891E-04  5.8971403E-04  5.1525760E-04
  -4.00000  5.3056126E-04  6.5348845E-04  5.6281290E-04
  -3.00000  5.8371342E-04  7.3142960E-04  6.1953652E-04
  -2.00000  6.4809001E-04  8.2869122E-04  6.8843826E-04
  -1.00000  7.2780857E-04  9.5325352E-04  7.7410001E-04
   0.00000  8.2943436E-04  1.1181993E-03  8.8395396E-04
   1.00000  9.6428975E-04  1.3466986E-03  1.0311770E-03
   2.00000  1.1542670E-03  1.6846259E-03  1.2424311E-03
   3.00000  1.4501295E-03  2.2403012E-03  1.5843436E-03
   4.00000  2.0137378E-03  3.3621610E-03  2.2955611E-03
   5.00000  3.5498030E-03  6.5772024E-03  4.4781526E-03
   5.20000  4.0398319E-03  7.6263439E-03  5.1184959E-03
   5.40000  4.5458514E-03  8.7180406E-03  5.6948950E-03
   5.60000  5.0586744E-03  9.8271471E-03  6.1885409E-03
   5.80000  5.5832589E-03  1.0958013E-02  6.6182082E-03
   6.00000  6.1255557E-03  1.2120671E-02  7.0072861E-03
   6.20000  6.6884546E-03  1.3322393E-02  7.3719033E-03
   6.40000  7.2733061E-03  1.4568518E-02  7.7220507E-03
   6.60000  7.8821167E-03  1.5865235E-02  8.0658523E-03
   6.80000  8.5186195E-03  1.7222162E-02  8.4129929E-03
   7.00000  9.1882980E-03  1.8654236E-02  8.7761024E-03
   7.20000  9.8979420E-03  2.0182446E-02  9.1702453E-03
   7.40000  1.0654994E-02  2.1832961E-02  9.6114202E-03
   7.60000  1.1466516E-02  2.3634387E-02  1.0115049E-02
   7.80000  1.2337529E-02  2.5613057E-02  1.0694969E-02
   8.00000  1.3268714E-02  2.7786828E-02  1.1362963E-02
   8.20000  1.4253942E-02  3.0158535E-02  1.2128617E-02
   8.40000  1.5278734E-02  3.2710795E-02  1.2999208E-02
   8.60000  1.6321043E-02  3.5404201E-02  1.3979407E-02
   8.80000  1.7355028E-02  3.8180535E-02  1.5070726E-02
   9.00000  1.8356916E-02  4.0970537E-02  1.6270661E-02
   9.20000  1.9310369E-02  4.3702658E-02  1.7571546E-02
   9.40000  2.0208813E-02  4.6307737E-02  1.8959620E-02
   9.60000  2.1054236E-02  4.8717006E-02  2.0415470E-02
   9.80000  2.1853500E-02  5.0856021E-02  2.1915635E-02
   10.0000  2.2613565E-02  5.2640544E-02  2.3433968E-02
   10.2500  2.3513272E-02  5.4233839E-02  2.5314990E-02
   10.5000  2.4354202E-02  5.4968096E-02  2.7127117E-02
   10.7500  2.5127896E-02  5.4747835E-02  2.8824284E-02
   11.0000  2.5824887E-02  5.3589266E-02  3.0374009E-02
   11.2500  2.6438019E-02  5.1627263E-02  3.1758603E-02
   11.5000  2.6965364E-02  4.9081246E-02  3.2974068E-02
   11.7500  2.7413769E-02  4.6199043E-02  3.4029339E-02
   12.0000  2.7801178E-02  4.3204985E-02  3.4943624E-02
   12.2500  2.8152298E-02  4.0270823E-02  3.5739180E-02
   12.5000  2.8489535E-02  3.7510481E-02  3.6434228E-02
   12.7500  2.8828807E-02  3.4987731E-02  3.7041767E-02
   13.0000  2.9181243E-02  3.2728541E-02  3.7571772E-02
   13.2500  2.9555559E-02  3.0733914E-02  3.8033576E-02
   13.5000  2.9958977E-02  2.8990550E-02  3.8437757E-02
   13.7500  3.0397310E-02  2.7478306E-02  3.8797093E-02
   14.0000  3.0874841E-02  2.6174787E-02  3.9126256E-02
   14.2500  3.1394214E-02  2.5057860E-02  3.9440446E-02
   14.5000  3.1956333E-02  2.4106894E-02  3.9753458E-02
   14.7500  3.2560227E-02  2.3303267E-02  4.0075739E-02
   15.0000  3.3202852E-02  2.2630504E-02  4.0412803E-02
   15.2500  3.3878843E-02  2.2074193E-02  4.0764189E-02
   15.5000  3.4580252E-02  2.1621819E-02  4.1123062E-02
   15.7500  3.5296387E-02  2.1262548E-02  4.1476494E-02
   16.0000  3.6013843E-02  2.0987015E-02  4.1806474E-02
   16.2500  3.6716852E-02  2.0787118E-02  4.2091623E-02
   16.5000  3.7388012E-02  2.0655827E-02  4.2309531E-02
   16.7500  3.8009408E-02  2.0587013E-02  4.2439431E-02
   17.0000  3.8564054E-02  2.0575306E-02  4.2464823E-02
   17.2500  3.9037480E-02  2.0615962E-02  4.2375557E-02
   17.5000  3.9419235E-02  2.0704773E-02  4.2169007E-02
   17.7500  3.9704038E-02  2.0837982E-02  4.1850108E-02
   18.0000  3.9892368E-02  2.1012226E-02  4.1430351E-02
   18.2500  3.9990376E-02  2.1224492E-02  4.0926027E-02
   18.5000  4.0009124E-02  2.1472088E-02  4.0356138E-02
   18.7500  3.9963311E-02  2.1752624E-02  3.9740366E-02
   19.0000  3.9869685E-02  2.2064016E-02  3.9097368E-02
   19.2500  3.9745401E-02  2.2404502E-02  3.8443541E-02
   19.5000  3.9606531E-02  2.2772654E-02  3.7792246E-02
   19.7500  3.9466892E-02  2.3167336E-02  3.7153530E-02
   20.0000  3.9337372E-02  2.3587464E-02  3.6534424E-02
   21.0000  3.9039451E-02  2.5484429E-02  3.4335239E-02
   22.0000  3.9092920E-02  2.7606521E-02  3.2637998E-02
   23.0000  3.9146155E-02  2.9757009E-02  3.1358923E-02
   24.0000  3.8755743E-02  3.1690334E-02  3.0362362E-02
   25.0000  3.7671032E-02  3.3165655E-02  2.9528304E-02
   26.0000  3.5927264E-02  3.4025529E-02  2.8780885E-02
   27.0000  3.3793001E-02  3.4249933E-02  2.8103407E-02
   28.0000  3.1623579E-02  3.3946263E-02  2.7523589E-02
   29.0000  2.9702911E-02  3.3286023E-02  2.7075241E-02
   30.0000  2.8168909E-02  3.2445711E-02  2.6769174E-02
   31.0000  2.7028515E-02  3.1568075E-02  2.6588014E-02
   32.0000  2.6212558E-02  3.0725962E-02  2.6494553E-02
   33.0000  2.5628949E-02  2.9937916E-02  2.6449602E-02
   34.0000  2.5189914E-02  2.9194632E-02  2.6421063E-02
   35.0000  2.4821665E-02  2.8476099E-02  2.6384188E-02
   36.0000  2.4469084E-02  2.7766199E-02  2.6320902E-02
   37.0000  2.4099828E-02  2.7063792E-02  2.6220616E-02
   38.0000  2.3708429E-02  2.6387417E-02  2.6083136E-02
   39.0000  2.3319632E-02  2.5775519E-02  2.5923504E-02
   40.0000  2.2984472E-02  2.5282401E-02  2.5774688E-02
