    Energy   (100,001)      (010,001)      (001,110)   
  -25.0000  1.7905645E-04  1.8446555E-04  1.7923557E-04
  -24.0000  1.8554690E-04  1.9134341E-04  1.8598612E-04
  -23.0000  1.9248384E-04  1.9871159E-04  1.9321795E-04
  -22.0000  1.9991376E-04  2.0662326E-04  2.0098303E-04
  -21.0000  2.0788980E-04  2.1513945E-04  2.0934092E-04
  -20.0000  2.1647287E-04  2.2433056E-04  2.1836033E-04
  -19.0000  2.2573320E-04  2.3427821E-04  2.2812083E-04
  -18.0000  2.3575216E-04  2.4507758E-04  2.3871514E-04
  -17.0000  2.4662449E-04  2.5684022E-04  2.5025191E-04
  -16.0000  2.5846124E-04  2.6969783E-04  2.6285931E-04
  -15.0000  2.7139335E-04  2.8380684E-04  2.7668955E-04
  -14.0000  2.8557632E-04  2.9935456E-04  2.9192479E-04
  -13.0000  3.0119622E-04  3.1656702E-04  3.0878486E-04
  -12.0000  3.1847758E-04  3.3571945E-04  3.2753750E-04
  -11.0000  3.3769384E-04  3.5715030E-04  3.4851210E-04
  -10.0000  3.5918145E-04  3.8128026E-04  3.7211847E-04
  -9.00000  3.8335907E-04  4.0863862E-04  3.9887302E-04
  -8.00000  4.1075447E-04  4.3990032E-04  4.2943571E-04
  -7.00000  4.4204267E-04  4.7593927E-04  4.6466379E-04
  -6.00000  4.7810158E-04  5.1790679E-04  5.0569153E-04
  -5.00000  5.2009524E-04  5.6735037E-04  5.5405244E-04
  -4.00000  5.6960272E-04  6.2639920E-04  6.1187292E-04
  -3.00000  6.2882538E-04  6.9806527E-04  6.8219182E-04
  -2.00000  7.0093682E-04  7.8675569E-04  7.6951477E-04
  -1.00000  7.9071024E-04  8.9919626E-04  8.8083585E-04
   0.00000  9.0573623E-04  1.0462278E-03  1.0276732E-03
   1.00000  1.0590549E-03  1.2466771E-03  1.2305662E-03
   2.00000  1.2757999E-03  1.5370202E-03  1.5305565E-03
   3.00000  1.6144699E-03  2.0016256E-03  2.0256432E-03
   4.00000  2.2664209E-03  2.9091095E-03  3.0351571E-03
   5.00000  4.0603660E-03  5.4151129E-03  5.9233876E-03
   5.20000  4.5838337E-03  6.1890702E-03  6.8163183E-03
   5.40000  5.0730557E-03  6.9577738E-03  7.7208099E-03
   5.60000  5.5194464E-03  7.7047062E-03  8.6505241E-03
   5.80000  5.9441824E-03  8.4471544E-03  9.6579558E-03
   6.00000  6.3745084E-03  9.2115486E-03  1.0796826E-02
   6.20000  6.8342667E-03  1.0022418E-02  1.2107353E-02
   6.40000  7.3433460E-03  1.0900527E-02  1.3612630E-02
   6.60000  7.9194203E-03  1.1863498E-02  1.5315083E-02
   6.80000  8.5795831E-03  1.2926561E-02  1.7190505E-02
   7.00000  9.3412464E-03  1.4103090E-02  1.9181919E-02
   7.20000  1.0222011E-02  1.5405153E-02  2.1198217E-02
   7.40000  1.1238220E-02  1.6844522E-02  2.3123373E-02
   7.60000  1.2402122E-02  1.8434551E-02  2.4839047E-02
   7.80000  1.3718315E-02  2.0192945E-02  2.6255479E-02
   8.00000  1.5181024E-02  2.2144479E-02  2.7337009E-02
   8.20000  1.6773701E-02  2.4321602E-02  2.8108069E-02
   8.40000  1.8470897E-02  2.6760664E-02  2.8636740E-02
   8.60000  2.0240972E-02  2.9493327E-02  2.9006843E-02
   8.80000  2.2048601E-02  3.2535229E-02  2.9293613E-02
   9.00000  2.3857251E-02  3.5874969E-02  2.9551141E-02
   9.20000  2.5632103E-02  3.9465391E-02  2.9810548E-02
   9.40000  2.7342881E-02  4.3217493E-02  3.0084252E-02
   9.60000  2.8965383E-02  4.6996827E-02  3.0372860E-02
   9.80000  3.0480943E-02  5.0624076E-02  3.0672514E-02
   10.0000  3.1874140E-02  5.3884133E-02  3.0980758E-02
   10.2500  3.3420194E-02  5.7096340E-02  3.1381426E-02
   10.5000  3.4717127E-02  5.8996103E-02  3.1810225E-02
   10.7500  3.5729619E-02  5.9375923E-02  3.2277295E-02
   11.0000  3.6433662E-02  5.8269397E-02  3.2777923E-02
   11.2500  3.6827859E-02  5.5933616E-02  3.3286092E-02
   11.5000  3.6936707E-02  5.2756713E-02  3.3758274E-02
   11.7500  3.6810665E-02  4.9143246E-02  3.4142659E-02
   12.0000  3.6519919E-02  4.5431146E-02  3.4391519E-02
   12.2500  3.6141227E-02  4.1857880E-02  3.4473646E-02
   12.5000  3.5743665E-02  3.8564780E-02  3.4381313E-02
   12.7500  3.5379436E-02  3.5619064E-02  3.4130663E-02
   13.0000  3.5082703E-02  3.3037974E-02  3.3758325E-02
   13.2500  3.4873110E-02  3.0808630E-02  3.3314452E-02
   13.5000  3.4759490E-02  2.8902626E-02  3.2852192E-02
   13.7500  3.4742658E-02  2.7285695E-02  3.2417697E-02
   14.0000  3.4817614E-02  2.5923108E-02  3.2045602E-02
   14.2500  3.4974811E-02  2.4782178E-02  3.1759694E-02
   14.5000  3.5200773E-02  2.3833295E-02  3.1575034E-02
   14.7500  3.5478785E-02  2.3050298E-02  3.1499199E-02
   15.0000  3.5789474E-02  2.2410518E-02  3.1533231E-02
   15.2500  3.6111242E-02  2.1894604E-02  3.1672820E-02
   15.5000  3.6421071E-02  2.1486159E-02  3.1909221E-02
   15.7500  3.6695807E-02  2.1171287E-02  3.2229855E-02
   16.0000  3.6913739E-02  2.0938167E-02  3.2618922E-02
   16.2500  3.7056289E-02  2.0776690E-02  3.3058187E-02
   16.5000  3.7109596E-02  2.0678177E-02  3.3527909E-02
   16.7500  3.7065736E-02  2.0635157E-02  3.4007813E-02
   17.0000  3.6923326E-02  2.0641199E-02  3.4478050E-02
   17.2500  3.6687360E-02  2.0690778E-02  3.4920072E-02
   17.5000  3.6368348E-02  2.0779158E-02  3.5317387E-02
   17.7500  3.5980927E-02  2.0902302E-02  3.5656169E-02
   18.0000  3.5542243E-02  2.1056779E-02  3.5925727E-02
   18.2500  3.5070380E-02  2.1239692E-02  3.6118819E-02
   18.5000  3.4583027E-02  2.1448613E-02  3.6231789E-02
   18.7500  3.4096484E-02  2.1681529E-02  3.6264514E-02
   19.0000  3.3625002E-02  2.1936812E-02  3.6220112E-02
   19.2500  3.3180399E-02  2.2213210E-02  3.6104416E-02
   19.5000  3.2771876E-02  2.2509848E-02  3.5925271E-02
   19.7500  3.2405993E-02  2.2826196E-02  3.5691778E-02
   20.0000  3.2086873E-02  2.3161905E-02  3.5413764E-02
   21.0000  3.1301893E-02  2.4684182E-02  3.4064644E-02
   22.0000  3.1208298E-02  2.6448180E-02  3.2725936E-02
   23.0000  3.1449211E-02  2.8365998E-02  3.1624760E-02
   24.0000  3.1556501E-02  3.0278523E-02  3.0752584E-02
   25.0000  3.1222962E-02  3.1978180E-02  3.0023673E-02
   26.0000  3.0510240E-02  3.3269072E-02  2.9367303E-02
   27.0000  2.9726702E-02  3.4028555E-02  2.8749207E-02
   28.0000  2.9093498E-02  3.4243666E-02  2.8166486E-02
   29.0000  2.8630726E-02  3.3998951E-02  2.7637765E-02
   30.0000  2.8274030E-02  3.3434207E-02  2.7185876E-02
   31.0000  2.7967203E-02  3.2693559E-02  2.6818436E-02
   32.0000  2.7675680E-02  3.1871169E-02  2.6516194E-02
   33.0000  2.7376995E-02  3.1014998E-02  2.6243908E-02
   34.0000  2.7058015E-02  3.0148880E-02  2.5963199E-02
   35.0000  2.6715944E-02  2.9286905E-02  2.5641645E-02
   36.0000  2.6356213E-02  2.8442483E-02  2.5262577E-02
   37.0000  2.5987627E-02  2.7632267E-02  2.4833774E-02
   38.0000  2.5620030E-02  2.6877840E-02  2.4389352E-02
   39.0000  2.5271006E-02  2.6210986E-02  2.3980364E-02
   40.0000  2.4976663E-02  2.5679230E-02  2.3655448E-02
