    Energy   (100,001)      (010,001)      (001,110)   
  -25.0000  1.6606371E-04  1.8239914E-04  1.7962951E-04
  -24.0000  1.7198965E-04  1.8942980E-04  1.8588899E-04
  -23.0000  1.7830805E-04  1.9697469E-04  1.9256307E-04
  -22.0000  1.8505784E-04  2.0509075E-04  1.9969340E-04
  -21.0000  1.9228318E-04  2.1384349E-04  2.0732738E-04
  -20.0000  2.0003436E-04  2.2330869E-04  2.1551913E-04
  -19.0000  2.0836895E-04  2.3357441E-04  2.2433076E-04
  -18.0000  2.1735309E-04  2.4474361E-04  2.3383385E-04
  -17.0000  2.2706319E-04  2.5693735E-04  2.4411141E-04
  -16.0000  2.3758798E-04  2.7029893E-04  2.5526014E-04
  -15.0000  2.4903110E-04  2.8499919E-04  2.6739349E-04
  -14.0000  2.6151437E-04  3.0124331E-04  2.8064540E-04
  -13.0000  2.7518198E-04  3.1927982E-04  2.9517520E-04
  -12.0000  2.9020590E-04  3.3941251E-04  3.1117393E-04
  -11.0000  3.0679294E-04  3.6201647E-04  3.2887275E-04
  -10.0000  3.2519418E-04  3.8755999E-04  3.4855418E-04
  -9.00000  3.4571759E-04  4.1663499E-04  3.7056744E-04
  -8.00000  3.6874550E-04  4.5000009E-04  3.9534975E-04
  -7.00000  3.9475895E-04  4.8864285E-04  4.2345662E-04
  -6.00000  4.2437271E-04  5.3387196E-04  4.5560605E-04
  -5.00000  4.5838705E-04  5.8745746E-04  4.9274504E-04
  -4.00000  4.9786665E-04  6.5185135E-04  5.3615332E-04
  -3.00000  5.4426633E-04  7.3054779E-04  5.8761283E-04
  -2.00000  5.9964127E-04  8.2869978E-04  6.4970037E-04
  -1.00000  6.6702268E-04  9.5423773E-04  7.2633097E-04
   0.00000  7.5114791E-04  1.1200566E-03  8.2386609E-04
   1.00000  8.6005445E-04  1.3487482E-03  9.5368230E-04
   2.00000  1.0091801E-03  1.6844358E-03  1.1392948E-03
   3.00000  1.2348497E-03  2.2297570E-03  1.4420796E-03
   4.00000  1.6591249E-03  3.3117848E-03  2.0990699E-03
   5.00000  2.8312556E-03  6.3350743E-03  4.1974990E-03
   5.20000  3.1798057E-03  7.2729278E-03  4.7102644E-03
   5.40000  3.5058864E-03  8.2057912E-03  5.0635293E-03
   5.60000  3.7969143E-03  9.1133341E-03  5.2653027E-03
   5.80000  4.0597698E-03  1.0017151E-02  5.3797830E-03
   6.00000  4.3071723E-03  1.0951572E-02  5.4685466E-03
   6.20000  4.5512058E-03  1.1950480E-02  5.5719222E-03
   6.40000  4.8019905E-03  1.3045134E-02  5.7126209E-03
   6.60000  5.0679675E-03  1.4265253E-02  5.9031223E-03
   6.80000  5.3564232E-03  1.5640617E-02  6.1509306E-03
   7.00000  5.6738926E-03  1.7202455E-02  6.4614577E-03
   7.20000  6.0263811E-03  1.8984218E-02  6.8394240E-03
   7.40000  6.4194006E-03  2.1021289E-02  7.2894252E-03
   7.60000  6.8578151E-03  2.3349105E-02  7.8159502E-03
   7.80000  7.3455173E-03  2.5999194E-02  8.4229270E-03
   8.00000  7.8849448E-03  2.8992375E-02  9.1127625E-03
   8.20000  8.4764782E-03  3.2328512E-02  9.8848789E-03
   8.40000  9.1179820E-03  3.5973723E-02  1.0734037E-02
   8.60000  9.8049454E-03  3.9848555E-02  1.1649137E-02
   8.80000  1.0531665E-02  4.3823196E-02  1.2613506E-02
   9.00000  1.1293509E-02  4.7726274E-02  1.3607480E-02
   9.20000  1.2089516E-02  5.1369003E-02  1.4613144E-02
   9.40000  1.2923923E-02  5.4576980E-02  1.5619571E-02
   9.60000  1.3805461E-02  5.7214669E-02  1.6626043E-02
   9.80000  1.4744525E-02  5.9191374E-02  1.7641568E-02
   10.0000  1.5749364E-02  6.0451536E-02  1.8681043E-02
   10.2500  1.7100964E-02  6.0973147E-02  2.0037424E-02
   10.5000  1.8546046E-02  6.0319345E-02  2.1476576E-02
   10.7500  2.0053164E-02  5.8566941E-02  2.3004119E-02
   11.0000  2.1577036E-02  5.5895537E-02  2.4609036E-02
   11.2500  2.3066935E-02  5.2567303E-02  2.6266526E-02
   11.5000  2.4476331E-02  4.8879616E-02  2.7941116E-02
   11.7500  2.5772110E-02  4.5113001E-02  2.9590129E-02
   12.0000  2.6941990E-02  4.1487611E-02  3.1169510E-02
   12.2500  2.7995236E-02  3.8143670E-02  3.2639869E-02
   12.5000  2.8954578E-02  3.5148841E-02  3.3970913E-02
   12.7500  2.9845558E-02  3.2519026E-02  3.5144110E-02
   13.0000  3.0690464E-02  3.0239212E-02  3.6153640E-02
   13.2500  3.1506751E-02  2.8279198E-02  3.7005722E-02
   13.5000  3.2307261E-02  2.6603482E-02  3.7715841E-02
   13.7500  3.3100755E-02  2.5176638E-02  3.8304856E-02
   14.0000  3.3892220E-02  2.3965953E-02  3.8795409E-02
   14.2500  3.4682892E-02  2.2942466E-02  3.9209130E-02
   14.5000  3.5470203E-02  2.2081125E-02  3.9564639E-02
   14.7500  3.6247860E-02  2.1360528E-02  3.9876286E-02
   15.0000  3.7006196E-02  2.0762535E-02  4.0153529E-02
   15.2500  3.7732860E-02  2.0271885E-02  4.0400819E-02
   15.5000  3.8413841E-02  1.9875854E-02  4.0617890E-02
   15.7500  3.9034762E-02  1.9563944E-02  4.0800361E-02
   16.0000  3.9582329E-02  1.9327583E-02  4.0940632E-02
   16.2500  4.0045800E-02  1.9159834E-02  4.1029051E-02
   16.5000  4.0418260E-02  1.9055105E-02  4.1055328E-02
   16.7500  4.0697517E-02  1.9008861E-02  4.1010079E-02
   17.0000  4.0886455E-02  1.9017368E-02  4.0886327E-02
   17.2500  4.0992786E-02  1.9077463E-02  4.0680736E-02
   17.5000  4.1028238E-02  1.9186378E-02  4.0394384E-02
   17.7500  4.1007348E-02  1.9341609E-02  4.0032928E-02
   18.0000  4.0946063E-02  1.9540835E-02  3.9606171E-02
   18.2500  4.0860375E-02  1.9781870E-02  3.9127116E-02
   18.5000  4.0765143E-02  2.0062652E-02  3.8610721E-02
   18.7500  4.0673241E-02  2.0381246E-02  3.8072565E-02
   19.0000  4.0595022E-02  2.0735866E-02  3.7527626E-02
   19.2500  4.0538096E-02  2.1124925E-02  3.6989270E-02
   19.5000  4.0507348E-02  2.1547074E-02  3.6468541E-02
   19.7500  4.0505088E-02  2.2001170E-02  3.5973790E-02
   20.0000  4.0531247E-02  2.2486031E-02  3.5510762E-02
   21.0000  4.0852040E-02  2.4688354E-02  3.4032237E-02
   22.0000  4.1236589E-02  2.7165468E-02  3.3145508E-02
   23.0000  4.1237090E-02  2.9672354E-02  3.2667103E-02
   24.0000  4.0491831E-02  3.1889459E-02  3.2354101E-02
   25.0000  3.8895507E-02  3.3506757E-02  3.2009809E-02
   26.0000  3.6648990E-02  3.4351505E-02  3.1530328E-02
   27.0000  3.4149077E-02  3.4449919E-02  3.0910645E-02
   28.0000  3.1803692E-02  3.3984772E-02  3.0227954E-02
   29.0000  2.9878884E-02  3.3192160E-02  2.9595559E-02
   30.0000  2.8427759E-02  3.2257467E-02  2.9088472E-02
   31.0000  2.7379068E-02  3.1291590E-02  2.8727700E-02
   32.0000  2.6626384E-02  3.0347670E-02  2.8494774E-02
   33.0000  2.6065115E-02  2.9442152E-02  2.8348434E-02
   34.0000  2.5606271E-02  2.8573456E-02  2.8239183E-02
   35.0000  2.5179793E-02  2.7734388E-02  2.8118203E-02
   36.0000  2.4735079E-02  2.6918231E-02  2.7943070E-02
   37.0000  2.4243951E-02  2.6122073E-02  2.7684096E-02
   38.0000  2.3707942E-02  2.5353680E-02  2.7334895E-02
   39.0000  2.3167551E-02  2.4645684E-02  2.6929016E-02
   40.0000  2.2699919E-02  2.4063644E-02  2.6550004E-02
