    Energy   (100,001)      (010,001)      (001,110)   
  -25.0000  1.7880206E-04  1.8563625E-04  1.7856327E-04
  -24.0000  1.8555267E-04  1.9252895E-04  1.8540228E-04
  -23.0000  1.9278481E-04  1.9991186E-04  1.9273535E-04
  -22.0000  2.0055027E-04  2.0783809E-04  2.0061629E-04
  -21.0000  2.0890847E-04  2.1636862E-04  2.0910688E-04
  -20.0000  2.1792779E-04  2.2557379E-04  2.1827838E-04
  -19.0000  2.2768741E-04  2.3553515E-04  2.2821342E-04
  -18.0000  2.3827943E-04  2.4634781E-04  2.3900833E-04
  -17.0000  2.4981164E-04  2.5812328E-04  2.5077606E-04
  -16.0000  2.6241095E-04  2.7099322E-04  2.6364995E-04
  -15.0000  2.7622782E-04  2.8511408E-04  2.7778844E-04
  -14.0000  2.9144190E-04  3.0067321E-04  2.9338126E-04
  -13.0000  3.0826940E-04  3.1789679E-04  3.1065751E-04
  -12.0000  3.2697289E-04  3.3706039E-04  3.2989632E-04
  -11.0000  3.4787424E-04  3.5850302E-04  3.5144129E-04
  -10.0000  3.7137231E-04  3.8264637E-04  3.7572009E-04
  -9.00000  3.9796723E-04  4.1002138E-04  4.0327180E-04
  -8.00000  4.2829466E-04  4.4130576E-04  4.3478566E-04
  -7.00000  4.6317474E-04  4.7737799E-04  4.7115730E-04
  -6.00000  5.0368419E-04  5.1939705E-04  5.1357242E-04
  -5.00000  5.5126509E-04  5.6892337E-04  5.6363524E-04
  -4.00000  6.0789474E-04  6.2810842E-04  6.2357271E-04
  -3.00000  6.7636083E-04  7.0000373E-04  6.9657328E-04
  -2.00000  7.6072905E-04  7.8908882E-04  7.8737878E-04
  -1.00000  8.6718424E-04  9.0222820E-04  9.0338716E-04
   0.00000  1.0056602E-03  1.0505438E-03  1.0568839E-03
   1.00000  1.1933253E-03  1.2534757E-03  1.2700784E-03
   2.00000  1.4631518E-03  1.5489768E-03  1.5883335E-03
   3.00000  1.8899599E-03  2.0255103E-03  2.1235892E-03
   4.00000  2.7021351E-03  2.9657687E-03  3.2556719E-03
   5.00000  4.8559413E-03  5.6011111E-03  6.7816970E-03
   5.20000  5.5494720E-03  6.4381417E-03  8.0191768E-03
   5.40000  6.2821491E-03  7.2833928E-03  9.3285015E-03
   5.60000  7.0468019E-03  8.1090548E-03  1.0614578E-02
   5.80000  7.8572853E-03  8.9229065E-03  1.1798100E-02
   6.00000  8.7328951E-03  9.7524417E-03  1.2833274E-02
   6.20000  9.6921167E-03  1.0634087E-02  1.3720052E-02
   6.40000  1.0752860E-02  1.1604176E-02  1.4493598E-02
   6.60000  1.1934042E-02  1.2692442E-02  1.5203618E-02
   6.80000  1.3254857E-02  1.3919292E-02  1.5900645E-02
   7.00000  1.4728470E-02  1.5293557E-02  1.6628176E-02
   7.20000  1.6349216E-02  1.6807284E-02  1.7414880E-02
   7.40000  1.8078230E-02  1.8429208E-02  1.8269031E-02
   7.60000  1.9840179E-02  2.0105304E-02  1.9182324E-02
   7.80000  2.1545531E-02  2.1776718E-02  2.0145693E-02
   8.00000  2.3135127E-02  2.3412883E-02  2.1167538E-02
   8.20000  2.4614546E-02  2.5036800E-02  2.2277909E-02
   8.40000  2.6046165E-02  2.6719678E-02  2.3514424E-02
   8.60000  2.7507350E-02  2.8550701E-02  2.4903811E-02
   8.80000  2.9050912E-02  3.0607325E-02  2.6452867E-02
   9.00000  3.0689767E-02  3.2940997E-02  2.8149018E-02
   9.20000  3.2402307E-02  3.5574441E-02  2.9963437E-02
   9.40000  3.4144573E-02  3.8500216E-02  3.1853098E-02
   9.60000  3.5857982E-02  4.1674033E-02  3.3763229E-02
   9.80000  3.7473521E-02  4.5004789E-02  3.5632070E-02
   10.0000  3.8919454E-02  4.8348233E-02  3.7396788E-02
   10.2500  4.0392115E-02  5.2243532E-02  3.9368666E-02
   10.5000  4.1414650E-02  5.5397909E-02  4.0999478E-02
   10.7500  4.1959528E-02  5.7381781E-02  4.2239489E-02
   11.0000  4.2059177E-02  5.7927683E-02  4.3074850E-02
   11.2500  4.1789602E-02  5.7025932E-02  4.3517439E-02
   11.5000  4.1243712E-02  5.4913117E-02  4.3597722E-02
   11.7500  4.0512340E-02  5.1967953E-02  4.3358066E-02
   12.0000  3.9675717E-02  4.8585641E-02  4.2848301E-02
   12.2500  3.8800444E-02  4.5090420E-02  4.2125706E-02
   12.5000  3.7939131E-02  4.1704644E-02  4.1254001E-02
   12.7500  3.7130037E-02  3.8558544E-02  4.0297343E-02
   13.0000  3.6396974E-02  3.5714349E-02  3.9313333E-02
   13.2500  3.5751304E-02  3.3189388E-02  3.8349556E-02
   13.5000  3.5195197E-02  3.0974221E-02  3.7442911E-02
   13.7500  3.4724656E-02  2.9045564E-02  3.6619939E-02
   14.0000  3.4331896E-02  2.7374594E-02  3.5897719E-02
   14.2500  3.4007145E-02  2.5931762E-02  3.5285131E-02
   14.5000  3.3739950E-02  2.4689298E-02  3.4784246E-02
   14.7500  3.3520080E-02  2.3622322E-02  3.4391627E-02
   15.0000  3.3338113E-02  2.2709175E-02  3.4099444E-02
   15.2500  3.3185788E-02  2.1931336E-02  3.3896442E-02
   15.5000  3.3056189E-02  2.1273124E-02  3.3768825E-02
   15.7500  3.2943763E-02  2.0721329E-02  3.3701145E-02
   16.0000  3.2844230E-02  2.0264819E-02  3.3677215E-02
   16.2500  3.2754413E-02  1.9894183E-02  3.3681049E-02
   16.5000  3.2672052E-02  1.9601416E-02  3.3697764E-02
   16.7500  3.2595666E-02  1.9379662E-02  3.3714359E-02
   17.0000  3.2524486E-02  1.9223018E-02  3.3720282E-02
   17.2500  3.2458457E-02  1.9126379E-02  3.3707743E-02
   17.5000  3.2398250E-02  1.9085333E-02  3.3671754E-02
   17.7500  3.2345259E-02  1.9096076E-02  3.3609945E-02
   18.0000  3.2301506E-02  1.9155348E-02  3.3522196E-02
   18.2500  3.2269479E-02  1.9260379E-02  3.3410171E-02
   18.5000  3.2251883E-02  1.9408833E-02  3.3276803E-02
   18.7500  3.2251352E-02  1.9598762E-02  3.3125787E-02
   19.0000  3.2270166E-02  1.9828560E-02  3.2961116E-02
   19.2500  3.2309989E-02  2.0096942E-02  3.2786676E-02
   19.5000  3.2371658E-02  2.0402919E-02  3.2605928E-02
   19.7500  3.2454982E-02  2.0745731E-02  3.2421686E-02
   20.0000  3.2558515E-02  2.1124638E-02  3.2236067E-02
   21.0000  3.3094903E-02  2.2972602E-02  3.1504509E-02
   22.0000  3.3525751E-02  2.5269181E-02  3.0798412E-02
   23.0000  3.3413560E-02  2.7886407E-02  3.0074995E-02
   24.0000  3.2548988E-02  3.0588380E-02  2.9311337E-02
   25.0000  3.1095204E-02  3.3007294E-02  2.8537542E-02
   26.0000  2.9396546E-02  3.4823005E-02  2.7787982E-02
   27.0000  2.7770371E-02  3.5850295E-02  2.7072800E-02
   28.0000  2.6424671E-02  3.6084738E-02  2.6401821E-02
   29.0000  2.5438493E-02  3.5685891E-02  2.5807127E-02
   30.0000  2.4785655E-02  3.4885415E-02  2.5319735E-02
   31.0000  2.4388224E-02  3.3894385E-02  2.4940589E-02
   32.0000  2.4161370E-02  3.2856845E-02  2.4639023E-02
   33.0000  2.4033348E-02  3.1846501E-02  2.4369684E-02
   34.0000  2.3949832E-02  3.0886605E-02  2.4092623E-02
   35.0000  2.3873058E-02  2.9974065E-02  2.3788846E-02
   36.0000  2.3779657E-02  2.9098551E-02  2.3467240E-02
   37.0000  2.3658513E-02  2.8255311E-02  2.3159347E-02
   38.0000  2.3510290E-02  2.7454531E-02  2.2902126E-02
   39.0000  2.3349497E-02  2.6730724E-02  2.2716792E-02
   40.0000  2.3204417E-02  2.6145166E-02  2.2596970E-02
