    Energy   (100,001)      (010,001)      (001,110)   
  -25.0000  1.6728241E-04  1.7603761E-04  1.7115017E-04
  -24.0000  1.7355950E-04  1.8300271E-04  1.7765683E-04
  -23.0000  1.8027440E-04  1.9048558E-04  1.8462537E-04
  -22.0000  1.8747278E-04  1.9854420E-04  1.9210495E-04
  -21.0000  1.9520679E-04  2.0724536E-04  2.0015184E-04
  -20.0000  2.0353619E-04  2.1666639E-04  2.0883071E-04
  -19.0000  2.1252980E-04  2.2689731E-04  2.1821624E-04
  -18.0000  2.2226725E-04  2.3804345E-04  2.2839516E-04
  -17.0000  2.3284120E-04  2.5022891E-04  2.3946870E-04
  -16.0000  2.4436008E-04  2.6360077E-04  2.5155574E-04
  -15.0000  2.5695154E-04  2.7833463E-04  2.6479683E-04
  -14.0000  2.7076690E-04  2.9464180E-04  2.7935924E-04
  -13.0000  2.8598688E-04  3.1277868E-04  2.9544368E-04
  -12.0000  3.0282902E-04  3.3305929E-04  3.1329291E-04
  -11.0000  3.2155755E-04  3.5587217E-04  3.3320338E-04
  -10.0000  3.4249659E-04  3.8170350E-04  3.5554084E-04
  -9.00000  3.6604811E-04  4.1116932E-04  3.8076167E-04
  -8.00000  3.9271680E-04  4.4506125E-04  4.0944284E-04
  -7.00000  4.2314522E-04  4.8441284E-04  4.4232438E-04
  -6.00000  4.5816470E-04  5.3059794E-04  4.8037155E-04
  -5.00000  4.9887083E-04  5.8548115E-04  5.2486775E-04
  -4.00000  5.4673921E-04  6.5165483E-04  5.7755846E-04
  -3.00000  6.0380958E-04  7.3282764E-04  6.4088225E-04
  -2.00000  6.7299244E-04  8.3449081E-04  7.1835908E-04
  -1.00000  7.5861009E-04  9.6512816E-04  8.1528089E-04
   0.00000  8.6742501E-04  1.1385784E-03  9.4003204E-04
   1.00000  1.0108035E-03  1.3791159E-03  1.1068691E-03
   2.00000  1.2099803E-03  1.7339773E-03  1.3426226E-03
   3.00000  1.5120754E-03  2.3113910E-03  1.7065292E-03
   4.00000  2.0601618E-03  3.4428535E-03  2.3721492E-03
   5.00000  3.4523349E-03  6.5190249E-03  4.0503516E-03
   5.20000  3.8813783E-03  7.5228547E-03  4.6036967E-03
   5.40000  4.3169437E-03  8.5898985E-03  5.2102867E-03
   5.60000  4.7506270E-03  9.7082585E-03  5.8656856E-03
   5.80000  5.1909023E-03  1.0895328E-02  6.5762277E-03
   6.00000  5.6522925E-03  1.2176506E-02  7.3505470E-03
   6.20000  6.1504179E-03  1.3575504E-02  8.1958943E-03
   6.40000  6.7010716E-03  1.5112805E-02  9.1179336E-03
   6.60000  7.3201831E-03  1.6806182E-02  1.0121320E-02
   6.80000  8.0233076E-03  1.8670714E-02  1.1209755E-02
   7.00000  8.8240595E-03  2.0717551E-02  1.2385090E-02
   7.20000  9.7312537E-03  2.2951621E-02  1.3645373E-02
   7.40000  1.0745137E-02  2.5369731E-02  1.4981766E-02
   7.60000  1.1854401E-02  2.7961720E-02  1.6374967E-02
   7.80000  1.3037218E-02  3.0717144E-02  1.7793888E-02
   8.00000  1.4268709E-02  3.3635482E-02  1.9200923E-02
   8.20000  1.5531472E-02  3.6730259E-02  2.0564387E-02
   8.40000  1.6820212E-02  4.0016611E-02  2.1870234E-02
   8.60000  1.8135691E-02  4.3483991E-02  2.3123280E-02
   8.80000  1.9474082E-02  4.7068229E-02  2.4338189E-02
   9.00000  2.0821307E-02  5.0636050E-02  2.5529575E-02
   9.20000  2.2156054E-02  5.3987675E-02  2.6708450E-02
   9.40000  2.3458741E-02  5.6879889E-02  2.7884618E-02
   9.60000  2.4720766E-02  5.9068409E-02  2.9069743E-02
   9.80000  2.5948500E-02  6.0359364E-02  3.0275985E-02
   10.0000  2.7159962E-02  6.0653844E-02  3.1509810E-02
   10.2500  2.8682799E-02  5.9657119E-02  3.3080451E-02
   10.5000  3.0236148E-02  5.7389095E-02  3.4641284E-02
   10.7500  3.1811691E-02  5.4236630E-02  3.6129865E-02
   11.0000  3.3373422E-02  5.0602042E-02  3.7489347E-02
   11.2500  3.4868803E-02  4.6822448E-02  3.8685369E-02
   11.5000  3.6237717E-02  4.3137645E-02  3.9705157E-02
   11.7500  3.7423143E-02  3.9695096E-02  4.0544570E-02
   12.0000  3.8382267E-02  3.6570535E-02  4.1194993E-02
   12.2500  3.9093501E-02  3.3789826E-02  4.1640033E-02
   12.5000  3.9557999E-02  3.1348289E-02  4.1862772E-02
   12.7500  3.9797128E-02  2.9225630E-02  4.1856700E-02
   13.0000  3.9848049E-02  2.7395249E-02  4.1633840E-02
   13.2500  3.9758809E-02  2.5828624E-02  4.1227311E-02
   13.5000  3.9582500E-02  2.4497143E-02  4.0687589E-02
   13.7500  3.9369615E-02  2.3373367E-02  4.0072854E-02
   14.0000  3.9161255E-02  2.2432117E-02  3.9438055E-02
   14.2500  3.8986591E-02  2.1650994E-02  3.8828221E-02
   14.5000  3.8863431E-02  2.1010430E-02  3.8276199E-02
   14.7500  3.8799445E-02  2.0493580E-02  3.7802457E-02
   15.0000  3.8793332E-02  2.0086148E-02  3.7415772E-02
   15.2500  3.8836057E-02  1.9776152E-02  3.7114542E-02
   15.5000  3.8912330E-02  1.9553633E-02  3.6888599E-02
   15.7500  3.9002358E-02  1.9410322E-02  3.6721461E-02
   16.0000  3.9083916E-02  1.9339317E-02  3.6592911E-02
   16.2500  3.9134618E-02  1.9334767E-02  3.6481709E-02
   16.5000  3.9134276E-02  1.9391599E-02  3.6368158E-02
   16.7500  3.9067042E-02  1.9505284E-02  3.6236193E-02
   17.0000  3.8923060E-02  1.9671661E-02  3.6074695E-02
   17.2500  3.8699355E-02  1.9886801E-02  3.5877921E-02
   17.5000  3.8399804E-02  2.0146920E-02  3.5645105E-02
   17.7500  3.8034266E-02  2.0448332E-02  3.5379475E-02
   18.0000  3.7617065E-02  2.0787421E-02  3.5086988E-02
   18.2500  3.7165171E-02  2.1160640E-02  3.4775062E-02
   18.5000  3.6696394E-02  2.1564517E-02  3.4451502E-02
   18.7500  3.6227846E-02  2.1995689E-02  3.4123704E-02
   19.0000  3.5774785E-02  2.2450954E-02  3.3798131E-02
   19.2500  3.5349873E-02  2.2927360E-02  3.3480017E-02
   19.5000  3.4962763E-02  2.3422294E-02  3.3173227E-02
   19.7500  3.4619987E-02  2.3933518E-02  3.2880261E-02
   20.0000  3.4325111E-02  2.4458951E-02  3.2602413E-02
   21.0000  3.3619832E-02  2.6646087E-02  3.1644010E-02
   22.0000  3.3482746E-02  2.8822653E-02  3.0884189E-02
   23.0000  3.3440460E-02  3.0805400E-02  3.0213351E-02
   24.0000  3.2992879E-02  3.2396569E-02  2.9539265E-02
   25.0000  3.1927461E-02  3.3422608E-02  2.8827565E-02
   26.0000  3.0445152E-02  3.3811559E-02  2.8100913E-02
   27.0000  2.8927077E-02  3.3626024E-02  2.7411040E-02
   28.0000  2.7647506E-02  3.2997782E-02  2.6822935E-02
   29.0000  2.6679209E-02  3.2071998E-02  2.6386593E-02
   30.0000  2.5962590E-02  3.0983714E-02  2.6102886E-02
   31.0000  2.5399642E-02  2.9840114E-02  2.5918329E-02
   32.0000  2.4905040E-02  2.8710441E-02  2.5752407E-02
   33.0000  2.4422000E-02  2.7629160E-02  2.5530490E-02
   34.0000  2.3923449E-02  2.6607467E-02  2.5203449E-02
   35.0000  2.3407898E-02  2.5645204E-02  2.4753882E-02
   36.0000  2.2891329E-02  2.4739269E-02  2.4195521E-02
   37.0000  2.2396658E-02  2.3889531E-02  2.3568933E-02
   38.0000  2.1946051E-02  2.3105669E-02  2.2934242E-02
   39.0000  2.1560099E-02  2.2415949E-02  2.2360720E-02
   40.0000  2.1258922E-02  2.1867313E-02  2.1909745E-02
