    Energy   (100,001)      (010,001)      (001,110)   
  -25.0000  1.7656055E-04  1.8952272E-04  1.7890064E-04
  -24.0000  1.8280640E-04  1.9657994E-04  1.8507103E-04
  -23.0000  1.8947000E-04  2.0414218E-04  1.9164444E-04
  -22.0000  1.9659369E-04  2.1226452E-04  1.9866067E-04
  -21.0000  2.0422570E-04  2.2101024E-04  2.0616489E-04
  -20.0000  2.1242120E-04  2.3045237E-04  2.1420850E-04
  -19.0000  2.2124356E-04  2.4067570E-04  2.2285035E-04
  -18.0000  2.3076600E-04  2.5177916E-04  2.3215804E-04
  -17.0000  2.4107350E-04  2.6387885E-04  2.4220965E-04
  -16.0000  2.5226537E-04  2.7711197E-04  2.5309583E-04
  -15.0000  2.6445832E-04  2.9164171E-04  2.6492246E-04
  -14.0000  2.7779054E-04  3.0766368E-04  2.7781393E-04
  -13.0000  2.9242690E-04  3.2541431E-04  2.9191745E-04
  -12.0000  3.0856574E-04  3.4518190E-04  3.0740848E-04
  -11.0000  3.2644800E-04  3.6732154E-04  3.2449797E-04
  -10.0000  3.4636943E-04  3.9227543E-04  3.4344178E-04
  -9.00000  3.6869736E-04  4.2060098E-04  3.6455356E-04
  -8.00000  3.9389429E-04  4.5301056E-04  3.8822218E-04
  -7.00000  4.2255153E-04  4.9042872E-04  4.1493634E-04
  -6.00000  4.5543880E-04  5.3407677E-04  4.4531955E-04
  -5.00000  4.9357929E-04  5.8560115E-04  4.8018181E-04
  -4.00000  5.3836770E-04  6.4727481E-04  5.2059827E-04
  -3.00000  5.9176401E-04  7.2232552E-04  5.6803387E-04
  -2.00000  6.5662899E-04  8.1549683E-04  6.2455175E-04
  -1.00000  7.3734549E-04  9.3406501E-04  6.9318513E-04
   0.00000  8.4107327E-04  1.0898281E-03  7.7866204E-04
   1.00000  9.8059461E-04  1.3034187E-03  8.8899860E-04
   2.00000  1.1819064E-03  1.6151405E-03  1.0396571E-03
   3.00000  1.5099961E-03  2.1190974E-03  1.2675667E-03
   4.00000  2.1957952E-03  3.1178974E-03  1.7010288E-03
   5.00000  4.3031458E-03  5.9223225E-03  2.9110641E-03
   5.20000  4.9296796E-03  6.7897855E-03  3.2433484E-03
   5.40000  5.4994382E-03  7.6467973E-03  3.5335980E-03
   5.60000  5.9941536E-03  8.4737397E-03  3.7809692E-03
   5.80000  6.4371274E-03  9.2914388E-03  4.0036953E-03
   6.00000  6.8600931E-03  1.0131841E-02  4.2183458E-03
   6.20000  7.2877090E-03  1.1024445E-02  4.4346031E-03
   6.40000  7.7353818E-03  1.1994231E-02  4.6572422E-03
   6.60000  8.2114246E-03  1.3062995E-02  4.8888486E-03
   6.80000  8.7196968E-03  1.4250871E-02  5.1317464E-03
   7.00000  9.2616821E-03  1.5577318E-02  5.3891911E-03
   7.20000  9.8378637E-03  1.7061560E-02  5.6660097E-03
   7.40000  1.0448471E-02  1.8722576E-02  5.9687505E-03
   7.60000  1.1093702E-02  2.0578614E-02  6.3053910E-03
   7.80000  1.1773541E-02  2.2646254E-02  6.6847262E-03
   8.00000  1.2487311E-02  2.4939119E-02  7.1156185E-03
   8.20000  1.3233105E-02  2.7466059E-02  7.6063008E-03
   8.40000  1.4007242E-02  3.0228392E-02  8.1638699E-03
   8.60000  1.4803832E-02  3.3216210E-02  8.7939981E-03
   8.80000  1.5614553E-02  3.6403995E-02  9.5007931E-03
   9.00000  1.6429021E-02  3.9745690E-02  1.0286683E-02
   9.20000  1.7236528E-02  4.3169828E-02  1.1152297E-02
   9.40000  1.8028879E-02  4.6576399E-02  1.2096492E-02
   9.60000  1.8802877E-02  4.9837710E-02  1.3116690E-02
   9.80000  1.9561604E-02  5.2804921E-02  1.4209454E-02
   10.0000  2.0314149E-02  5.5320683E-02  1.5371053E-02
   10.2500  2.1265972E-02  5.7606523E-02  1.6914016E-02
   10.5000  2.2253140E-02  5.8734085E-02  1.8550574E-02
   10.7500  2.3288413E-02  5.8604319E-02  2.0271322E-02
   11.0000  2.4362580E-02  5.7271526E-02  2.2064126E-02
   11.2500  2.5443519E-02  5.4932106E-02  2.3913681E-02
   11.5000  2.6485600E-02  5.1875289E-02  2.5801689E-02
   11.7500  2.7442863E-02  4.8417785E-02  2.7705784E-02
   12.0000  2.8280556E-02  4.4844450E-02  2.9596947E-02
   12.2500  2.8979437E-02  4.1372812E-02  3.1436714E-02
   12.5000  2.9534187E-02  3.8145295E-02  3.3177239E-02
   12.7500  2.9953146E-02  3.5238766E-02  3.4767527E-02
   13.0000  3.0257565E-02  3.2681075E-02  3.6163314E-02
   13.2500  3.0477365E-02  3.0468071E-02  3.7336074E-02
   13.5000  3.0645366E-02  2.8577460E-02  3.8278460E-02
   13.7500  3.0792449E-02  2.6978486E-02  3.9005072E-02
   14.0000  3.0944624E-02  2.5637991E-02  3.9548818E-02
   14.2500  3.1121857E-02  2.4523844E-02  3.9954365E-02
   14.5000  3.1338142E-02  2.3606663E-02  4.0270724E-02
   14.7500  3.1602246E-02  2.2860473E-02  4.0544645E-02
   15.0000  3.1918692E-02  2.2262773E-02  4.0815743E-02
   15.2500  3.2288674E-02  2.1794288E-02  4.1113472E-02
   15.5000  3.2710762E-02  2.1438568E-02  4.1455639E-02
   15.7500  3.3181347E-02  2.1181568E-02  4.1848058E-02
   16.0000  3.3694886E-02  2.1011245E-02  4.2285024E-02
   16.2500  3.4244020E-02  2.0917221E-02  4.2750469E-02
   16.5000  3.4819705E-02  2.0890501E-02  4.3219821E-02
   16.7500  3.5411423E-02  2.0923257E-02  4.3662588E-02
   17.0000  3.6007549E-02  2.1008657E-02  4.4045656E-02
   17.2500  3.6595875E-02  2.1140742E-02  4.4337072E-02
   17.5000  3.7164267E-02  2.1314311E-02  4.4509832E-02
   17.7500  3.7701394E-02  2.1524822E-02  4.4545108E-02
   18.0000  3.8197450E-02  2.1768280E-02  4.4434278E-02
   18.2500  3.8644791E-02  2.2041124E-02  4.4179424E-02
   18.5000  3.9038386E-02  2.2340117E-02  4.3792277E-02
   18.7500  3.9376040E-02  2.2662256E-02  4.3291937E-02
   19.0000  3.9658328E-02  2.3004717E-02  4.2701931E-02
   19.2500  3.9888257E-02  2.3364857E-02  4.2047179E-02
   19.5000  4.0070686E-02  2.3740240E-02  4.1351346E-02
   19.7500  4.0211615E-02  2.4128645E-02  4.0634978E-02
   20.0000  4.0317464E-02  2.4527903E-02  3.9914767E-02
   21.0000  4.0503504E-02  2.6176661E-02  3.7226729E-02
   22.0000  4.0445454E-02  2.7772004E-02  3.5103803E-02
   23.0000  4.0093822E-02  2.9188052E-02  3.3516479E-02
   24.0000  3.9308192E-02  3.0355802E-02  3.2288932E-02
   25.0000  3.8030120E-02  3.1248788E-02  3.1260918E-02
   26.0000  3.6330724E-02  3.1862505E-02  3.0338344E-02
   27.0000  3.4387704E-02  3.2200165E-02  2.9506510E-02
   28.0000  3.2426905E-02  3.2271748E-02  2.8807726E-02
   29.0000  3.0646044E-02  3.2101446E-02  2.8290359E-02
   30.0000  2.9162971E-02  3.1739508E-02  2.7967341E-02
   31.0000  2.8006526E-02  3.1256541E-02  2.7808797E-02
   32.0000  2.7135455E-02  3.0707231E-02  2.7756155E-02
   33.0000  2.6489732E-02  3.0125130E-02  2.7750110E-02
   34.0000  2.6019875E-02  2.9531246E-02  2.7743004E-02
   35.0000  2.5687370E-02  2.8940279E-02  2.7697626E-02
   36.0000  2.5456050E-02  2.8365287E-02  2.7585802E-02
   37.0000  2.5285127E-02  2.7817900E-02  2.7391025E-02
   38.0000  2.5131599E-02  2.7306744E-02  2.7115692E-02
   39.0000  2.4967839E-02  2.6844889E-02  2.6792689E-02
   40.0000  2.4805373E-02  2.6465931E-02  2.6491397E-02
