    Energy   (100,001)      (010,001)      (001,110)   
  -25.0000  1.6920373E-04  1.7414659E-04  1.7767838E-04
  -24.0000  1.7535020E-04  1.8108498E-04  1.8409888E-04
  -23.0000  1.8191284E-04  1.8854034E-04  1.9095812E-04
  -22.0000  1.8893393E-04  1.9657057E-04  1.9830148E-04
  -21.0000  1.9646158E-04  2.0524236E-04  2.0618072E-04
  -20.0000  2.0455077E-04  2.1463295E-04  2.1465518E-04
  -19.0000  2.1326459E-04  2.2483219E-04  2.2379322E-04
  -18.0000  2.2267583E-04  2.3594527E-04  2.3367395E-04
  -17.0000  2.3286884E-04  2.4809605E-04  2.4438946E-04
  -16.0000  2.4394197E-04  2.6143135E-04  2.5604762E-04
  -15.0000  2.5601055E-04  2.7612643E-04  2.6877554E-04
  -14.0000  2.6921070E-04  2.9239215E-04  2.8272413E-04
  -13.0000  2.8370426E-04  3.1048434E-04  2.9807392E-04
  -12.0000  2.9968517E-04  3.3071628E-04  3.1504280E-04
  -11.0000  3.1738776E-04  3.5347555E-04  3.3389618E-04
  -10.0000  3.3709797E-04  3.7924707E-04  3.5496089E-04
  -9.00000  3.5916843E-04  4.0864524E-04  3.7864421E-04
  -8.00000  3.8403921E-04  4.4245958E-04  4.0546064E-04
  -7.00000  4.1226710E-04  4.8172084E-04  4.3607030E-04
  -6.00000  4.4456762E-04  5.2779947E-04  4.7133555E-04
  -5.00000  4.8187713E-04  5.8255596E-04  5.1240712E-04
  -4.00000  5.2544764E-04  6.4857853E-04  5.6085975E-04
  -3.00000  5.7699711E-04  7.2957358E-04  6.1891557E-04
  -2.00000  6.3895947E-04  8.3103811E-04  6.8983216E-04
  -1.00000  7.1492669E-04  9.6148783E-04  7.7862296E-04
   0.00000  8.1049507E-04  1.1348753E-03  8.9351518E-04
   1.00000  9.3507227E-04  1.3758567E-03  1.0492559E-03
   2.00000  1.1063910E-03  1.7330205E-03  1.2758898E-03
   3.00000  1.3648182E-03  2.3201659E-03  1.6481151E-03
   4.00000  1.8394579E-03  3.4990854E-03  2.4252248E-03
   5.00000  3.0939381E-03  6.8344431E-03  4.8272118E-03
   5.20000  3.4735596E-03  7.9130261E-03  5.6266278E-03
   5.40000  3.8428578E-03  9.0315984E-03  6.4449760E-03
   5.60000  4.1897187E-03  1.0169788E-02  7.2443036E-03
   5.80000  4.5196619E-03  1.1343056E-02  8.0033483E-03
   6.00000  4.8439154E-03  1.2574341E-02  8.6995904E-03
   6.20000  5.1737935E-03  1.3880117E-02  9.3069046E-03
   6.40000  5.5195291E-03  1.5267529E-02  9.8042399E-03
   6.60000  5.8904303E-03  1.6736668E-02  1.0185506E-02
   6.80000  6.2952790E-03  1.8286322E-02  1.0464335E-02
   7.00000  6.7427639E-03  1.9922261E-02  1.0672228E-02
   7.20000  7.2418558E-03  2.1664979E-02  1.0852254E-02
   7.40000  7.8020064E-03  2.3552156E-02  1.1051351E-02
   7.60000  8.4330364E-03  2.5633506E-02  1.1313426E-02
   7.80000  9.1445728E-03  2.7960627E-02  1.1674655E-02
   8.00000  9.9448794E-03  3.0576586E-02  1.2161342E-02
   8.20000  1.0838948E-02  3.3507856E-02  1.2789674E-02
   8.40000  1.1825938E-02  3.6758138E-02  1.3566209E-02
   8.60000  1.2896615E-02  4.0302236E-02  1.4488250E-02
   8.80000  1.4032402E-02  4.4078776E-02  1.5543883E-02
   9.00000  1.5208411E-02  4.7982141E-02  1.6712310E-02
   9.20000  1.6401661E-02  5.1856139E-02  1.7965882E-02
   9.40000  1.7601669E-02  5.5494143E-02  1.9274675E-02
   9.60000  1.8816921E-02  5.8651564E-02  2.0612081E-02
   9.80000  2.0071892E-02  6.1074514E-02  2.1958264E-02
   10.0000  2.1395284E-02  6.2542359E-02  2.3299792E-02
   10.2500  2.3173189E-02  6.2830404E-02  2.4954032E-02
   10.5000  2.5082746E-02  6.1398062E-02  2.6559984E-02
   10.7500  2.7071349E-02  5.8521064E-02  2.8084260E-02
   11.0000  2.9048855E-02  5.4668055E-02  2.9488752E-02
   11.2500  3.0910474E-02  5.0346439E-02  3.0739546E-02
   11.5000  3.2564766E-02  4.5979766E-02  3.1814724E-02
   11.7500  3.3955675E-02  4.1856638E-02  3.2708915E-02
   12.0000  3.5069720E-02  3.8135930E-02  3.3432960E-02
   12.2500  3.5929221E-02  3.4877641E-02  3.4009287E-02
   12.5000  3.6578561E-02  3.2078932E-02  3.4466208E-02
   12.7500  3.7069815E-02  2.9703867E-02  3.4833717E-02
   13.0000  3.7453358E-02  2.7702776E-02  3.5141021E-02
   13.2500  3.7773208E-02  2.6023183E-02  3.5415087E-02
   13.5000  3.8063952E-02  2.4615774E-02  3.5679208E-02
   13.7500  3.8348785E-02  2.3437499E-02  3.5951950E-02
   14.0000  3.8639372E-02  2.2452523E-02  3.6247628E-02
   14.2500  3.8937274E-02  2.1631720E-02  3.6577328E-02
   14.5000  3.9236580E-02  2.0951711E-02  3.6948733E-02
   14.7500  3.9526784E-02  2.0393930E-02  3.7364993E-02
   15.0000  3.9795047E-02  1.9943770E-02  3.7823659E-02
   15.2500  4.0027768E-02  1.9589800E-02  3.8316122E-02
   15.5000  4.0211682E-02  1.9323054E-02  3.8827655E-02
   15.7500  4.0334677E-02  1.9136426E-02  3.9338137E-02
   16.0000  4.0386445E-02  1.9024154E-02  3.9823500E-02
   16.2500  4.0359023E-02  1.8981424E-02  4.0257875E-02
   16.5000  4.0247231E-02  1.9004064E-02  4.0616247E-02
   16.7500  4.0048982E-02  1.9088310E-02  4.0877253E-02
   17.0000  3.9765445E-02  1.9230652E-02  4.1025654E-02
   17.2500  3.9401032E-02  1.9427706E-02  4.1053992E-02
   17.5000  3.8963194E-02  1.9676139E-02  4.0963125E-02
   17.7500  3.8462053E-02  1.9972602E-02  4.0761588E-02
   18.0000  3.7909862E-02  2.0313691E-02  4.0463970E-02
   18.2500  3.7320369E-02  2.0695933E-02  4.0088749E-02
   18.5000  3.6708109E-02  2.1115783E-02  3.9656010E-02
   18.7500  3.6087704E-02  2.1569656E-02  3.9185444E-02
   19.0000  3.5473194E-02  2.2053989E-02  3.8694830E-02
   19.2500  3.4877444E-02  2.2565349E-02  3.8199068E-02
   19.5000  3.4311648E-02  2.3100559E-02  3.7709708E-02
   19.7500  3.3785027E-02  2.3656749E-02  3.7234923E-02
   20.0000  3.3304889E-02  2.4231152E-02  3.6779920E-02
   21.0000  3.1956805E-02  2.6636872E-02  3.5201917E-02
   22.0000  3.1649446E-02  2.9024123E-02  3.3997715E-02
   23.0000  3.2270100E-02  3.1156386E-02  3.3029972E-02
   24.0000  3.3416020E-02  3.2802807E-02  3.2147323E-02
   25.0000  3.4493475E-02  3.3800820E-02  3.1255074E-02
   26.0000  3.4954777E-02  3.4119015E-02  3.0335999E-02
   27.0000  3.4585377E-02  3.3848201E-02  2.9441515E-02
   28.0000  3.3566640E-02  3.3145607E-02  2.8653778E-02
   29.0000  3.2258596E-02  3.2186108E-02  2.8037993E-02
   30.0000  3.0952712E-02  3.1123759E-02  2.7609476E-02
   31.0000  2.9780161E-02  3.0051452E-02  2.7328746E-02
   32.0000  2.8759808E-02  2.9006419E-02  2.7133028E-02
   33.0000  2.7860864E-02  2.7991410E-02  2.6964201E-02
   34.0000  2.7038852E-02  2.6991770E-02  2.6779280E-02
   35.0000  2.6255333E-02  2.5990547E-02  2.6550854E-02
   36.0000  2.5488954E-02  2.4980623E-02  2.6264213E-02
   37.0000  2.4740534E-02  2.3973274E-02  2.5916145E-02
   38.0000  2.4032721E-02  2.3003349E-02  2.5518476E-02
   39.0000  2.3405739E-02  2.2131290E-02  2.5107217E-02
   40.0000  2.2908000E-02  2.1433885E-02  2.4747303E-02
