    Energy   (100,001)      (010,001)      (001,110)   
  -25.0000  1.7284520E-04  1.9128394E-04  1.8017490E-04
  -24.0000  1.7879242E-04  1.9821495E-04  1.8635719E-04
  -23.0000  1.8512394E-04  2.0563072E-04  1.9294211E-04
  -22.0000  1.9187722E-04  2.1358309E-04  1.9996941E-04
  -21.0000  1.9909470E-04  2.2213148E-04  2.0748422E-04
  -20.0000  2.0682467E-04  2.3134434E-04  2.1553798E-04
  -19.0000  2.1512226E-04  2.4130092E-04  2.2418955E-04
  -18.0000  2.2405079E-04  2.5209343E-04  2.3350664E-04
  -17.0000  2.3368325E-04  2.6382983E-04  2.4356752E-04
  -16.0000  2.4410429E-04  2.7663732E-04  2.5446315E-04
  -15.0000  2.5541264E-04  2.9066674E-04  2.6629992E-04
  -14.0000  2.6772418E-04  3.0609832E-04  2.7920303E-04
  -13.0000  2.8117589E-04  3.2314918E-04  2.9332090E-04
  -12.0000  2.9593090E-04  3.4208314E-04  3.0883088E-04
  -11.0000  3.1218517E-04  3.6322396E-04  3.2594670E-04
  -10.0000  3.3017634E-04  3.8697320E-04  3.4492852E-04
  -9.00000  3.5019564E-04  4.1383503E-04  3.6609642E-04
  -8.00000  3.7260440E-04  4.4445100E-04  3.8984922E-04
  -7.00000  3.9785712E-04  4.7965009E-04  4.1669091E-04
  -6.00000  4.2653486E-04  5.2052241E-04  4.4726904E-04
  -5.00000  4.5939468E-04  5.6853096E-04  4.8243202E-04
  -4.00000  4.9744584E-04  6.2568667E-04  5.2331778E-04
  -3.00000  5.4207203E-04  6.9483419E-04  5.7149698E-04
  -2.00000  5.9523835E-04  7.8014195E-04  6.2921726E-04
  -1.00000  6.5986646E-04  8.8799704E-04  6.9984930E-04
   0.00000  7.4057736E-04  1.0287788E-03  7.8877777E-04
   1.00000  8.4534858E-04  1.2207878E-03  9.0540903E-04
   2.00000  9.8988759E-04  1.5004450E-03  1.0685337E-03
   3.00000  1.2124227E-03  1.9559578E-03  1.3247433E-03
   4.00000  1.6467728E-03  2.8891299E-03  1.8412235E-03
   5.00000  2.9074844E-03  5.6590291E-03  3.3812412E-03
   5.20000  3.2784036E-03  6.4864857E-03  3.8118949E-03
   5.40000  3.6159244E-03  7.2543154E-03  4.1815675E-03
   5.60000  3.9067025E-03  7.9376292E-03  4.4840192E-03
   5.80000  4.1598970E-03  8.5601098E-03  4.7447733E-03
   6.00000  4.3902379E-03  9.1572274E-03  4.9921116E-03
   6.20000  4.6104654E-03  9.7595996E-03  5.2461505E-03
   6.40000  4.8301705E-03  1.0390337E-02  5.5189223E-03
   6.60000  5.0565601E-03  1.1066684E-02  5.8166430E-03
   6.80000  5.2954179E-03  1.1802247E-02  6.1411035E-03
   7.00000  5.5518136E-03  1.2608888E-02  6.4899799E-03
   7.20000  5.8305081E-03  1.3498061E-02  6.8570373E-03
   7.40000  6.1360942E-03  1.4481742E-02  7.2337974E-03
   7.60000  6.4729728E-03  1.5573177E-02  7.6137011E-03
   7.80000  6.8453110E-03  1.6787551E-02  7.9973476E-03
   8.00000  7.2570680E-03  1.8142330E-02  8.3950370E-03
   8.20000  7.7120291E-03  1.9656987E-02  8.8243220E-03
   8.40000  8.2137245E-03  2.1352070E-02  9.3046634E-03
   8.60000  8.7651803E-03  2.3247812E-02  9.8530344E-03
   8.80000  9.3685716E-03  2.5362547E-02  1.0482078E-02
   9.00000  1.0024891E-02  2.7711247E-02  1.1199886E-02
   9.20000  1.0733646E-02  3.0303983E-02  1.2010028E-02
   9.40000  1.1492707E-02  3.3143028E-02  1.2911463E-02
   9.60000  1.2298697E-02  3.6216993E-02  1.3898781E-02
   9.80000  1.3147769E-02  3.9492596E-02  1.4962663E-02
   10.0000  1.4035983E-02  4.2906421E-02  1.6089857E-02
   10.2500  1.5194969E-02  4.7211442E-02  1.7561083E-02
   10.5000  1.6400149E-02  5.1292628E-02  1.9063162E-02
   10.7500  1.7642877E-02  5.4800602E-02  2.0553869E-02
   11.0000  1.8913303E-02  5.7376530E-02  2.1997026E-02
   11.2500  2.0198067E-02  5.8739688E-02  2.3367866E-02
   11.5000  2.1478193E-02  5.8766744E-02  2.4652615E-02
   11.7500  2.2728562E-02  5.7522214E-02  2.5844278E-02
   12.0000  2.3920429E-02  5.5232942E-02  2.6939679E-02
   12.2500  2.5027051E-02  5.2219732E-02  2.7938412E-02
   12.5000  2.6029946E-02  4.8816260E-02  2.8843090E-02
   12.7500  2.6922853E-02  4.5307998E-02  2.9660079E-02
   13.0000  2.7712348E-02  4.1904375E-02  3.0399977E-02
   13.2500  2.8415634E-02  3.8738032E-02  3.1077728E-02
   13.5000  2.9056179E-02  3.5878328E-02  3.1711967E-02
   13.7500  2.9658895E-02  3.3349099E-02  3.2323363E-02
   14.0000  3.0246888E-02  3.1145176E-02  3.2932608E-02
   14.2500  3.0839842E-02  2.9245200E-02  3.3558631E-02
   14.5000  3.1453125E-02  2.7620347E-02  3.4217204E-02
   14.7500  3.2097222E-02  2.6239712E-02  3.4919957E-02
   15.0000  3.2777478E-02  2.5073350E-02  3.5673776E-02
   15.2500  3.3494178E-02  2.4093825E-02  3.6480482E-02
   15.5000  3.4242968E-02  2.3276832E-02  3.7336682E-02
   15.7500  3.5015561E-02  2.2601298E-02  3.8233763E-02
   16.0000  3.5800640E-02  2.2049203E-02  3.9157992E-02
   16.2500  3.6584855E-02  2.1605269E-02  4.0090827E-02
   16.5000  3.7353817E-02  2.1256622E-02  4.1009503E-02
   16.7500  3.8093026E-02  2.0992446E-02  4.1888043E-02
   17.0000  3.8788701E-02  2.0803673E-02  4.2698724E-02
   17.2500  3.9428523E-02  2.0682694E-02  4.3414018E-02
   17.5000  4.0002304E-02  2.0623106E-02  4.4008852E-02
   17.7500  4.0502584E-02  2.0619481E-02  4.4462923E-02
   18.0000  4.0925114E-02  2.0667154E-02  4.4762725E-02
   18.2500  4.1269164E-02  2.0762047E-02  4.4902894E-02
   18.5000  4.1537567E-02  2.0900509E-02  4.4886612E-02
   18.7500  4.1736441E-02  2.1079208E-02  4.4724961E-02
   19.0000  4.1874592E-02  2.1295056E-02  4.4435323E-02
   19.2500  4.1962642E-02  2.1545199E-02  4.4039131E-02
   19.5000  4.2012010E-02  2.1827036E-02  4.3559352E-02
   19.7500  4.2033907E-02  2.2138208E-02  4.3018262E-02
   20.0000  4.2038565E-02  2.2476447E-02  4.2436068E-02
   21.0000  4.2039576E-02  2.4044601E-02  4.0023405E-02
   22.0000  4.2176743E-02  2.5825364E-02  3.7932983E-02
   23.0000  4.2345275E-02  2.7669335E-02  3.6287841E-02
   24.0000  4.2232493E-02  2.9431460E-02  3.4968065E-02
   25.0000  4.1506677E-02  3.0976997E-02  3.3827649E-02
   26.0000  3.9979000E-02  3.2204224E-02  3.2763176E-02
   27.0000  3.7731593E-02  3.3056861E-02  3.1730407E-02
   28.0000  3.5107267E-02  3.3523814E-02  3.0740262E-02
   29.0000  3.2530329E-02  3.3635003E-02  2.9836791E-02
   30.0000  3.0310668E-02  3.3451883E-02  2.9065125E-02
   31.0000  2.8575294E-02  3.3051924E-02  2.8449007E-02
   32.0000  2.7310729E-02  3.2520727E-02  2.7988250E-02
   33.0000  2.6433010E-02  3.1939151E-02  2.7664618E-02
   34.0000  2.5843999E-02  3.1348723E-02  2.7446349E-02
   35.0000  2.5460617E-02  3.0760555E-02  2.7297048E-02
   36.0000  2.5218333E-02  3.0174484E-02  2.7180893E-02
   37.0000  2.5064117E-02  2.9588360E-02  2.7065863E-02
   38.0000  2.4951292E-02  2.9007025E-02  2.6930051E-02
   39.0000  2.4845072E-02  2.8456640E-02  2.6772263E-02
   40.0000  2.4739235E-02  2.7996265E-02  2.6619957E-02
