    Energy   (100,001)      (010,001)      (001,110)   
  -25.0000  1.7372246E-04  1.8071900E-04  1.8250678E-04
  -24.0000  1.7961120E-04  1.8773199E-04  1.8881906E-04
  -23.0000  1.8587689E-04  1.9525889E-04  1.9554816E-04
  -22.0000  1.9255603E-04  2.0335657E-04  2.0273601E-04
  -21.0000  1.9968994E-04  2.1209045E-04  2.1043028E-04
  -20.0000  2.0732558E-04  2.2153615E-04  2.1868549E-04
  -19.0000  2.1551656E-04  2.3178158E-04  2.2756421E-04
  -18.0000  2.2432434E-04  2.4292946E-04  2.3713862E-04
  -17.0000  2.3381972E-04  2.5510056E-04  2.4749246E-04
  -16.0000  2.4408474E-04  2.6843779E-04  2.5872342E-04
  -15.0000  2.5521493E-04  2.8311145E-04  2.7094620E-04
  -14.0000  2.6732230E-04  2.9932606E-04  2.8429641E-04
  -13.0000  2.8053902E-04  3.1732928E-04  2.9893555E-04
  -12.0000  2.9502225E-04  3.3742374E-04  3.1505761E-04
  -11.0000  3.1096042E-04  3.5998306E-04  3.3289776E-04
  -10.0000  3.2858152E-04  3.8547364E-04  3.5274398E-04
  -9.00000  3.4816432E-04  4.1448500E-04  3.7495309E-04
  -8.00000  3.7005368E-04  4.4777281E-04  3.9997298E-04
  -7.00000  3.9468199E-04  4.8632114E-04  4.2837435E-04
  -6.00000  4.2259998E-04  5.3143488E-04  4.6089707E-04
  -5.00000  4.5452212E-04  5.8488092E-04  4.9852002E-04
  -4.00000  4.9139607E-04  6.4911097E-04  5.4256998E-04
  -3.00000  5.3451342E-04  7.2762781E-04  5.9489883E-04
  -2.00000  5.8569587E-04  8.2561690E-04  6.5818715E-04
  -1.00000  6.4763015E-04  9.5110405E-04  7.3649993E-04
   0.00000  7.2452608E-04  1.1172498E-03  8.3639308E-04
   1.00000  8.2357349E-04  1.3474021E-03  9.6938236E-04
   2.00000  9.5875596E-04  1.6880167E-03  1.1584065E-03
   3.00000  1.1636322E-03  2.2500990E-03  1.4592880E-03
   4.00000  1.5537717E-03  3.3998361E-03  2.0638085E-03
   5.00000  2.6603272E-03  6.7642715E-03  3.8540969E-03
   5.20000  2.9930941E-03  7.8290701E-03  4.4083322E-03
   5.40000  3.3042686E-03  8.8887789E-03  4.9337090E-03
   5.60000  3.5801864E-03  9.9101993E-03  5.4012650E-03
   5.80000  3.8257775E-03  1.0906159E-02  5.8146861E-03
   6.00000  4.0511248E-03  1.1904002E-02  6.1945323E-03
   6.20000  4.2645662E-03  1.2930114E-02  6.5678625E-03
   6.40000  4.4715656E-03  1.4006560E-02  6.9623229E-03
   6.60000  4.6759905E-03  1.5151770E-02  7.4011568E-03
   6.80000  4.8816673E-03  1.6382100E-02  7.8985394E-03
   7.00000  5.0932315E-03  1.7713458E-02  8.4565214E-03
   7.20000  5.3161609E-03  1.9162640E-02  9.0653320E-03
   7.40000  5.5563247E-03  2.0748042E-02  9.7080053E-03
   7.60000  5.8194490E-03  2.2489578E-02  1.0368425E-02
   7.80000  6.1107884E-03  2.4407965E-02  1.1039708E-02
   8.00000  6.4350787E-03  2.6523467E-02  1.1729018E-02
   8.20000  6.7966802E-03  2.8854091E-02  1.2456599E-02
   8.40000  7.1997827E-03  3.1413045E-02  1.3249867E-02
   8.60000  7.6485784E-03  3.4205241E-02  1.4135127E-02
   8.80000  8.1473547E-03  3.7222538E-02  1.5129195E-02
   9.00000  8.7004885E-03  4.0437718E-02  1.6232181E-02
   9.20000  9.3123222E-03  4.3797871E-02  1.7422540E-02
   9.40000  9.9868914E-03  4.7218562E-02  1.8656194E-02
   9.60000  1.0727507E-02  5.0579888E-02  1.9871910E-02
   9.80000  1.1536207E-02  5.3725644E-02  2.1003480E-02
   10.0000  1.2413025E-02  5.6468997E-02  2.1995262E-02
   10.2500  1.3600076E-02  5.9028188E-02  2.2990911E-02
   10.5000  1.4874929E-02  6.0307967E-02  2.3712174E-02
   10.7500  1.6214353E-02  6.0139085E-02  2.4202589E-02
   11.0000  1.7587159E-02  5.8596806E-02  2.4530984E-02
   11.2500  1.8957753E-02  5.5972276E-02  2.4770425E-02
   11.5000  2.0291700E-02  5.2660845E-02  2.4985108E-02
   11.7500  2.1563519E-02  4.9041213E-02  2.5223474E-02
   12.0000  2.2763885E-02  4.5403981E-02  2.5516858E-02
   12.2500  2.3901269E-02  4.1936667E-02  2.5882391E-02
   12.5000  2.4997468E-02  3.8741520E-02  2.6327530E-02
   12.7500  2.6079014E-02  3.5862339E-02  2.6854014E-02
   13.0000  2.7168661E-02  3.3307444E-02  2.7459933E-02
   13.2500  2.8281478E-02  3.1065255E-02  2.8139585E-02
   13.5000  2.9425064E-02  2.9114203E-02  2.8883364E-02
   13.7500  3.0600935E-02  2.7428793E-02  2.9680069E-02
   14.0000  3.1805524E-02  2.5982787E-02  3.0519974E-02
   14.2500  3.3030848E-02  2.4750770E-02  3.1396409E-02
   14.5000  3.4265188E-02  2.3709032E-02  3.2305678E-02
   14.7500  3.5493779E-02  2.2836084E-02  3.3245939E-02
   15.0000  3.6699423E-02  2.2112894E-02  3.4215589E-02
   15.2500  3.7862990E-02  2.1522900E-02  3.5211531E-02
   15.5000  3.8963866E-02  2.1051862E-02  3.6227599E-02
   15.7500  3.9980423E-02  2.0687622E-02  3.7253382E-02
   16.0000  4.0890662E-02  2.0419809E-02  3.8273600E-02
   16.2500  4.1673140E-02  2.0239536E-02  3.9268196E-02
   16.5000  4.2308246E-02  2.0139116E-02  4.0213174E-02
   16.7500  4.2779771E-02  2.0111806E-02  4.1082190E-02
   17.0000  4.3076614E-02  2.0151585E-02  4.1848728E-02
   17.2500  4.3194359E-02  2.0252984E-02  4.2488602E-02
   17.5000  4.3136397E-02  2.0410954E-02  4.2982397E-02
   17.7500  4.2914303E-02  2.0620763E-02  4.3317461E-02
   18.0000  4.2547322E-02  2.0877944E-02  4.3489105E-02
   18.2500  4.2060970E-02  2.1178250E-02  4.3500826E-02
   18.5000  4.1484976E-02  2.1517648E-02  4.3363566E-02
   18.7500  4.0850884E-02  2.1892326E-02  4.3094201E-02
   19.0000  4.0189672E-02  2.2298736E-02  4.2713544E-02
   19.2500  3.9529682E-02  2.2733656E-02  4.2244181E-02
   19.5000  3.8895041E-02  2.3194268E-02  4.1708439E-02
   19.7500  3.8304743E-02  2.3678156E-02  4.1126812E-02
   20.0000  3.7772557E-02  2.4183069E-02  4.0517235E-02
   21.0000  3.6368373E-02  2.6352204E-02  3.8085739E-02
   22.0000  3.6152647E-02  2.8597826E-02  3.6067301E-02
   23.0000  3.6764806E-02  3.0699146E-02  3.4562378E-02
   24.0000  3.7599591E-02  3.2403800E-02  3.3436497E-02
   25.0000  3.8005523E-02  3.3486893E-02  3.2519917E-02
   26.0000  3.7535651E-02  3.3855695E-02  3.1685604E-02
   27.0000  3.6174616E-02  3.3593682E-02  3.0880819E-02
   28.0000  3.4297031E-02  3.2899999E-02  3.0124175E-02
   29.0000  3.2370501E-02  3.1987161E-02  2.9466975E-02
   30.0000  3.0705974E-02  3.1013714E-02  2.8948491E-02
   31.0000  2.9413192E-02  3.0073376E-02  2.8576137E-02
   32.0000  2.8472230E-02  2.9208488E-02  2.8329321E-02
   33.0000  2.7810081E-02  2.8415651E-02  2.8171173E-02
   34.0000  2.7348000E-02  2.7668341E-02  2.8062657E-02
   35.0000  2.7017686E-02  2.6936550E-02  2.7969126E-02
   36.0000  2.6762483E-02  2.6196960E-02  2.7861480E-02
   37.0000  2.6537674E-02  2.5441212E-02  2.7718091E-02
   38.0000  2.6314538E-02  2.4683912E-02  2.7529634E-02
   39.0000  2.6088734E-02  2.3971247E-02  2.7308466E-02
   40.0000  2.5885660E-02  2.3380875E-02  2.7097909E-02
