    Energy   (100,001)      (010,001)      (001,110)   
  -25.0000  1.7125963E-04  1.8591261E-04  1.8615104E-04
  -24.0000  1.7726051E-04  1.9314817E-04  1.9247520E-04
  -23.0000  1.8365861E-04  2.0091802E-04  1.9921508E-04
  -22.0000  1.9049374E-04  2.0928186E-04  2.0641262E-04
  -21.0000  1.9781113E-04  2.1830846E-04  2.1411556E-04
  -20.0000  2.0566242E-04  2.2807743E-04  2.2237850E-04
  -19.0000  2.1410682E-04  2.3868145E-04  2.3126417E-04
  -18.0000  2.2321257E-04  2.5022896E-04  2.4084503E-04
  -17.0000  2.3305867E-04  2.6284772E-04  2.5120516E-04
  -16.0000  2.4373719E-04  2.7668915E-04  2.6244280E-04
  -15.0000  2.5535597E-04  2.9193405E-04  2.7467336E-04
  -14.0000  2.6804228E-04  3.0879997E-04  2.8803345E-04
  -13.0000  2.8194730E-04  3.2755093E-04  3.0268590E-04
  -12.0000  2.9725213E-04  3.4851029E-04  3.1882652E-04
  -11.0000  3.1417561E-04  3.7207820E-04  3.3669285E-04
  -10.0000  3.3298474E-04  3.9875549E-04  3.5657604E-04
  -9.00000  3.5400894E-04  4.2917690E-04  3.7883702E-04
  -8.00000  3.7765961E-04  4.6415840E-04  4.0392901E-04
  -7.00000  4.0445784E-04  5.0476576E-04  4.3242947E-04
  -6.00000  4.3507441E-04  5.5241670E-04  4.6508661E-04
  -5.00000  4.7038917E-04  6.0903714E-04  5.0288895E-04
  -4.00000  5.1158216E-04  6.7730838E-04  5.4717300E-04
  -3.00000  5.6027900E-04  7.6107401E-04  5.9979658E-04
  -2.00000  6.1879415E-04  8.6604222E-04  6.6343183E-04
  -1.00000  6.9056326E-04  1.0010730E-03  7.4209198E-04
   0.00000  7.8097361E-04  1.1807250E-03  8.4215718E-04
   1.00000  8.9913602E-04  1.4308450E-03  9.7460004E-04
   2.00000  1.0622727E-03  1.8027753E-03  1.1606195E-03
   3.00000  1.3093430E-03  2.4185500E-03  1.4496739E-03
   4.00000  1.7618090E-03  3.6770717E-03  2.0032935E-03
   5.00000  2.9391209E-03  7.3274976E-03  3.5271308E-03
   5.20000  3.3051710E-03  8.4686576E-03  3.9819399E-03
   5.40000  3.6769781E-03  9.5942151E-03  4.4129355E-03
   5.60000  4.0469002E-03  1.0672884E-02  4.8083100E-03
   5.80000  4.4208457E-03  1.1730980E-02  5.1847374E-03
   6.00000  4.8083780E-03  1.2815999E-02  5.5694150E-03
   6.20000  5.2183358E-03  1.3975499E-02  5.9893691E-03
   6.40000  5.6584147E-03  1.5249376E-02  6.4670150E-03
   6.60000  6.1360478E-03  1.6668865E-02  7.0186080E-03
   6.80000  6.6594329E-03  1.8259301E-02  7.6545027E-03
   7.00000  7.2381408E-03  2.0044273E-02  8.3807476E-03
   7.20000  7.8828802E-03  2.2048505E-02  9.2009771E-03
   7.40000  8.6042023E-03  2.4297448E-02  1.0117195E-02
   7.60000  9.4101332E-03  2.6813197E-02  1.1128637E-02
   7.80000  1.0302680E-02  2.9607630E-02  1.2228896E-02
   8.00000  1.1273247E-02  3.2673752E-02  1.3402208E-02
   8.20000  1.2297893E-02  3.5976469E-02  1.4620232E-02
   8.40000  1.3334925E-02  3.9445595E-02  1.5841259E-02
   8.60000  1.4328633E-02  4.2976599E-02  1.7014389E-02
   8.80000  1.5221896E-02  4.6444616E-02  1.8090358E-02
   9.00000  1.5975029E-02  4.9729768E-02  1.9036510E-02
   9.20000  1.6581478E-02  5.2739829E-02  1.9848051E-02
   9.40000  1.7070399E-02  5.5413147E-02  2.0547549E-02
   9.60000  1.7494688E-02  5.7698900E-02  2.1172502E-02
   9.80000  1.7912661E-02  5.9531035E-02  2.1759335E-02
   10.0000  1.8373208E-02  6.0817550E-02  2.2333113E-02
   10.2500  1.9056654E-02  6.1502032E-02  2.3050119E-02
   10.5000  1.9884090E-02  6.1028142E-02  2.3775248E-02
   10.7500  2.0853122E-02  5.9399204E-02  2.4518577E-02
   11.0000  2.1941627E-02  5.6791325E-02  2.5299251E-02
   11.2500  2.3116160E-02  5.3495021E-02  2.6140860E-02
   11.5000  2.4338667E-02  4.9829304E-02  2.7060339E-02
   11.7500  2.5570920E-02  4.6073247E-02  2.8059207E-02
   12.0000  2.6777260E-02  4.2431499E-02  2.9120858E-02
   12.2500  2.7927869E-02  3.9032601E-02  3.0212786E-02
   12.5000  2.9002084E-02  3.5945627E-02  3.1290958E-02
   12.7500  2.9989584E-02  3.3198801E-02  3.2305351E-02
   13.0000  3.0889175E-02  3.0793373E-02  3.3207544E-02
   13.2500  3.1706350E-02  2.8713420E-02  3.3959442E-02
   13.5000  3.2450987E-02  2.6933152E-02  3.4540481E-02
   13.7500  3.3135035E-02  2.5422253E-02  3.4950797E-02
   14.0000  3.3769957E-02  2.4149522E-02  3.5209401E-02
   14.2500  3.4364588E-02  2.3085136E-02  3.5348452E-02
   14.5000  3.4924020E-02  2.2201901E-02  3.5405855E-02
   14.7500  3.5449583E-02  2.1475777E-02  3.5418267E-02
   15.0000  3.5939619E-02  2.0885941E-02  3.5415762E-02
   15.2500  3.6390517E-02  2.0414580E-02  3.5418656E-02
   15.5000  3.6797437E-02  2.0046567E-02  3.5436768E-02
   15.7500  3.7154472E-02  1.9769136E-02  3.5470985E-02
   16.0000  3.7454694E-02  1.9571552E-02  3.5515934E-02
   16.2500  3.7690668E-02  1.9444795E-02  3.5562385E-02
   16.5000  3.7855404E-02  1.9381257E-02  3.5599143E-02
   16.7500  3.7943428E-02  1.9374490E-02  3.5614786E-02
   17.0000  3.7951750E-02  1.9419001E-02  3.5599251E-02
   17.2500  3.7880619E-02  1.9510091E-02  3.5545116E-02
   17.5000  3.7733951E-02  1.9643727E-02  3.5448362E-02
   17.7500  3.7519378E-02  1.9816439E-02  3.5308593E-02
   18.0000  3.7247857E-02  2.0025229E-02  3.5128747E-02
   18.2500  3.6932936E-02  2.0267508E-02  3.4914444E-02
   18.5000  3.6589777E-02  2.0541034E-02  3.4673128E-02
   18.7500  3.6234086E-02  2.0843882E-02  3.4413157E-02
   19.0000  3.5881100E-02  2.1174422E-02  3.4142963E-02
   19.2500  3.5544718E-02  2.1531330E-02  3.3870353E-02
   19.5000  3.5236823E-02  2.1913604E-02  3.3601987E-02
   19.7500  3.4966864E-02  2.2320529E-02  3.3343069E-02
   20.0000  3.4741759E-02  2.2751460E-02  3.3097312E-02
   21.0000  3.4359727E-02  2.4687659E-02  3.2283937E-02
   22.0000  3.4783943E-02  2.6872311E-02  3.1740599E-02
   23.0000  3.5677232E-02  2.9141029E-02  3.1356044E-02
   24.0000  3.6463594E-02  3.1236925E-02  3.0998397E-02
   25.0000  3.6573794E-02  3.2860939E-02  3.0588062E-02
   26.0000  3.5761718E-02  3.3800863E-02  3.0113308E-02
   27.0000  3.4231652E-02  3.4031228E-02  2.9618268E-02
   28.0000  3.2429087E-02  3.3696543E-02  2.9179515E-02
   29.0000  3.0739794E-02  3.3009029E-02  2.8871088E-02
   30.0000  2.9354691E-02  3.2153718E-02  2.8731444E-02
   31.0000  2.8299991E-02  3.1250102E-02  2.8754236E-02
   32.0000  2.7518346E-02  3.0357040E-02  2.8901102E-02
   33.0000  2.6930362E-02  2.9492381E-02  2.9118762E-02
   34.0000  2.6465151E-02  2.8652370E-02  2.9350342E-02
   35.0000  2.6070452E-02  2.7827274E-02  2.9541669E-02
   36.0000  2.5712299E-02  2.7012040E-02  2.9646614E-02
   37.0000  2.5371363E-02  2.6211554E-02  2.9634116E-02
   38.0000  2.5045548E-02  2.5445171E-02  2.9501389E-02
   39.0000  2.4751742E-02  2.4752669E-02  2.9287146E-02
   40.0000  2.4512613E-02  2.4192748E-02  2.9066766E-02
