    Energy   (100,001)      (010,001)      (001,110)   
  -25.0000  1.7175816E-04  1.9057080E-04  1.8585486E-04
  -24.0000  1.7787454E-04  1.9760525E-04  1.9244084E-04
  -23.0000  1.8439859E-04  2.0513925E-04  1.9947360E-04
  -22.0000  1.9137114E-04  2.1322694E-04  2.0699935E-04
  -21.0000  1.9883863E-04  2.2193048E-04  2.1507083E-04
  -20.0000  2.0685401E-04  2.3132159E-04  2.2374856E-04
  -19.0000  2.1547797E-04  2.4148345E-04  2.3310227E-04
  -18.0000  2.2478041E-04  2.5251303E-04  2.4321276E-04
  -17.0000  2.3484217E-04  2.6452407E-04  2.5417416E-04
  -16.0000  2.4575735E-04  2.7765085E-04  2.6609684E-04
  -15.0000  2.5763610E-04  2.9205295E-04  2.7911104E-04
  -14.0000  2.7060814E-04  3.0792146E-04  2.9337160E-04
  -13.0000  2.8482741E-04  3.2548711E-04  3.0906406E-04
  -12.0000  3.0047795E-04  3.4503095E-04  3.2641276E-04
  -11.0000  3.1778168E-04  3.6689872E-04  3.4569159E-04
  -10.0000  3.3700872E-04  3.9152038E-04  3.6723868E-04
  -9.00000  3.5849143E-04  4.1943717E-04  3.9147663E-04
  -8.00000  3.8264356E-04  4.5133961E-04  4.1894116E-04
  -7.00000  4.0998728E-04  4.8812235E-04  4.5032249E-04
  -6.00000  4.4119194E-04  5.3096475E-04  4.8652684E-04
  -5.00000  4.7713128E-04  5.8145310E-04  5.2877087E-04
  -4.00000  5.1897065E-04  6.4177162E-04  5.7873230E-04
  -3.00000  5.6830534E-04  7.1501287E-04  6.3880164E-04
  -2.00000  6.2739049E-04  8.0570641E-04  7.1252790E-04
  -1.00000  6.9954762E-04  9.2077367E-04  8.0546671E-04
   0.00000  7.8994288E-04  1.0713895E-03  9.2695263E-04
   1.00000  9.0724761E-04  1.2770077E-03  1.0942945E-03
   2.00000  1.0677762E-03  1.5754627E-03  1.3445803E-03
   3.00000  1.3085258E-03  2.0548221E-03  1.7774088E-03
   4.00000  1.7467165E-03  2.9983885E-03  2.7806099E-03
   5.00000  2.8931662E-03  5.6384709E-03  6.2314770E-03
   5.20000  3.2466391E-03  6.4540176E-03  7.2043633E-03
   5.40000  3.5991526E-03  7.2556355E-03  7.9741715E-03
   5.60000  3.9397300E-03  8.0198549E-03  8.4855091E-03
   5.80000  4.2708564E-03  8.7619193E-03  8.7808829E-03
   6.00000  4.5991319E-03  9.5098848E-03  8.9328350E-03
   6.20000  4.9315831E-03  1.0291399E-02  9.0072832E-03
   6.40000  5.2753677E-03  1.1130454E-02  9.0555316E-03
   6.60000  5.6378394E-03  1.2047849E-02  9.1166365E-03
   6.80000  6.0263604E-03  1.3062697E-02  9.2208972E-03
   7.00000  6.4482043E-03  1.4194111E-02  9.3926423E-03
   7.20000  6.9106565E-03  1.5462714E-02  9.6525982E-03
   7.40000  7.4210917E-03  1.6891815E-02  1.0019686E-02
   7.60000  7.9868030E-03  1.8508017E-02  1.0511654E-02
   7.80000  8.6145297E-03  2.0340987E-02  1.1144251E-02
   8.00000  9.3097664E-03  2.2421996E-02  1.1929206E-02
   8.20000  1.0075955E-02  2.4780798E-02  1.2871688E-02
   8.40000  1.0913626E-02  2.7440359E-02  1.3967875E-02
   8.60000  1.1819615E-02  3.0409281E-02  1.5203140E-02
   8.80000  1.2786691E-02  3.3672803E-02  1.6551345E-02
   9.00000  1.3804225E-02  3.7185086E-02  1.7976098E-02
   9.20000  1.4860262E-02  4.0866360E-02  1.9435124E-02
   9.40000  1.5944495E-02  4.4607398E-02  2.0887989E-02
   9.60000  1.7050810E-02  4.8280119E-02  2.2305020E-02
   9.80000  1.8177799E-02  5.1748006E-02  2.3673325E-02
   10.0000  1.9326699E-02  5.4869605E-02  2.4996766E-02
   10.2500  2.0794017E-02  5.8059056E-02  2.6610437E-02
   10.5000  2.2289457E-02  6.0189160E-02  2.8207084E-02
   10.7500  2.3798864E-02  6.1033095E-02  2.9800227E-02
   11.0000  2.5304874E-02  6.0505891E-02  3.1377695E-02
   11.2500  2.6786710E-02  5.8707344E-02  3.2902081E-02
   11.5000  2.8214723E-02  5.5895236E-02  3.4314465E-02
   11.7500  2.9549941E-02  5.2412403E-02  3.5544029E-02
   12.0000  3.0752181E-02  4.8606145E-02  3.6527001E-02
   12.2500  3.1790561E-02  4.4767905E-02  3.7224502E-02
   12.5000  3.2651209E-02  4.1105315E-02  3.7629887E-02
   12.7500  3.3340183E-02  3.7742550E-02  3.7765663E-02
   13.0000  3.3880806E-02  3.4736758E-02  3.7674191E-02
   13.2500  3.4306562E-02  3.2099167E-02  3.7407590E-02
   13.5000  3.4653319E-02  2.9813657E-02  3.7020845E-02
   13.7500  3.4953950E-02  2.7850113E-02  3.6567555E-02
   14.0000  3.5235766E-02  2.6173066E-02  3.6096320E-02
   14.2500  3.5519650E-02  2.4746894E-02  3.5648070E-02
   14.5000  3.5820024E-02  2.3538602E-02  3.5254987E-02
   14.7500  3.6145283E-02  2.2519009E-02  3.4940606E-02
   15.0000  3.6498515E-02  2.1662990E-02  3.4720442E-02
   15.2500  3.6878343E-02  2.0949243E-02  3.4602733E-02
   15.5000  3.7279753E-02  2.0359837E-02  3.4589112E-02
   15.7500  3.7694850E-02  1.9879716E-02  3.4675177E-02
   16.0000  3.8113554E-02  1.9496227E-02  3.4851023E-02
   16.2500  3.8524266E-02  1.9198718E-02  3.5101822E-02
   16.5000  3.8914554E-02  1.8978205E-02  3.5408618E-02
   16.7500  3.9271919E-02  1.8827109E-02  3.5749416E-02
   17.0000  3.9584614E-02  1.8739053E-02  3.6100659E-02
   17.2500  3.9842516E-02  1.8708688E-02  3.6439009E-02
   17.5000  4.0037950E-02  1.8731557E-02  3.6743258E-02
   17.7500  4.0166372E-02  1.8803961E-02  3.6996079E-02
   18.0000  4.0226799E-02  1.8922838E-02  3.7185301E-02
   18.2500  4.0221910E-02  1.9085640E-02  3.7304478E-02
   18.5000  4.0157801E-02  1.9290224E-02  3.7352688E-02
   18.7500  4.0043419E-02  1.9534754E-02  3.7333674E-02
   19.0000  3.9889740E-02  1.9817631E-02  3.7254553E-02
   19.2500  3.9708782E-02  2.0137463E-02  3.7124380E-02
   19.5000  3.9512575E-02  2.0493041E-02  3.6952809E-02
   19.7500  3.9312232E-02  2.0883285E-02  3.6749052E-02
   20.0000  3.9117338E-02  2.1307002E-02  3.6521326E-02
   21.0000  3.8527255E-02  2.3292150E-02  3.5501034E-02
   22.0000  3.8347627E-02  2.5603397E-02  3.4489797E-02
   23.0000  3.8379740E-02  2.8034498E-02  3.3555545E-02
   24.0000  3.8225765E-02  3.0357188E-02  3.2676845E-02
   25.0000  3.7521121E-02  3.2357362E-02  3.1816318E-02
   26.0000  3.6112298E-02  3.3865807E-02  3.0946642E-02
   27.0000  3.4137983E-02  3.4786511E-02  3.0068060E-02
   28.0000  3.1967122E-02  3.5126425E-02  2.9230744E-02
   29.0000  2.9991674E-02  3.4996052E-02  2.8526785E-02
   30.0000  2.8400230E-02  3.4558106E-02  2.8024137E-02
   31.0000  2.7207384E-02  3.3960805E-02  2.7741828E-02
   32.0000  2.6350805E-02  3.3299814E-02  2.7651004E-02
   33.0000  2.5744922E-02  3.2614318E-02  2.7687849E-02
   34.0000  2.5308052E-02  3.1904312E-02  2.7776140E-02
   35.0000  2.4973054E-02  3.1155341E-02  2.7846249E-02
   36.0000  2.4688803E-02  3.0360359E-02  2.7846024E-02
   37.0000  2.4418956E-02  2.9532444E-02  2.7746384E-02
   38.0000  2.4143427E-02  2.8708841E-02  2.7546423E-02
   39.0000  2.3865566E-02  2.7951160E-02  2.7281026E-02
   40.0000  2.3617973E-02  2.7338707E-02  2.7022304E-02
