    Energy   (100,001)      (010,001)      (001,110)   
  -25.0000  1.7659655E-04  1.8753133E-04  1.7843899E-04
  -24.0000  1.8304685E-04  1.9436750E-04  1.8505695E-04
  -23.0000  1.8994222E-04  2.0168267E-04  1.9213960E-04
  -22.0000  1.9732908E-04  2.0952810E-04  1.9973628E-04
  -21.0000  2.0526040E-04  2.1796254E-04  2.0790347E-04
  -20.0000  2.1379698E-04  2.2705366E-04  2.1670614E-04
  -19.0000  2.2300886E-04  2.3687984E-04  2.2621937E-04
  -18.0000  2.3297721E-04  2.4753228E-04  2.3653038E-04
  -17.0000  2.4379654E-04  2.5911777E-04  2.4774111E-04
  -16.0000  2.5557764E-04  2.7176212E-04  2.5997141E-04
  -15.0000  2.6845110E-04  2.8561460E-04  2.7336311E-04
  -14.0000  2.8257206E-04  3.0085356E-04  2.8808536E-04
  -13.0000  2.9812613E-04  3.1769390E-04  3.0434143E-04
  -12.0000  3.1533731E-04  3.3639680E-04  3.2237778E-04
  -11.0000  3.3447841E-04  3.5728286E-04  3.4249616E-04
  -10.0000  3.5588514E-04  3.8074981E-04  3.6506998E-04
  -9.00000  3.7997534E-04  4.0729710E-04  3.9056695E-04
  -8.00000  4.0727588E-04  4.3756040E-04  4.1958087E-04
  -7.00000  4.3846087E-04  4.7236116E-04  4.5287731E-04
  -6.00000  4.7440747E-04  5.1277960E-04  4.9146080E-04
  -5.00000  5.1627957E-04  5.6026502E-04  5.3667664E-04
  -4.00000  5.6565735E-04  6.1680826E-04  5.9037007E-04
  -3.00000  6.2474629E-04  6.8522195E-04  6.5514527E-04
  -2.00000  6.9673035E-04  7.6961797E-04  7.3480697E-04
  -1.00000  7.8640611E-04  8.7627094E-04  8.3515870E-04
   0.00000  9.0141332E-04  1.0153052E-03  9.6555639E-04
   1.00000  1.0548853E-03  1.2043527E-03  1.1422448E-03
   2.00000  1.2720676E-03  1.4777599E-03  1.3965791E-03
   3.00000  1.6109776E-03  1.9156671E-03  1.7999722E-03
   4.00000  2.2544274E-03  2.7761313E-03  2.5700758E-03
   5.00000  3.9957646E-03  5.1853276E-03  4.6166308E-03
   5.20000  4.5556087E-03  5.9386156E-03  5.2816910E-03
   5.40000  5.1373925E-03  6.6898275E-03  5.9893517E-03
   5.60000  5.7283603E-03  7.4183594E-03  6.7321116E-03
   5.80000  6.3315299E-03  8.1355378E-03  7.5232392E-03
   6.00000  6.9521613E-03  8.8626435E-03  8.3842724E-03
   6.20000  7.5928139E-03  9.6205408E-03  9.3396504E-03
   6.40000  8.2544822E-03  1.0427498E-02  1.0416238E-02
   6.60000  8.9389463E-03  1.1299503E-02  1.1643173E-02
   6.80000  9.6499396E-03  1.2251058E-02  1.3049110E-02
   7.00000  1.0392678E-02  1.3295969E-02  1.4655000E-02
   7.20000  1.1172560E-02  1.4447877E-02  1.6462023E-02
   7.40000  1.1994348E-02  1.5720423E-02  1.8437075E-02
   7.60000  1.2862768E-02  1.7126969E-02  2.0501753E-02
   7.80000  1.3784434E-02  1.8679792E-02  2.2533594E-02
   8.00000  1.4769940E-02  2.0388547E-02  2.4386993E-02
   8.20000  1.5834612E-02  2.2258241E-02  2.5931203E-02
   8.40000  1.6997002E-02  2.4287463E-02  2.7089008E-02
   8.60000  1.8275071E-02  2.6467378E-02  2.7856238E-02
   8.80000  1.9681138E-02  2.8781532E-02  2.8293462E-02
   9.00000  2.1217384E-02  3.1206233E-02  2.8497775E-02
   9.20000  2.2873157E-02  3.3710910E-02  2.8570992E-02
   9.40000  2.4624335E-02  3.6257885E-02  2.8596923E-02
   9.60000  2.6434404E-02  3.8801626E-02  2.8631753E-02
   9.80000  2.8256876E-02  4.1288240E-02  2.8705172E-02
   10.0000  3.0038405E-02  4.3656103E-02  2.8827255E-02
   10.2500  3.2120474E-02  4.6346010E-02  2.9045212E-02
   10.5000  3.3939699E-02  4.8608524E-02  2.9322480E-02
   10.7500  3.5408557E-02  5.0313726E-02  2.9644039E-02
   11.0000  3.6478839E-02  5.1353945E-02  2.9999353E-02
   11.2500  3.7147171E-02  5.1661811E-02  3.0383653E-02
   11.5000  3.7452356E-02  5.1228897E-02  3.0796191E-02
   11.7500  3.7462743E-02  5.0114757E-02  3.1236662E-02
   12.0000  3.7258085E-02  4.8438374E-02  3.1701404E-02
   12.2500  3.6916680E-02  4.6355438E-02  3.2181336E-02
   12.5000  3.6508074E-02  4.4029618E-02  3.2662656E-02
   12.7500  3.6089153E-02  4.1606897E-02  3.3129900E-02
   13.0000  3.5703412E-02  3.9201304E-02  3.3569807E-02
   13.2500  3.5382239E-02  3.6892581E-02  3.3974492E-02
   13.5000  3.5146451E-02  3.4730429E-02  3.4343046E-02
   13.7500  3.5007599E-02  3.2741144E-02  3.4681154E-02
   14.0000  3.4969213E-02  3.0934449E-02  3.4999058E-02
   14.2500  3.5027985E-02  2.9309340E-02  3.5308814E-02
   14.5000  3.5174793E-02  2.7858496E-02  3.5621660E-02
   14.7500  3.5395611E-02  2.6571318E-02  3.5945972E-02
   15.0000  3.5672364E-02  2.5435899E-02  3.6285922E-02
   15.2500  3.5983834E-02  2.4440212E-02  3.6640793E-02
   15.5000  3.6306641E-02  2.3572791E-02  3.7004887E-02
   15.7500  3.6616352E-02  2.2823097E-02  3.7367965E-02
   16.0000  3.6888707E-02  2.2181680E-02  3.7716174E-02
   16.2500  3.7100971E-02  2.1640200E-02  3.8033398E-02
   16.5000  3.7233384E-02  2.1191369E-02  3.8302925E-02
   16.7500  3.7270639E-02  2.0828821E-02  3.8509241E-02
   17.0000  3.7203212E-02  2.0546944E-02  3.8639716E-02
   17.2500  3.7028341E-02  2.0340701E-02  3.8685943E-02
   17.5000  3.6750402E-02  2.0205461E-02  3.8644511E-02
   17.7500  3.6380558E-02  2.0136862E-02  3.8517135E-02
   18.0000  3.5935645E-02  2.0130708E-02  3.8310174E-02
   18.2500  3.5436493E-02  2.0182922E-02  3.8033673E-02
   18.5000  3.4905930E-02  2.0289532E-02  3.7700147E-02
   18.7500  3.4366806E-02  2.0446701E-02  3.7323303E-02
   19.0000  3.3840277E-02  2.0650780E-02  3.6916865E-02
   19.2500  3.3344509E-02  2.0898389E-02  3.6493591E-02
   19.5000  3.2893846E-02  2.1186500E-02  3.6064531E-02
   19.7500  3.2498447E-02  2.1512450E-02  3.5638590E-02
   20.0000  3.2164413E-02  2.1873787E-02  3.5222516E-02
   21.0000  3.1461220E-02  2.3616333E-02  3.3741452E-02
   22.0000  3.1605155E-02  2.5702755E-02  3.2616138E-02
   23.0000  3.2163623E-02  2.7972109E-02  3.1747755E-02
   24.0000  3.2671930E-02  3.0233700E-02  3.0975571E-02
   25.0000  3.2801227E-02  3.2261222E-02  3.0182766E-02
   26.0000  3.2438601E-02  3.3840912E-02  2.9332894E-02
   27.0000  3.1668067E-02  3.4841775E-02  2.8458178E-02
   28.0000  3.0658327E-02  3.5252936E-02  2.7621270E-02
   29.0000  2.9565348E-02  3.5166790E-02  2.6880824E-02
   30.0000  2.8513687E-02  3.4738264E-02  2.6273662E-02
   31.0000  2.7595069E-02  3.4131911E-02  2.5806367E-02
   32.0000  2.6849752E-02  3.3452869E-02  2.5455025E-02
   33.0000  2.6269151E-02  3.2746251E-02  2.5181891E-02
   34.0000  2.5815399E-02  3.2021520E-02  2.4949656E-02
   35.0000  2.5441924E-02  3.1269842E-02  2.4728773E-02
   36.0000  2.5109414E-02  3.0479409E-02  2.4503186E-02
   37.0000  2.4794937E-02  2.9649587E-02  2.4274043E-02
   38.0000  2.4494220E-02  2.8803817E-02  2.4057016E-02
   39.0000  2.4219497E-02  2.8001345E-02  2.3871901E-02
   40.0000  2.3994337E-02  2.7336777E-02  2.3731265E-02
