    Energy   (100,001)      (010,001)      (001,110)   
  -25.0000  1.6958209E-04  1.7872214E-04  1.7754563E-04
  -24.0000  1.7574090E-04  1.8564206E-04  1.8394680E-04
  -23.0000  1.8231798E-04  1.9306662E-04  1.9078398E-04
  -22.0000  1.8935607E-04  2.0105133E-04  1.9810207E-04
  -21.0000  1.9690384E-04  2.0966000E-04  2.0595228E-04
  -20.0000  2.0501698E-04  2.1896633E-04  2.1439324E-04
  -19.0000  2.1375949E-04  2.2905588E-04  2.2349245E-04
  -18.0000  2.2320530E-04  2.4002856E-04  2.3332797E-04
  -17.0000  2.3344025E-04  2.5200166E-04  2.4399057E-04
  -16.0000  2.4456460E-04  2.6511383E-04  2.5558643E-04
  -15.0000  2.5669618E-04  2.7953005E-04  2.6824055E-04
  -14.0000  2.6997443E-04  2.9544816E-04  2.8210111E-04
  -13.0000  2.8456562E-04  3.1310732E-04  2.9734512E-04
  -12.0000  3.0066966E-04  3.3279927E-04  3.1418579E-04
  -11.0000  3.1852908E-04  3.5488344E-04  3.3288233E-04
  -10.0000  3.3844118E-04  3.7980751E-04  3.5375318E-04
  -9.00000  3.6077463E-04  4.0813592E-04  3.7719407E-04
  -8.00000  3.8599252E-04  4.4059011E-04  4.0370331E-04
  -7.00000  4.1468531E-04  4.7810660E-04  4.3391785E-04
  -6.00000  4.4761887E-04  5.2192265E-04  4.6866613E-04
  -5.00000  4.8580680E-04  5.7370659E-04  5.0904772E-04
  -4.00000  5.3062308E-04  6.3576217E-04  5.5655786E-04
  -3.00000  5.8398495E-04  7.1136239E-04  6.1329028E-04
  -2.00000  6.4866565E-04  8.0532108E-04  6.8228550E-04
  -1.00000  7.2886495E-04  9.2503274E-04  7.6816891E-04
   0.00000  8.3134046E-04  1.0825177E-03  8.7842271E-04
   1.00000  9.6791866E-04  1.2988945E-03  1.0262226E-03
   2.00000  1.1620247E-03  1.6157643E-03  1.2378374E-03
   3.00000  1.4702052E-03  2.1317240E-03  1.5769521E-03
   4.00000  2.0848313E-03  3.1715854E-03  2.2589796E-03
   5.00000  3.8741307E-03  6.1785231E-03  4.2788597E-03
   5.20000  4.4182321E-03  7.1155110E-03  4.9419006E-03
   5.40000  4.9352058E-03  8.0321513E-03  5.6176838E-03
   5.60000  5.4071401E-03  8.8928749E-03  6.2747639E-03
   5.80000  5.8455549E-03  9.7027850E-03  6.8991227E-03
   6.00000  6.2715208E-03  1.0481393E-02  7.4817904E-03
   6.20000  6.7063738E-03  1.1252461E-02  8.0168328E-03
   6.40000  7.1692642E-03  1.2043295E-02  8.5047602E-03
   6.60000  7.6762553E-03  1.2884627E-02  8.9542576E-03
   6.80000  8.2393605E-03  1.3808917E-02  9.3802231E-03
   7.00000  8.8654797E-03  1.4848272E-02  9.7999654E-03
   7.20000  9.5555936E-03  1.6033332E-02  1.0230046E-02
   7.40000  1.0304645E-02  1.7393451E-02  1.0684801E-02
   7.60000  1.1102394E-02  1.8957764E-02  1.1176227E-02
   7.80000  1.1935204E-02  2.0756720E-02  1.1714468E-02
   8.00000  1.2788274E-02  2.2823721E-02  1.2308378E-02
   8.20000  1.3647642E-02  2.5196235E-02  1.2965851E-02
   8.40000  1.4501613E-02  2.7915210E-02  1.3693854E-02
   8.60000  1.5341661E-02  3.1021221E-02  1.4498211E-02
   8.80000  1.6163067E-02  3.4545678E-02  1.5383339E-02
   9.00000  1.6965338E-02  3.8495913E-02  1.6352215E-02
   9.20000  1.7752347E-02  4.2834242E-02  1.7406550E-02
   9.40000  1.8532252E-02  4.7453590E-02  1.8546484E-02
   9.60000  1.9317351E-02  5.2156480E-02  1.9769332E-02
   9.80000  2.0123001E-02  5.6649718E-02  2.1068130E-02
   10.0000  2.0964250E-02  6.0568683E-02  2.2430790E-02
   10.2500  2.2079302E-02  6.4092981E-02  2.4196620E-02
   10.5000  2.3257660E-02  6.5593622E-02  2.5989282E-02
   10.7500  2.4459119E-02  6.4935882E-02  2.7756743E-02
   11.0000  2.5615813E-02  6.2431810E-02  2.9447322E-02
   11.2500  2.6653122E-02  5.8671649E-02  3.1016969E-02
   11.5000  2.7516004E-02  5.4288632E-02  3.2434227E-02
   11.7500  2.8186699E-02  4.9793347E-02  3.3681490E-02
   12.0000  2.8686716E-02  4.5517725E-02  3.4753850E-02
   12.2500  2.9066184E-02  4.1635172E-02  3.5657113E-02
   12.5000  2.9387247E-02  3.8208145E-02  3.6405018E-02
   12.7500  2.9709337E-02  3.5233234E-02  3.7016304E-02
   13.0000  3.0080617E-02  3.2674059E-02  3.7512597E-02
   13.2500  3.0534784E-02  3.0482627E-02  3.7917342E-02
   13.5000  3.1091129E-02  2.8611366E-02  3.8254671E-02
   13.7500  3.1756443E-02  2.7017771E-02  3.8547180E-02
   14.0000  3.2527463E-02  2.5665057E-02  3.8813442E-02
   14.2500  3.3392922E-02  2.4521645E-02  3.9066414E-02
   14.5000  3.4335064E-02  2.3560520E-02  3.9312923E-02
   14.7500  3.5330774E-02  2.2758634E-02  3.9553972E-02
   15.0000  3.6352554E-02  2.2096369E-02  3.9785597E-02
   15.2500  3.7369568E-02  2.1557055E-02  4.0000052E-02
   15.5000  3.8348873E-02  2.1126546E-02  4.0187170E-02
   15.7500  3.9256956E-02  2.0792827E-02  4.0335760E-02
   16.0000  4.0061586E-02  2.0545663E-02  4.0434957E-02
   16.2500  4.0733947E-02  2.0376287E-02  4.0475406E-02
   16.5000  4.1250882E-02  2.0277127E-02  4.0450199E-02
   16.7500  4.1597006E-02  2.0241573E-02  4.0355498E-02
   17.0000  4.1766363E-02  2.0263788E-02  4.0190792E-02
   17.2500  4.1763281E-02  2.0338559E-02  3.9958819E-02
   17.5000  4.1602187E-02  2.0461180E-02  3.9665192E-02
   17.7500  4.1306312E-02  2.0627377E-02  3.9317816E-02
   18.0000  4.0905440E-02  2.0833251E-02  3.8926192E-02
   18.2500  4.0433041E-02  2.1075248E-02  3.8500690E-02
   18.5000  3.9923272E-02  2.1350133E-02  3.8051886E-02
   18.7500  3.9408260E-02  2.1654991E-02  3.7589984E-02
   19.0000  3.8916006E-02  2.1987234E-02  3.7124355E-02
   19.2500  3.8469033E-02  2.2344627E-02  3.6663177E-02
   19.5000  3.8083764E-02  2.2725321E-02  3.6213174E-02
   19.7500  3.7770507E-02  2.3127826E-02  3.5779498E-02
   20.0000  3.7533930E-02  2.3550794E-02  3.5365860E-02
   21.0000  3.7306408E-02  2.5407132E-02  3.3958372E-02
   22.0000  3.7867660E-02  2.7411260E-02  3.2971855E-02
   23.0000  3.8538088E-02  2.9393046E-02  3.2294239E-02
   24.0000  3.8623730E-02  3.1149198E-02  3.1733971E-02
   25.0000  3.7664330E-02  3.2498093E-02  3.1129791E-02
   26.0000  3.5677480E-02  3.3345054E-02  3.0433381E-02
   27.0000  3.3132971E-02  3.3694213E-02  2.9706224E-02
   28.0000  3.0614534E-02  3.3620457E-02  2.9044936E-02
   29.0000  2.8506137E-02  3.3230112E-02  2.8514093E-02
   30.0000  2.6904565E-02  3.2616436E-02  2.8119084E-02
   31.0000  2.5749522E-02  3.1850206E-02  2.7834318E-02
   32.0000  2.4940284E-02  3.0982761E-02  2.7626752E-02
   33.0000  2.4380818E-02  3.0047797E-02  2.7460248E-02
   34.0000  2.3992376E-02  2.9065530E-02  2.7295518E-02
   35.0000  2.3712687E-02  2.8048850E-02  2.7091780E-02
   36.0000  2.3491121E-02  2.7010394E-02  2.6812357E-02
   37.0000  2.3285358E-02  2.5969907E-02  2.6434386E-02
   38.0000  2.3064864E-02  2.4962478E-02  2.5962177E-02
   39.0000  2.2824746E-02  2.4048047E-02  2.5443749E-02
   40.0000  2.2598191E-02  2.3310590E-02  2.4976260E-02
