 FDMNES
  energy    <xanes>
   7695.00    5.301202e-04
   7695.29    5.357283e-04
   7695.58    5.413364e-04
   7695.87    5.469444e-04
   7696.16    5.527614e-04
   7696.44    5.587573e-04
   7696.73    5.647532e-04
   7697.02    5.707821e-04
   7697.31    5.772064e-04
   7697.60    5.836307e-04
   7697.89    5.900550e-04
   7698.18    5.967714e-04
   7698.47    6.036704e-04
   7698.76    6.105694e-04
   7699.04    6.175496e-04
   7699.33    6.249765e-04
   7699.62    6.324034e-04
   7699.91    6.398302e-04
   7700.20    6.476650e-04
   7700.49    6.556810e-04
   7700.78    6.636970e-04
   7701.07    6.718653e-04
   7701.36    6.805415e-04
   7701.64    6.892177e-04
   7701.93    6.978939e-04
   7702.22    7.071417e-04
   7702.51    7.165608e-04
   7702.80    7.259800e-04
   7703.09    7.356577e-04
   7703.38    7.459169e-04
   7703.67    7.561761e-04
   7703.96    7.664353e-04
   7704.24    7.775023e-04
   7704.53    7.887161e-04
   7704.82    7.999299e-04
   7705.11    8.115632e-04
   7705.40    8.238677e-04
   7705.69    8.361722e-04
   7705.98    8.484768e-04
   7706.27    8.619385e-04
   7706.56    8.754968e-04
   7706.84    8.890550e-04
   7707.13    9.032827e-04
   7707.42    9.182915e-04
   7707.71    9.333003e-04
   7708.00    9.483091e-04
   7708.29    9.650084e-04
   7708.58    9.817077e-04
   7708.87    9.984070e-04
   7709.16    1.016176e-03
   7709.44    1.034861e-03
   7709.73    1.053547e-03
   7710.02    1.072413e-03
   7710.31    1.093453e-03
   7710.60    1.114492e-03
   7710.89    1.135532e-03
   7711.18    1.158306e-03
   7711.47    1.182165e-03
   7711.76    1.206024e-03
   7712.04    1.230408e-03
   7712.33    1.257681e-03
   7712.62    1.284954e-03
   7712.91    1.312226e-03
   7713.20    1.342400e-03
   7713.49    1.373862e-03
   7713.78    1.405325e-03
   7714.07    1.437992e-03
   7714.36    1.474674e-03
   7714.64    1.511356e-03
   7714.93    1.548038e-03
   7715.22    1.589811e-03
   7715.51    1.633112e-03
   7715.80    1.676413e-03
   7716.09    1.722353e-03
   7716.38    1.774228e-03
   7716.67    1.826103e-03
   7716.96    1.877979e-03
   7717.24    1.939500e-03
   7717.53    2.002775e-03
   7717.82    2.066049e-03
   7718.11    2.135346e-03
   7718.40    2.214279e-03
   7718.69    2.293211e-03
   7718.98    2.372144e-03
   7719.27    2.471792e-03
   7719.56    2.573166e-03
   7719.84    2.674541e-03
   7720.13    2.791657e-03
   7720.42    2.927138e-03
   7720.71    3.062619e-03
   7721.00    3.198100e-03
   7721.29    3.390122e-03
   7721.58    3.582144e-03
   7721.87    3.774166e-03
   7722.16    4.024479e-03
   7722.44    4.324756e-03
   7722.73    4.625034e-03
   7723.02    4.946311e-03
   7723.31    5.519585e-03
   7723.60    6.092858e-03
   7723.89    6.666132e-03
   7724.18    7.847076e-03
   7724.47    9.407814e-03
   7724.76    1.096855e-02
   7725.04    1.266273e-02
   7725.33    1.509229e-02
   7725.62    1.748472e-02
   7725.91    1.989381e-02
   7726.20    2.243657e-02
   7726.49    2.521960e-02
   7726.78    2.820278e-02
   7727.07    3.143775e-02
   7727.36    3.499901e-02
   7727.64    3.913270e-02
   7727.93    4.410986e-02
   7728.22    5.009884e-02
   7728.51    5.730126e-02
   7728.80    6.545245e-02
   7729.09    7.440215e-02
   7729.38    8.352110e-02
   7729.67    9.218351e-02
   7729.96    9.986262e-02
   7730.24    1.060585e-01
   7730.53    1.102678e-01
   7730.82    1.125556e-01
   7731.11    1.131879e-01
   7731.40    1.125926e-01
   7731.69    1.112547e-01
   7731.98    1.095939e-01
   7732.27    1.079130e-01
   7732.56    1.063964e-01
   7732.84    1.051021e-01
   7733.13    1.040417e-01
   7733.42    1.032043e-01
   7733.71    1.025703e-01
   7734.00    1.021178e-01
   7734.29    1.018397e-01
   7734.58    1.016896e-01
   7734.87    1.016384e-01
   7735.16    1.016535e-01
   7735.44    1.017007e-01
   7735.73    1.017455e-01
   7736.02    1.017512e-01
   7736.31    1.016869e-01
   7736.60    1.015343e-01
   7736.89    1.012816e-01
   7737.18    1.009264e-01
   7737.47    1.004760e-01
   7737.76    9.994531e-02
   7738.04    9.935662e-02
   7738.33    9.874640e-02
   7738.62    9.814474e-02
   7738.91    9.758051e-02
   7739.20    9.707928e-02
   7739.49    9.666174e-02
   7739.78    9.635183e-02
   7740.07    9.618488e-02
   7740.36    9.619824e-02
   7740.64    9.621160e-02
   7740.93    9.622495e-02
   7741.22    9.646597e-02
   7741.51    9.677529e-02
   7741.80    9.708460e-02
   7742.09    9.742596e-02
   7742.38    9.783943e-02
   7742.67    9.825291e-02
   7742.96    9.866638e-02
   7743.24    9.898254e-02
   7743.53    9.928101e-02
   7743.82    9.957948e-02
   7744.11    9.977055e-02
   7744.40    9.978978e-02
   7744.69    9.980900e-02
   7744.98    9.982823e-02
   7745.27    9.953502e-02
   7745.56    9.921578e-02
   7745.84    9.889653e-02
   7746.13    9.844351e-02
   7746.42    9.783440e-02
   7746.71    9.722530e-02
   7747.00    9.661620e-02
   7747.29    9.583502e-02
   7747.58    9.505385e-02
   7747.87    9.427268e-02
   7748.16    9.346898e-02
   7748.44    9.264596e-02
   7748.73    9.182295e-02
   7749.02    9.100433e-02
   7749.31    9.023848e-02
   7749.60    8.947262e-02
   7749.89    8.870677e-02
   7750.18    8.800650e-02
   7750.47    8.734722e-02
   7750.76    8.668794e-02
   7751.04    8.604509e-02
   7751.33    8.549255e-02
   7751.62    8.494002e-02
   7751.91    8.438748e-02
   7752.20    8.389086e-02
   7752.49    8.341909e-02
   7752.78    8.294732e-02
   7753.07    8.248667e-02
   7753.36    8.206310e-02
   7753.64    8.163953e-02
   7753.93    8.121595e-02
   7754.22    8.080625e-02
   7754.51    8.040072e-02
   7754.80    7.999518e-02
   7755.09    7.958821e-02
   7755.38    7.917800e-02
   7755.67    7.876779e-02
   7755.96    7.835759e-02
   7756.24    7.793411e-02
   7756.53    7.750821e-02
   7756.82    7.708231e-02
   7757.11    7.665257e-02
   7757.40    7.621668e-02
   7757.69    7.578079e-02
   7757.98    7.534491e-02
   7758.27    7.492566e-02
   7758.56    7.450780e-02
   7758.84    7.408994e-02
   7759.13    7.370320e-02
   7759.42    7.335278e-02
   7759.71    7.300236e-02
   7760.00    7.265193e-02
