 FDMNES
  energy    <xanes>
   7695.00    5.413443e-04
   7695.29    5.469709e-04
   7695.58    5.525975e-04
   7695.87    5.582240e-04
   7696.16    5.640573e-04
   7696.44    5.700678e-04
   7696.73    5.760783e-04
   7697.02    5.821213e-04
   7697.31    5.885554e-04
   7697.60    5.949895e-04
   7697.89    6.014236e-04
   7698.18    6.081463e-04
   7698.47    6.150493e-04
   7698.76    6.219523e-04
   7699.04    6.289355e-04
   7699.33    6.363595e-04
   7699.62    6.437835e-04
   7699.91    6.512075e-04
   7700.20    6.590336e-04
   7700.49    6.670384e-04
   7700.78    6.750432e-04
   7701.07    6.831980e-04
   7701.36    6.918530e-04
   7701.64    7.005079e-04
   7701.93    7.091629e-04
   7702.22    7.183801e-04
   7702.51    7.277659e-04
   7702.80    7.371517e-04
   7703.09    7.467916e-04
   7703.38    7.570028e-04
   7703.67    7.672141e-04
   7703.96    7.774254e-04
   7704.24    7.884295e-04
   7704.53    7.995777e-04
   7704.82    8.107259e-04
   7705.11    8.222853e-04
   7705.40    8.345028e-04
   7705.69    8.467203e-04
   7705.98    8.589377e-04
   7706.27    8.722884e-04
   7706.56    8.857335e-04
   7706.84    8.991785e-04
   7707.13    9.132784e-04
   7707.42    9.281422e-04
   7707.71    9.430060e-04
   7708.00    9.578697e-04
   7708.29    9.743849e-04
   7708.58    9.909002e-04
   7708.87    1.007415e-03
   7709.16    1.024974e-03
   7709.44    1.043427e-03
   7709.73    1.061880e-03
   7710.02    1.080510e-03
   7710.31    1.101258e-03
   7710.60    1.122005e-03
   7710.89    1.142753e-03
   7711.18    1.165190e-03
   7711.47    1.188682e-03
   7711.76    1.212175e-03
   7712.04    1.236178e-03
   7712.33    1.262992e-03
   7712.62    1.289806e-03
   7712.91    1.316619e-03
   7713.20    1.346252e-03
   7713.49    1.377139e-03
   7713.78    1.408025e-03
   7714.07    1.440081e-03
   7714.36    1.476038e-03
   7714.64    1.511995e-03
   7714.93    1.547953e-03
   7715.22    1.588856e-03
   7715.51    1.631244e-03
   7715.80    1.673632e-03
   7716.09    1.718584e-03
   7716.38    1.769306e-03
   7716.67    1.820028e-03
   7716.96    1.870751e-03
   7717.24    1.930862e-03
   7717.53    1.992681e-03
   7717.82    2.054499e-03
   7718.11    2.122197e-03
   7718.40    2.199300e-03
   7718.69    2.276403e-03
   7718.98    2.353506e-03
   7719.27    2.450932e-03
   7719.56    2.550052e-03
   7719.84    2.649171e-03
   7720.13    2.763864e-03
   7720.42    2.896724e-03
   7720.71    3.029585e-03
   7721.00    3.162446e-03
   7721.29    3.352025e-03
   7721.58    3.541604e-03
   7721.87    3.731183e-03
   7722.16    3.980574e-03
   7722.44    4.281232e-03
   7722.73    4.581890e-03
   7723.02    4.904836e-03
   7723.31    5.495242e-03
   7723.60    6.085648e-03
   7723.89    6.676054e-03
   7724.18    7.939463e-03
   7724.47    9.623498e-03
   7724.76    1.130753e-02
   7725.04    1.314978e-02
   7725.33    1.588057e-02
   7725.62    1.856771e-02
   7725.91    2.108581e-02
   7726.20    2.343490e-02
   7726.49    2.564268e-02
   7726.78    2.789298e-02
   7727.07    3.042787e-02
   7727.36    3.339863e-02
   7727.64    3.696353e-02
   7727.93    4.121433e-02
   7728.22    4.618312e-02
   7728.51    5.200368e-02
   7728.80    5.856348e-02
   7729.09    6.596432e-02
   7729.38    7.388016e-02
   7729.67    8.203396e-02
   7729.96    8.992223e-02
   7730.24    9.695008e-02
   7730.53    1.023549e-01
   7730.82    1.058267e-01
   7731.11    1.073800e-01
   7731.40    1.073437e-01
   7731.69    1.062440e-01
   7731.98    1.046167e-01
   7732.27    1.028789e-01
   7732.56    1.012938e-01
   7732.84    9.995128e-02
   7733.13    9.886957e-02
   7733.42    9.803521e-02
   7733.71    9.742434e-02
   7734.00    9.701279e-02
   7734.29    9.680152e-02
   7734.58    9.676103e-02
   7734.87    9.689551e-02
   7735.16    9.721397e-02
   7735.44    9.772253e-02
   7735.73    9.841806e-02
   7736.02    9.929333e-02
   7736.31    1.003059e-01
   7736.60    1.013957e-01
   7736.89    1.024993e-01
   7737.18    1.035478e-01
   7737.47    1.044737e-01
   7737.76    1.052162e-01
   7738.04    1.057150e-01
   7738.33    1.059788e-01
   7738.62    1.060186e-01
   7738.91    1.058639e-01
   7739.20    1.055556e-01
   7739.49    1.051400e-01
   7739.78    1.046603e-01
   7740.07    1.041785e-01
   7740.36    1.037515e-01
   7740.64    1.033246e-01
   7740.93    1.028976e-01
   7741.22    1.026707e-01
   7741.51    1.025038e-01
   7741.80    1.023370e-01
   7742.09    1.022474e-01
   7742.38    1.023317e-01
   7742.67    1.024160e-01
   7742.96    1.025003e-01
   7743.24    1.026739e-01
   7743.53    1.028638e-01
   7743.82    1.030536e-01
   7744.11    1.032049e-01
   7744.40    1.032948e-01
   7744.69    1.033846e-01
   7744.98    1.034744e-01
   7745.27    1.032918e-01
   7745.56    1.030865e-01
   7745.84    1.028812e-01
   7746.13    1.024997e-01
   7746.42    1.019128e-01
   7746.71    1.013258e-01
   7747.00    1.007389e-01
   7747.29    9.985981e-02
   7747.58    9.898073e-02
   7747.87    9.810164e-02
   7748.16    9.717557e-02
   7748.44    9.620922e-02
   7748.73    9.524287e-02
   7749.02    9.428250e-02
   7749.31    9.339387e-02
   7749.60    9.250523e-02
   7749.89    9.161660e-02
   7750.18    9.082101e-02
   7750.47    9.008357e-02
   7750.76    8.934614e-02
   7751.04    8.863263e-02
   7751.33    8.805075e-02
   7751.62    8.746887e-02
   7751.91    8.688699e-02
   7752.20    8.639003e-02
   7752.49    8.593082e-02
   7752.78    8.547161e-02
   7753.07    8.503036e-02
   7753.36    8.464902e-02
   7753.64    8.426768e-02
   7753.93    8.388634e-02
   7754.22    8.353247e-02
   7754.51    8.318685e-02
   7754.80    8.284122e-02
   7755.09    8.249644e-02
   7755.38    8.215355e-02
   7755.67    8.181066e-02
   7755.96    8.146776e-02
   7756.24    8.110955e-02
   7756.53    8.074856e-02
   7756.82    8.038757e-02
   7757.11    8.001786e-02
   7757.40    7.963423e-02
   7757.69    7.925059e-02
   7757.98    7.886695e-02
   7758.27    7.848134e-02
   7758.56    7.809556e-02
   7758.84    7.770978e-02
   7759.13    7.734685e-02
   7759.42    7.701057e-02
   7759.71    7.667430e-02
   7760.00    7.633803e-02
