 FDMNES
  energy    <xanes>
   7695.00    5.301563e-04
   7695.29    5.358626e-04
   7695.58    5.415689e-04
   7695.87    5.472752e-04
   7696.16    5.531974e-04
   7696.44    5.593046e-04
   7696.73    5.654119e-04
   7697.02    5.715532e-04
   7697.31    5.781039e-04
   7697.60    5.846547e-04
   7697.89    5.912054e-04
   7698.18    5.980589e-04
   7698.47    6.051018e-04
   7698.76    6.121446e-04
   7699.04    6.192718e-04
   7699.33    6.268627e-04
   7699.62    6.344536e-04
   7699.91    6.420445e-04
   7700.20    6.500596e-04
   7700.49    6.582632e-04
   7700.78    6.664669e-04
   7701.07    6.748292e-04
   7701.36    6.837206e-04
   7701.64    6.926120e-04
   7701.93    7.015034e-04
   7702.22    7.109912e-04
   7702.51    7.206580e-04
   7702.80    7.303248e-04
   7703.09    7.402618e-04
   7703.38    7.508070e-04
   7703.67    7.613522e-04
   7703.96    7.718973e-04
   7704.24    7.832888e-04
   7704.53    7.948341e-04
   7704.82    8.063795e-04
   7705.11    8.183653e-04
   7705.40    8.310559e-04
   7705.69    8.437465e-04
   7705.98    8.564371e-04
   7706.27    8.703457e-04
   7706.56    8.843557e-04
   7706.84    8.983658e-04
   7707.13    9.130822e-04
   7707.42    9.286226e-04
   7707.71    9.441630e-04
   7708.00    9.597034e-04
   7708.29    9.770321e-04
   7708.58    9.943608e-04
   7708.87    1.011689e-03
   7709.16    1.030152e-03
   7709.44    1.049588e-03
   7709.73    1.069023e-03
   7710.02    1.088651e-03
   7710.31    1.110592e-03
   7710.60    1.132532e-03
   7710.89    1.154472e-03
   7711.18    1.178264e-03
   7711.47    1.203214e-03
   7711.76    1.228163e-03
   7712.04    1.253675e-03
   7712.33    1.282282e-03
   7712.62    1.310889e-03
   7712.91    1.339495e-03
   7713.20    1.371220e-03
   7713.49    1.404332e-03
   7713.78    1.437443e-03
   7714.07    1.471855e-03
   7714.36    1.510601e-03
   7714.64    1.549347e-03
   7714.93    1.588093e-03
   7715.22    1.632360e-03
   7715.51    1.678283e-03
   7715.80    1.724205e-03
   7716.09    1.773002e-03
   7716.38    1.828266e-03
   7716.67    1.883529e-03
   7716.96    1.938792e-03
   7717.24    2.004614e-03
   7717.53    2.072356e-03
   7717.82    2.140098e-03
   7718.11    2.214466e-03
   7718.40    2.299434e-03
   7718.69    2.384402e-03
   7718.98    2.469371e-03
   7719.27    2.577241e-03
   7719.56    2.687020e-03
   7719.84    2.796799e-03
   7720.13    2.924050e-03
   7720.42    3.071686e-03
   7720.71    3.219322e-03
   7721.00    3.366957e-03
   7721.29    3.577449e-03
   7721.58    3.787941e-03
   7721.87    3.998433e-03
   7722.16    4.273440e-03
   7722.44    4.603745e-03
   7722.73    4.934051e-03
   7723.02    5.287193e-03
   7723.31    5.914381e-03
   7723.60    6.541568e-03
   7723.89    7.168755e-03
   7724.18    8.437870e-03
   7724.47    1.010819e-02
   7724.76    1.177851e-02
   7725.04    1.359134e-02
   7725.33    1.621261e-02
   7725.62    1.889563e-02
   7725.91    2.176627e-02
   7726.20    2.496127e-02
   7726.49    2.870902e-02
   7726.78    3.297498e-02
   7727.07    3.786398e-02
   7727.36    4.327605e-02
   7727.64    4.916488e-02
   7727.93    5.545840e-02
   7728.22    6.209918e-02
   7728.51    6.913931e-02
   7728.80    7.655612e-02
   7729.09    8.445129e-02
   7729.38    9.263830e-02
   7729.67    1.008079e-01
   7729.96    1.084167e-01
   7730.24    1.147956e-01
   7730.53    1.191893e-01
   7730.82    1.214792e-01
   7731.11    1.218522e-01
   7731.40    1.206985e-01
   7731.69    1.184860e-01
   7731.98    1.156502e-01
   7732.27    1.125483e-01
   7732.56    1.094797e-01
   7732.84    1.066339e-01
   7733.13    1.041249e-01
   7733.42    1.020160e-01
   7733.71    1.003309e-01
   7734.00    9.906634e-02
   7734.29    9.824444e-02
   7734.58    9.777754e-02
   7734.87    9.761791e-02
   7735.16    9.771052e-02
   7735.44    9.799488e-02
   7735.73    9.840676e-02
   7736.02    9.887962e-02
   7736.31    9.933844e-02
   7736.60    9.972287e-02
   7736.89    9.998615e-02
   7737.18    1.000967e-01
   7737.47    1.000404e-01
   7737.76    9.981905e-02
   7738.04    9.944426e-02
   7738.33    9.896606e-02
   7738.62    9.842304e-02
   7738.91    9.785401e-02
   7739.20    9.729426e-02
   7739.49    9.677299e-02
   7739.78    9.631817e-02
   7740.07    9.596537e-02
   7740.36    9.574822e-02
   7740.64    9.553107e-02
   7740.93    9.531392e-02
   7741.22    9.527269e-02
   7741.51    9.528425e-02
   7741.80    9.529580e-02
   7742.09    9.533055e-02
   7742.38    9.541750e-02
   7742.67    9.550444e-02
   7742.96    9.559138e-02
   7743.24    9.561033e-02
   7743.53    9.561691e-02
   7743.82    9.562349e-02
   7744.11    9.556429e-02
   7744.40    9.539985e-02
   7744.69    9.523541e-02
   7744.98    9.507097e-02
   7745.27    9.473581e-02
   7745.56    9.438643e-02
   7745.84    9.403704e-02
   7746.13    9.361587e-02
   7746.42    9.311095e-02
   7746.71    9.260604e-02
   7747.00    9.210112e-02
   7747.29    9.149177e-02
   7747.58    9.088242e-02
   7747.87    9.027307e-02
   7748.16    8.964247e-02
   7748.44    8.899368e-02
   7748.73    8.834488e-02
   7749.02    8.769800e-02
   7749.31    8.707413e-02
   7749.60    8.645026e-02
   7749.89    8.582639e-02
   7750.18    8.524466e-02
   7750.47    8.468925e-02
   7750.76    8.413385e-02
   7751.04    8.359086e-02
   7751.33    8.311610e-02
   7751.62    8.264133e-02
   7751.91    8.216657e-02
   7752.20    8.173761e-02
   7752.49    8.132900e-02
   7752.78    8.092039e-02
   7753.07    8.052037e-02
   7753.36    8.014898e-02
   7753.64    7.977759e-02
   7753.93    7.940619e-02
   7754.22    7.903922e-02
   7754.51    7.867357e-02
   7754.80    7.830792e-02
   7755.09    7.793631e-02
   7755.38    7.755132e-02
   7755.67    7.716632e-02
   7755.96    7.678133e-02
   7756.24    7.636991e-02
   7756.53    7.595368e-02
   7756.82    7.553746e-02
   7757.11    7.511214e-02
   7757.40    7.467226e-02
   7757.69    7.423239e-02
   7757.98    7.379251e-02
   7758.27    7.336126e-02
   7758.56    7.293073e-02
   7758.84    7.250020e-02
   7759.13    7.210013e-02
   7759.42    7.173560e-02
   7759.71    7.137107e-02
   7760.00    7.100654e-02
