 FDMNES
  energy    <xanes>
   7695.00    5.259998e-04
   7695.29    5.317087e-04
   7695.58    5.374175e-04
   7695.87    5.431264e-04
   7696.16    5.490520e-04
   7696.44    5.551633e-04
   7696.73    5.612746e-04
   7697.02    5.674202e-04
   7697.31    5.739766e-04
   7697.60    5.805331e-04
   7697.89    5.870895e-04
   7698.18    5.939500e-04
   7698.47    6.010005e-04
   7698.76    6.080510e-04
   7699.04    6.151861e-04
   7699.33    6.227868e-04
   7699.62    6.303876e-04
   7699.91    6.379883e-04
   7700.20    6.460150e-04
   7700.49    6.542309e-04
   7700.78    6.624468e-04
   7701.07    6.708221e-04
   7701.36    6.797287e-04
   7701.64    6.886352e-04
   7701.93    6.975417e-04
   7702.22    7.070473e-04
   7702.51    7.167325e-04
   7702.80    7.264177e-04
   7703.09    7.363744e-04
   7703.38    7.469418e-04
   7703.67    7.575093e-04
   7703.96    7.680767e-04
   7704.24    7.794942e-04
   7704.53    7.910662e-04
   7704.82    8.026383e-04
   7705.11    8.146528e-04
   7705.40    8.273753e-04
   7705.69    8.400978e-04
   7705.98    8.528203e-04
   7706.27    8.667665e-04
   7706.56    8.808146e-04
   7706.84    8.948628e-04
   7707.13    9.096206e-04
   7707.42    9.252065e-04
   7707.71    9.407924e-04
   7708.00    9.563783e-04
   7708.29    9.737613e-04
   7708.58    9.911443e-04
   7708.87    1.008527e-03
   7709.16    1.027051e-03
   7709.44    1.046551e-03
   7709.73    1.066052e-03
   7710.02    1.085747e-03
   7710.31    1.107766e-03
   7710.60    1.129785e-03
   7710.89    1.151804e-03
   7711.18    1.175686e-03
   7711.47    1.200732e-03
   7711.76    1.225777e-03
   7712.04    1.251389e-03
   7712.33    1.280114e-03
   7712.62    1.308840e-03
   7712.91    1.337565e-03
   7713.20    1.369430e-03
   7713.49    1.402690e-03
   7713.78    1.435950e-03
   7714.07    1.470520e-03
   7714.36    1.509456e-03
   7714.64    1.548391e-03
   7714.93    1.587327e-03
   7715.22    1.631829e-03
   7715.51    1.678001e-03
   7715.80    1.724173e-03
   7716.09    1.773245e-03
   7716.38    1.828844e-03
   7716.67    1.884443e-03
   7716.96    1.940042e-03
   7717.24    2.006314e-03
   7717.53    2.074527e-03
   7717.82    2.142740e-03
   7718.11    2.217664e-03
   7718.40    2.303325e-03
   7718.69    2.388985e-03
   7718.98    2.474646e-03
   7719.27    2.583564e-03
   7719.56    2.694420e-03
   7719.84    2.805276e-03
   7720.13    2.933937e-03
   7720.42    3.083368e-03
   7720.71    3.232800e-03
   7721.00    3.382232e-03
   7721.29    3.595977e-03
   7721.58    3.809722e-03
   7721.87    4.023467e-03
   7722.16    4.303459e-03
   7722.44    4.640233e-03
   7722.73    4.977008e-03
   7723.02    5.337167e-03
   7723.31    5.977941e-03
   7723.60    6.618715e-03
   7723.89    7.259489e-03
   7724.18    8.565031e-03
   7724.47    1.028605e-02
   7724.76    1.200708e-02
   7725.04    1.390091e-02
   7725.33    1.683746e-02
   7725.62    1.999536e-02
   7725.91    2.335268e-02
   7726.20    2.687077e-02
   7726.49    3.055434e-02
   7726.78    3.437967e-02
   7727.07    3.849912e-02
   7727.36    4.309967e-02
   7727.64    4.849695e-02
   7727.93    5.494102e-02
   7728.22    6.250139e-02
   7728.51    7.119051e-02
   7728.80    8.045998e-02
   7729.09    8.953489e-02
   7729.38    9.756029e-02
   7729.67    1.035244e-01
   7729.96    1.073159e-01
   7730.24    1.090763e-01
   7730.53    1.092500e-01
   7730.82    1.086214e-01
   7731.11    1.077261e-01
   7731.40    1.069111e-01
   7731.69    1.063651e-01
   7731.98    1.061507e-01
   7732.27    1.062522e-01
   7732.56    1.065718e-01
   7732.84    1.069773e-01
   7733.13    1.073649e-01
   7733.42    1.076555e-01
   7733.71    1.078029e-01
   7734.00    1.077905e-01
   7734.29    1.076051e-01
   7734.58    1.072815e-01
   7734.87    1.068383e-01
   7735.16    1.062939e-01
   7735.44    1.056654e-01
   7735.73    1.049669e-01
   7736.02    1.042060e-01
   7736.31    1.033932e-01
   7736.60    1.025381e-01
   7736.89    1.016483e-01
   7737.18    1.007334e-01
   7737.47    9.980677e-02
   7737.76    9.888638e-02
   7738.04    9.799871e-02
   7738.33    9.716689e-02
   7738.62    9.641514e-02
   7738.91    9.576580e-02
   7739.20    9.523762e-02
   7739.49    9.484445e-02
   7739.78    9.460684e-02
   7740.07    9.455837e-02
   7740.36    9.473754e-02
   7740.64    9.491671e-02
   7740.93    9.509588e-02
   7741.22    9.554554e-02
   7741.51    9.607635e-02
   7741.80    9.660716e-02
   7742.09    9.717299e-02
   7742.38    9.781760e-02
   7742.67    9.846222e-02
   7742.96    9.910684e-02
   7743.24    9.960681e-02
   7743.53    1.000805e-01
   7743.82    1.005542e-01
   7744.11    1.008647e-01
   7744.40    1.009142e-01
   7744.69    1.009637e-01
   7744.98    1.010132e-01
   7745.27    1.005760e-01
   7745.56    1.000984e-01
   7745.84    9.962068e-02
   7746.13    9.895079e-02
   7746.42    9.805667e-02
   7746.71    9.716255e-02
   7747.00    9.626842e-02
   7747.29    9.518504e-02
   7747.58    9.410167e-02
   7747.87    9.301829e-02
   7748.16    9.194901e-02
   7748.44    9.089183e-02
   7748.73    8.983464e-02
   7749.02    8.878960e-02
   7749.31    8.789037e-02
   7749.60    8.699113e-02
   7749.89    8.609190e-02
   7750.18    8.531564e-02
   7750.47    8.461625e-02
   7750.76    8.391686e-02
   7751.04    8.324493e-02
   7751.33    8.272404e-02
   7751.62    8.220314e-02
   7751.91    8.168225e-02
   7752.20    8.124586e-02
   7752.49    8.084704e-02
   7752.78    8.044821e-02
   7753.07    8.006163e-02
   7753.36    7.971586e-02
   7753.64    7.937009e-02
   7753.93    7.902432e-02
   7754.22    7.867054e-02
   7754.51    7.831436e-02
   7754.80    7.795818e-02
   7755.09    7.758524e-02
   7755.38    7.717459e-02
   7755.67    7.676394e-02
   7755.96    7.635328e-02
   7756.24    7.588320e-02
   7756.53    7.540231e-02
   7756.82    7.492143e-02
   7757.11    7.442009e-02
   7757.40    7.388604e-02
   7757.69    7.335199e-02
   7757.98    7.281794e-02
   7758.27    7.228265e-02
   7758.56    7.174725e-02
   7758.84    7.121185e-02
   7759.13    7.071256e-02
   7759.42    7.025540e-02
   7759.71    6.979824e-02
   7760.00    6.934107e-02
