 FDMNES
  energy    <xanes>
   7695.00    5.445752e-04
   7695.29    5.504795e-04
   7695.58    5.563838e-04
   7695.87    5.622881e-04
   7696.16    5.684189e-04
   7696.44    5.747440e-04
   7696.73    5.810691e-04
   7697.02    5.874300e-04
   7697.31    5.942213e-04
   7697.60    6.010125e-04
   7697.89    6.078038e-04
   7698.18    6.149139e-04
   7698.47    6.222234e-04
   7698.76    6.295329e-04
   7699.04    6.369314e-04
   7699.33    6.448191e-04
   7699.62    6.527068e-04
   7699.91    6.605945e-04
   7700.20    6.689307e-04
   7700.49    6.774661e-04
   7700.78    6.860015e-04
   7701.07    6.947051e-04
   7701.36    7.039691e-04
   7701.64    7.132331e-04
   7701.93    7.224972e-04
   7702.22    7.323945e-04
   7702.51    7.424819e-04
   7702.80    7.525693e-04
   7703.09    7.629443e-04
   7703.38    7.739667e-04
   7703.67    7.849890e-04
   7703.96    7.960114e-04
   7704.24    8.079369e-04
   7704.53    8.200267e-04
   7704.82    8.321165e-04
   7705.11    8.446778e-04
   7705.40    8.579934e-04
   7705.69    8.713090e-04
   7705.98    8.846245e-04
   7706.27    8.992477e-04
   7706.56    9.139799e-04
   7706.84    9.287120e-04
   7707.13    9.442050e-04
   7707.42    9.605857e-04
   7707.71    9.769664e-04
   7708.00    9.933470e-04
   7708.29    1.011661e-03
   7708.58    1.029975e-03
   7708.87    1.048289e-03
   7709.16    1.067834e-03
   7709.44    1.088434e-03
   7709.73    1.109035e-03
   7710.02    1.129845e-03
   7710.31    1.153176e-03
   7710.60    1.176507e-03
   7710.89    1.199837e-03
   7711.18    1.225196e-03
   7711.47    1.251822e-03
   7711.76    1.278448e-03
   7712.04    1.305693e-03
   7712.33    1.336344e-03
   7712.62    1.366996e-03
   7712.91    1.397647e-03
   7713.20    1.431751e-03
   7713.49    1.467389e-03
   7713.78    1.503027e-03
   7714.07    1.540114e-03
   7714.36    1.582029e-03
   7714.64    1.623944e-03
   7714.93    1.665858e-03
   7715.22    1.713967e-03
   7715.51    1.763933e-03
   7715.80    1.813899e-03
   7716.09    1.867115e-03
   7716.38    1.927643e-03
   7716.67    1.988170e-03
   7716.96    2.048698e-03
   7717.24    2.121275e-03
   7717.53    2.196042e-03
   7717.82    2.270809e-03
   7718.11    2.353217e-03
   7718.40    2.447850e-03
   7718.69    2.542482e-03
   7718.98    2.637115e-03
   7719.27    2.758491e-03
   7719.56    2.882096e-03
   7719.84    3.005701e-03
   7720.13    3.150020e-03
   7720.42    3.318507e-03
   7720.71    3.486994e-03
   7721.00    3.655481e-03
   7721.29    3.899904e-03
   7721.58    4.144326e-03
   7721.87    4.388748e-03
   7722.16    4.712927e-03
   7722.44    5.105470e-03
   7722.73    5.498013e-03
   7723.02    5.919479e-03
   7723.31    6.688009e-03
   7723.60    7.456539e-03
   7723.89    8.225069e-03
   7724.18    9.843600e-03
   7724.47    1.199338e-02
   7724.76    1.414316e-02
   7725.04    1.651945e-02
   7725.33    2.025347e-02
   7725.62    2.417697e-02
   7725.91    2.804615e-02
   7726.20    3.179882e-02
   7726.49    3.564831e-02
   7726.78    3.990726e-02
   7727.07    4.498818e-02
   7727.36    5.094814e-02
   7727.64    5.761013e-02
   7727.93    6.443450e-02
   7728.22    7.104179e-02
   7728.51    7.764195e-02
   7728.80    8.472784e-02
   7729.09    9.281829e-02
   7729.38    1.017268e-01
   7729.67    1.112689e-01
   7729.96    1.208832e-01
   7730.24    1.298805e-01
   7730.53    1.372152e-01
   7730.82    1.421197e-01
   7731.11    1.441491e-01
   7731.40    1.433216e-01
   7731.69    1.401189e-01
   7731.98    1.352801e-01
   7732.27    1.295462e-01
   7732.56    1.235794e-01
   7732.84    1.177976e-01
   7733.13    1.124264e-01
   7733.42    1.075968e-01
   7733.71    1.033700e-01
   7734.00    9.975099e-02
   7734.29    9.676759e-02
   7734.58    9.428995e-02
   7734.87    9.225476e-02
   7735.16    9.059924e-02
   7735.44    8.926420e-02
   7735.73    8.819567e-02
   7736.02    8.735741e-02
   7736.31    8.669862e-02
   7736.60    8.617461e-02
   7736.89    8.575760e-02
   7737.18    8.542589e-02
   7737.47    8.516371e-02
   7737.76    8.496173e-02
   7738.04    8.481889e-02
   7738.33    8.472872e-02
   7738.62    8.469309e-02
   7738.91    8.471530e-02
   7739.20    8.479908e-02
   7739.49    8.494782e-02
   7739.78    8.516946e-02
   7740.07    8.547723e-02
   7740.36    8.588538e-02
   7740.64    8.629353e-02
   7740.93    8.670168e-02
   7741.22    8.720284e-02
   7741.51    8.773190e-02
   7741.80    8.826097e-02
   7742.09    8.877957e-02
   7742.38    8.927466e-02
   7742.67    8.976974e-02
   7742.96    9.026483e-02
   7743.24    9.062624e-02
   7743.53    9.096336e-02
   7743.82    9.130047e-02
   7744.11    9.155842e-02
   7744.40    9.168970e-02
   7744.69    9.182098e-02
   7744.98    9.195225e-02
   7745.27    9.188527e-02
   7745.56    9.180177e-02
   7745.84    9.171827e-02
   7746.13    9.154012e-02
   7746.42    9.125155e-02
   7746.71    9.096298e-02
   7747.00    9.067441e-02
   7747.29    9.022108e-02
   7747.58    8.976774e-02
   7747.87    8.931441e-02
   7748.16    8.881333e-02
   7748.44    8.827132e-02
   7748.73    8.772931e-02
   7749.02    8.718661e-02
   7749.31    8.663571e-02
   7749.60    8.608482e-02
   7749.89    8.553392e-02
   7750.18    8.500927e-02
   7750.47    8.450103e-02
   7750.76    8.399279e-02
   7751.04    8.349372e-02
   7751.33    8.304508e-02
   7751.62    8.259644e-02
   7751.91    8.214781e-02
   7752.20    8.173484e-02
   7752.49    8.133772e-02
   7752.78    8.094060e-02
   7753.07    8.055078e-02
   7753.36    8.018529e-02
   7753.64    7.981980e-02
   7753.93    7.945432e-02
   7754.22    7.909825e-02
   7754.51    7.874502e-02
   7754.80    7.839178e-02
   7755.09    7.803914e-02
   7755.38    7.768785e-02
   7755.67    7.733655e-02
   7755.96    7.698526e-02
   7756.24    7.663726e-02
   7756.53    7.628987e-02
   7756.82    7.594248e-02
   7757.11    7.560139e-02
   7757.40    7.527039e-02
   7757.69    7.493939e-02
   7757.98    7.460839e-02
   7758.27    7.431076e-02
   7758.56    7.401591e-02
   7758.84    7.372106e-02
   7759.13    7.345385e-02
   7759.42    7.321888e-02
   7759.71    7.298392e-02
   7760.00    7.274895e-02
