 FDMNES
  energy    <xanes>
   7695.00    5.526820e-04
   7695.29    5.586070e-04
   7695.58    5.645319e-04
   7695.87    5.704569e-04
   7696.16    5.766073e-04
   7696.44    5.829510e-04
   7696.73    5.892947e-04
   7697.02    5.956740e-04
   7697.31    6.024813e-04
   7697.60    6.092886e-04
   7697.89    6.160959e-04
   7698.18    6.232201e-04
   7698.47    6.305425e-04
   7698.76    6.378648e-04
   7699.04    6.452755e-04
   7699.33    6.531721e-04
   7699.62    6.610687e-04
   7699.91    6.689653e-04
   7700.20    6.773068e-04
   7700.49    6.858462e-04
   7700.78    6.943856e-04
   7701.07    7.030917e-04
   7701.36    7.123535e-04
   7701.64    7.216154e-04
   7701.93    7.308773e-04
   7702.22    7.407667e-04
   7702.51    7.508443e-04
   7702.80    7.609220e-04
   7703.09    7.712845e-04
   7703.38    7.822877e-04
   7703.67    7.932910e-04
   7703.96    8.042943e-04
   7704.24    8.161909e-04
   7704.53    8.282500e-04
   7704.82    8.403091e-04
   7705.11    8.528340e-04
   7705.40    8.661044e-04
   7705.69    8.793747e-04
   7705.98    8.926450e-04
   7706.27    9.072061e-04
   7706.56    9.218748e-04
   7706.84    9.365435e-04
   7707.13    9.519624e-04
   7707.42    9.682565e-04
   7707.71    9.845507e-04
   7708.00    1.000845e-03
   7708.29    1.019043e-03
   7708.58    1.037241e-03
   7708.87    1.055440e-03
   7709.16    1.074849e-03
   7709.44    1.095296e-03
   7709.73    1.115743e-03
   7710.02    1.136397e-03
   7710.31    1.159526e-03
   7710.60    1.182655e-03
   7710.89    1.205785e-03
   7711.18    1.230903e-03
   7711.47    1.257264e-03
   7711.76    1.283625e-03
   7712.04    1.310592e-03
   7712.33    1.340895e-03
   7712.62    1.371197e-03
   7712.91    1.401500e-03
   7713.20    1.435176e-03
   7713.49    1.470352e-03
   7713.78    1.505528e-03
   7714.07    1.542116e-03
   7714.36    1.583413e-03
   7714.64    1.624709e-03
   7714.93    1.666006e-03
   7715.22    1.713327e-03
   7715.51    1.762455e-03
   7715.80    1.811583e-03
   7716.09    1.863863e-03
   7716.38    1.923235e-03
   7716.67    1.982607e-03
   7716.96    2.041979e-03
   7717.24    2.112995e-03
   7717.53    2.186129e-03
   7717.82    2.259262e-03
   7718.11    2.339747e-03
   7718.40    2.431995e-03
   7718.69    2.524244e-03
   7718.98    2.616492e-03
   7719.27    2.734328e-03
   7719.56    2.854297e-03
   7719.84    2.974266e-03
   7720.13    3.113909e-03
   7720.42    3.276505e-03
   7720.71    3.439101e-03
   7721.00    3.601697e-03
   7721.29    3.835694e-03
   7721.58    4.069691e-03
   7721.87    4.303688e-03
   7722.16    4.611688e-03
   7722.44    4.983117e-03
   7722.73    5.354547e-03
   7723.02    5.752413e-03
   7723.31    6.467518e-03
   7723.60    7.182623e-03
   7723.89    7.897728e-03
   7724.18    9.369542e-03
   7724.47    1.131430e-02
   7724.76    1.325906e-02
   7725.04    1.538463e-02
   7725.33    1.855082e-02
   7725.62    2.178480e-02
   7725.91    2.510582e-02
   7726.20    2.864744e-02
   7726.49    3.268126e-02
   7726.78    3.726996e-02
   7727.07    4.262985e-02
   7727.36    4.872512e-02
   7727.64    5.556728e-02
   7727.93    6.306944e-02
   7728.22    7.104924e-02
   7728.51    7.935742e-02
   7728.80    8.784768e-02
   7729.09    9.662005e-02
   7729.38    1.056349e-01
   7729.67    1.146201e-01
   7729.96    1.229703e-01
   7730.24    1.298807e-01
   7730.53    1.344159e-01
   7730.82    1.363990e-01
   7731.11    1.360380e-01
   7731.40    1.338096e-01
   7731.69    1.302915e-01
   7731.98    1.260059e-01
   7732.27    1.213587e-01
   7732.56    1.166784e-01
   7732.84    1.121783e-01
   7733.13    1.079973e-01
   7733.42    1.042334e-01
   7733.71    1.009508e-01
   7734.00    9.818144e-02
   7734.29    9.598780e-02
   7734.58    9.428400e-02
   7734.87    9.303080e-02
   7735.16    9.217773e-02
   7735.44    9.166522e-02
   7735.73    9.142638e-02
   7736.02    9.139724e-02
   7736.31    9.148849e-02
   7736.60    9.161832e-02
   7736.89    9.172233e-02
   7737.18    9.174883e-02
   7737.47    9.166305e-02
   7737.76    9.144744e-02
   7738.04    9.109826e-02
   7738.33    9.065364e-02
   7738.62    9.014917e-02
   7738.91    8.962543e-02
   7739.20    8.912252e-02
   7739.49    8.867578e-02
   7739.78    8.832160e-02
   7740.07    8.811040e-02
   7740.36    8.809202e-02
   7740.64    8.807365e-02
   7740.93    8.805527e-02
   7741.22    8.831033e-02
   7741.51    8.864741e-02
   7741.80    8.898449e-02
   7742.09    8.937645e-02
   7742.38    8.989186e-02
   7742.67    9.040728e-02
   7742.96    9.092270e-02
   7743.24    9.138742e-02
   7743.53    9.184292e-02
   7743.82    9.229842e-02
   7744.11    9.265248e-02
   7744.40    9.284423e-02
   7744.69    9.303597e-02
   7744.98    9.322771e-02
   7745.27    9.310684e-02
   7745.56    9.295991e-02
   7745.84    9.281299e-02
   7746.13    9.254351e-02
   7746.42    9.213105e-02
   7746.71    9.171859e-02
   7747.00    9.130614e-02
   7747.29    9.076281e-02
   7747.58    9.021948e-02
   7747.87    8.967615e-02
   7748.16    8.912332e-02
   7748.44    8.856234e-02
   7748.73    8.800135e-02
   7749.02    8.744436e-02
   7749.31    8.693525e-02
   7749.60    8.642615e-02
   7749.89    8.591704e-02
   7750.18    8.545951e-02
   7750.47    8.503422e-02
   7750.76    8.460893e-02
   7751.04    8.419665e-02
   7751.33    8.385594e-02
   7751.62    8.351523e-02
   7751.91    8.317452e-02
   7752.20    8.287759e-02
   7752.49    8.260012e-02
   7752.78    8.232266e-02
   7753.07    8.205262e-02
   7753.36    8.180737e-02
   7753.64    8.156212e-02
   7753.93    8.131687e-02
   7754.22    8.107354e-02
   7754.51    8.083079e-02
   7754.80    8.058804e-02
   7755.09    8.033964e-02
   7755.38    8.007851e-02
   7755.67    7.981737e-02
   7755.96    7.955624e-02
   7756.24    7.927276e-02
   7756.53    7.898522e-02
   7756.82    7.869767e-02
   7757.11    7.840254e-02
   7757.40    7.809527e-02
   7757.69    7.778799e-02
   7757.98    7.748072e-02
   7758.27    7.717713e-02
   7758.56    7.687385e-02
   7758.84    7.657057e-02
   7759.13    7.628800e-02
   7759.42    7.602957e-02
   7759.71    7.577114e-02
   7760.00    7.551271e-02
