 FDMNES
  energy    <xanes>
   7695.00    5.290814e-04
   7695.29    5.347877e-04
   7695.58    5.404939e-04
   7695.87    5.462002e-04
   7696.16    5.521223e-04
   7696.44    5.582294e-04
   7696.73    5.643365e-04
   7697.02    5.704777e-04
   7697.31    5.770280e-04
   7697.60    5.835783e-04
   7697.89    5.901287e-04
   7698.18    5.969816e-04
   7698.47    6.040237e-04
   7698.76    6.110658e-04
   7699.04    6.181921e-04
   7699.33    6.257817e-04
   7699.62    6.333712e-04
   7699.91    6.409608e-04
   7700.20    6.489739e-04
   7700.49    6.571752e-04
   7700.78    6.653766e-04
   7701.07    6.737363e-04
   7701.36    6.826241e-04
   7701.64    6.915118e-04
   7701.93    7.003996e-04
   7702.22    7.098824e-04
   7702.51    7.195436e-04
   7702.80    7.292049e-04
   7703.09    7.391356e-04
   7703.38    7.496726e-04
   7703.67    7.602095e-04
   7703.96    7.707465e-04
   7704.24    7.821265e-04
   7704.53    7.936599e-04
   7704.82    8.051932e-04
   7705.11    8.171650e-04
   7705.40    8.298383e-04
   7705.69    8.425116e-04
   7705.98    8.551849e-04
   7706.27    8.690694e-04
   7706.56    8.830547e-04
   7706.84    8.970401e-04
   7707.13    9.117270e-04
   7707.42    9.272323e-04
   7707.71    9.427377e-04
   7708.00    9.582430e-04
   7708.29    9.755220e-04
   7708.58    9.928010e-04
   7708.87    1.010080e-03
   7709.16    1.028482e-03
   7709.44    1.047847e-03
   7709.73    1.067213e-03
   7710.02    1.086768e-03
   7710.31    1.108609e-03
   7710.60    1.130449e-03
   7710.89    1.152290e-03
   7711.18    1.175956e-03
   7711.47    1.200763e-03
   7711.76    1.225571e-03
   7712.04    1.250931e-03
   7712.33    1.279334e-03
   7712.62    1.307737e-03
   7712.91    1.336139e-03
   7713.20    1.367597e-03
   7713.49    1.400413e-03
   7713.78    1.433228e-03
   7714.07    1.467313e-03
   7714.36    1.505625e-03
   7714.64    1.543937e-03
   7714.93    1.582249e-03
   7715.22    1.625918e-03
   7715.51    1.671193e-03
   7715.80    1.716469e-03
   7716.09    1.764515e-03
   7716.38    1.818793e-03
   7716.67    1.873071e-03
   7716.96    1.927349e-03
   7717.24    1.991717e-03
   7717.53    2.057920e-03
   7717.82    2.124123e-03
   7718.11    2.196588e-03
   7718.40    2.279072e-03
   7718.69    2.361557e-03
   7718.98    2.444041e-03
   7719.27    2.547857e-03
   7719.56    2.653450e-03
   7719.84    2.759044e-03
   7720.13    2.880591e-03
   7720.42    3.020752e-03
   7720.71    3.160914e-03
   7721.00    3.301075e-03
   7721.29    3.497053e-03
   7721.58    3.693031e-03
   7721.87    3.889010e-03
   7722.16    4.139996e-03
   7722.44    4.438133e-03
   7722.73    4.736269e-03
   7723.02    5.052735e-03
   7723.31    5.589164e-03
   7723.60    6.125592e-03
   7723.89    6.662020e-03
   7724.18    7.687225e-03
   7724.47    9.017916e-03
   7724.76    1.034861e-02
   7725.04    1.179530e-02
   7725.33    1.392141e-02
   7725.62    1.614367e-02
   7725.91    1.850725e-02
   7726.20    2.108617e-02
   7726.49    2.406742e-02
   7726.78    2.749556e-02
   7727.07    3.160114e-02
   7727.36    3.644521e-02
   7727.64    4.216378e-02
   7727.93    4.878290e-02
   7728.22    5.621434e-02
   7728.51    6.445977e-02
   7728.80    7.331540e-02
   7729.09    8.283098e-02
   7729.38    9.280360e-02
   7729.67    1.031137e-01
   7729.96    1.132915e-01
   7730.24    1.225793e-01
   7730.53    1.298813e-01
   7730.82    1.346416e-01
   7731.11    1.367311e-01
   7731.40    1.364126e-01
   7731.69    1.342301e-01
   7731.98    1.308220e-01
   7732.27    1.267562e-01
   7732.56    1.225173e-01
   7732.84    1.184144e-01
   7733.13    1.146156e-01
   7733.42    1.112094e-01
   7733.71    1.082247e-01
   7734.00    1.056546e-01
   7734.29    1.035233e-01
   7734.58    1.017601e-01
   7734.87    1.003414e-01
   7735.16    9.923811e-02
   7735.44    9.841289e-02
   7735.73    9.781942e-02
   7736.02    9.741188e-02
   7736.31    9.712068e-02
   7736.60    9.688080e-02
   7736.89    9.664235e-02
   7737.18    9.636604e-02
   7737.47    9.602595e-02
   7737.76    9.560960e-02
   7738.04    9.511579e-02
   7738.33    9.457002e-02
   7738.62    9.399742e-02
   7738.91    9.342649e-02
   7739.20    9.288540e-02
   7739.49    9.239880e-02
   7739.78    9.199303e-02
   7740.07    9.170460e-02
   7740.36    9.156976e-02
   7740.64    9.143493e-02
   7740.93    9.130009e-02
   7741.22    9.136649e-02
   7741.51    9.149326e-02
   7741.80    9.162003e-02
   7742.09    9.177789e-02
   7742.38    9.200572e-02
   7742.67    9.223355e-02
   7742.96    9.246137e-02
   7743.24    9.262725e-02
   7743.53    9.278187e-02
   7743.82    9.293649e-02
   7744.11    9.301977e-02
   7744.40    9.298890e-02
   7744.69    9.295804e-02
   7744.98    9.292718e-02
   7745.27    9.271400e-02
   7745.56    9.248564e-02
   7745.84    9.225727e-02
   7746.13    9.196241e-02
   7746.42    9.158998e-02
   7746.71    9.121754e-02
   7747.00    9.084511e-02
   7747.29    9.038995e-02
   7747.58    8.993479e-02
   7747.87    8.947962e-02
   7748.16    8.900413e-02
   7748.44    8.851122e-02
   7748.73    8.801830e-02
   7749.02    8.752550e-02
   7749.31    8.703401e-02
   7749.60    8.654253e-02
   7749.89    8.605104e-02
   7750.18    8.558291e-02
   7750.47    8.512937e-02
   7750.76    8.467584e-02
   7751.04    8.423055e-02
   7751.33    8.383063e-02
   7751.62    8.343070e-02
   7751.91    8.303077e-02
   7752.20    8.265825e-02
   7752.49    8.229792e-02
   7752.78    8.193758e-02
   7753.07    8.157882e-02
   7753.36    8.122536e-02
   7753.64    8.087190e-02
   7753.93    8.051844e-02
   7754.22    8.014335e-02
   7754.51    7.976178e-02
   7754.80    7.938020e-02
   7755.09    7.898247e-02
   7755.38    7.854842e-02
   7755.67    7.811437e-02
   7755.96    7.768032e-02
   7756.24    7.719799e-02
   7756.53    7.670690e-02
   7756.82    7.621580e-02
   7757.11    7.571099e-02
   7757.40    7.518425e-02
   7757.69    7.465750e-02
   7757.98    7.413076e-02
   7758.27    7.361734e-02
   7758.56    7.310504e-02
   7758.84    7.259273e-02
   7759.13    7.211951e-02
   7759.42    7.169190e-02
   7759.71    7.126428e-02
   7760.00    7.083666e-02
