 FDMNES
  energy    <xanes>
   7695.00    5.363839e-04
   7695.29    5.422234e-04
   7695.58    5.480629e-04
   7695.87    5.539024e-04
   7696.16    5.599657e-04
   7696.44    5.662208e-04
   7696.73    5.724759e-04
   7697.02    5.787664e-04
   7697.31    5.854817e-04
   7697.60    5.921970e-04
   7697.89    5.989123e-04
   7698.18    6.059423e-04
   7698.47    6.131689e-04
   7698.76    6.203956e-04
   7699.04    6.277100e-04
   7699.33    6.355069e-04
   7699.62    6.433038e-04
   7699.91    6.511007e-04
   7700.20    6.593396e-04
   7700.49    6.677748e-04
   7700.78    6.762101e-04
   7701.07    6.848110e-04
   7701.36    6.939640e-04
   7701.64    7.031169e-04
   7701.93    7.122699e-04
   7702.22    7.220462e-04
   7702.51    7.320095e-04
   7702.80    7.419728e-04
   7703.09    7.522191e-04
   7703.38    7.631019e-04
   7703.67    7.739848e-04
   7703.96    7.848676e-04
   7704.24    7.966380e-04
   7704.53    8.085697e-04
   7704.82    8.205015e-04
   7705.11    8.328960e-04
   7705.40    8.460311e-04
   7705.69    8.591661e-04
   7705.98    8.723011e-04
   7706.27    8.867184e-04
   7706.56    9.012425e-04
   7706.84    9.157666e-04
   7707.13    9.310359e-04
   7707.42    9.471746e-04
   7707.71    9.633132e-04
   7708.00    9.794519e-04
   7708.29    9.974815e-04
   7708.58    1.015511e-03
   7708.87    1.033541e-03
   7709.16    1.052773e-03
   7709.44    1.073035e-03
   7709.73    1.093298e-03
   7710.02    1.113766e-03
   7710.31    1.136691e-03
   7710.60    1.159616e-03
   7710.89    1.182540e-03
   7711.18    1.207439e-03
   7711.47    1.233571e-03
   7711.76    1.259703e-03
   7712.04    1.286437e-03
   7712.33    1.316479e-03
   7712.62    1.346521e-03
   7712.91    1.376563e-03
   7713.20    1.409950e-03
   7713.49    1.444825e-03
   7713.78    1.479699e-03
   7714.07    1.515973e-03
   7714.36    1.556915e-03
   7714.64    1.597857e-03
   7714.93    1.638798e-03
   7715.22    1.685710e-03
   7715.51    1.734412e-03
   7715.80    1.783114e-03
   7716.09    1.834940e-03
   7716.38    1.893791e-03
   7716.67    1.952643e-03
   7716.96    2.011494e-03
   7717.24    2.081885e-03
   7717.53    2.154373e-03
   7717.82    2.226862e-03
   7718.11    2.306642e-03
   7718.40    2.398090e-03
   7718.69    2.489537e-03
   7718.98    2.580985e-03
   7719.27    2.697869e-03
   7719.56    2.816872e-03
   7719.84    2.935876e-03
   7720.13    3.074534e-03
   7720.42    3.236123e-03
   7720.71    3.397711e-03
   7721.00    3.559299e-03
   7721.29    3.792972e-03
   7721.58    4.026645e-03
   7721.87    4.260317e-03
   7722.16    4.570390e-03
   7722.44    4.945948e-03
   7722.73    5.321507e-03
   7723.02    5.725662e-03
   7723.31    6.472973e-03
   7723.60    7.220283e-03
   7723.89    7.967594e-03
   7724.18    9.582928e-03
   7724.47    1.174078e-02
   7724.76    1.389862e-02
   7725.04    1.624979e-02
   7725.33    1.960868e-02
   7725.62    2.260787e-02
   7725.91    2.515207e-02
   7726.20    2.766343e-02
   7726.49    3.065896e-02
   7726.78    3.433951e-02
   7727.07    3.899245e-02
   7727.36    4.455082e-02
   7727.64    5.095553e-02
   7727.93    5.801036e-02
   7728.22    6.551493e-02
   7728.51    7.347934e-02
   7728.80    8.191384e-02
   7729.09    9.104437e-02
   7729.38    1.006975e-01
   7729.67    1.106393e-01
   7729.96    1.203052e-01
   7730.24    1.289586e-01
   7730.53    1.355922e-01
   7730.82    1.396761e-01
   7731.11    1.410071e-01
   7731.40    1.397490e-01
   7731.69    1.364048e-01
   7731.98    1.316703e-01
   7732.27    1.262573e-01
   7732.56    1.208163e-01
   7732.84    1.157408e-01
   7733.13    1.112248e-01
   7733.42    1.073465e-01
   7733.71    1.041128e-01
   7734.00    1.014907e-01
   7734.29    9.948523e-02
   7734.58    9.796118e-02
   7734.87    9.685381e-02
   7735.16    9.609753e-02
   7735.44    9.562380e-02
   7735.73    9.536015e-02
   7736.02    9.523497e-02
   7736.31    9.516043e-02
   7736.60    9.506318e-02
   7736.89    9.488930e-02
   7737.18    9.460322e-02
   7737.47    9.419067e-02
   7737.76    9.365694e-02
   7738.04    9.302337e-02
   7738.33    9.234046e-02
   7738.62    9.165001e-02
   7738.91    9.099138e-02
   7739.20    9.039751e-02
   7739.49    8.989272e-02
   7739.78    8.950153e-02
   7740.07    8.925499e-02
   7740.36    8.918442e-02
   7740.64    8.911385e-02
   7740.93    8.904327e-02
   7741.22    8.918036e-02
   7741.51    8.937974e-02
   7741.80    8.957912e-02
   7742.09    8.980751e-02
   7742.38    9.010117e-02
   7742.67    9.039483e-02
   7742.96    9.068850e-02
   7743.24    9.090937e-02
   7743.53    9.111701e-02
   7743.82    9.132465e-02
   7744.11    9.145279e-02
   7744.40    9.145371e-02
   7744.69    9.145463e-02
   7744.98    9.145555e-02
   7745.27    9.123031e-02
   7745.56    9.098623e-02
   7745.84    9.074216e-02
   7746.13    9.040320e-02
   7746.42    8.995355e-02
   7746.71    8.950390e-02
   7747.00    8.905426e-02
   7747.29    8.848912e-02
   7747.58    8.792398e-02
   7747.87    8.735885e-02
   7748.16    8.678489e-02
   7748.44    8.620337e-02
   7748.73    8.562184e-02
   7749.02    8.504466e-02
   7749.31    8.451960e-02
   7749.60    8.399453e-02
   7749.89    8.346946e-02
   7750.18    8.299807e-02
   7750.47    8.256023e-02
   7750.76    8.212239e-02
   7751.04    8.169677e-02
   7751.33    8.133840e-02
   7751.62    8.098003e-02
   7751.91    8.062165e-02
   7752.20    8.029671e-02
   7752.49    7.998662e-02
   7752.78    7.967654e-02
   7753.07    7.936898e-02
   7753.36    7.906986e-02
   7753.64    7.877074e-02
   7753.93    7.847162e-02
   7754.22    7.815738e-02
   7754.51    7.783860e-02
   7754.80    7.751981e-02
   7755.09    7.718991e-02
   7755.38    7.683496e-02
   7755.67    7.648002e-02
   7755.96    7.612508e-02
   7756.24    7.574031e-02
   7756.53    7.535012e-02
   7756.82    7.495994e-02
   7757.11    7.456353e-02
   7757.40    7.415718e-02
   7757.69    7.375083e-02
   7757.98    7.334449e-02
   7758.27    7.295697e-02
   7758.56    7.257102e-02
   7758.84    7.218506e-02
   7759.13    7.183052e-02
   7759.42    7.151261e-02
   7759.71    7.119470e-02
   7760.00    7.087679e-02
