 FDMNES
  energy    <xanes>
   7695.00    5.336673e-04
   7695.29    5.394560e-04
   7695.58    5.452446e-04
   7695.87    5.510332e-04
   7696.16    5.570431e-04
   7696.44    5.632427e-04
   7696.73    5.694423e-04
   7697.02    5.756768e-04
   7697.31    5.823314e-04
   7697.60    5.889859e-04
   7697.89    5.956405e-04
   7698.18    6.026061e-04
   7698.47    6.097661e-04
   7698.76    6.169262e-04
   7699.04    6.241729e-04
   7699.33    6.318966e-04
   7699.62    6.396203e-04
   7699.91    6.473439e-04
   7700.20    6.555044e-04
   7700.49    6.638590e-04
   7700.78    6.722136e-04
   7701.07    6.807318e-04
   7701.36    6.897956e-04
   7701.64    6.988593e-04
   7701.93    7.079231e-04
   7702.22    7.176028e-04
   7702.51    7.274673e-04
   7702.80    7.373318e-04
   7703.09    7.474758e-04
   7703.38    7.582488e-04
   7703.67    7.690218e-04
   7703.96    7.797948e-04
   7704.24    7.914446e-04
   7704.53    8.032538e-04
   7704.82    8.150630e-04
   7705.11    8.273294e-04
   7705.40    8.403273e-04
   7705.69    8.533252e-04
   7705.98    8.663231e-04
   7706.27    8.805876e-04
   7706.56    8.949577e-04
   7706.84    9.093278e-04
   7707.13    9.244339e-04
   7707.42    9.403988e-04
   7707.71    9.563638e-04
   7708.00    9.723287e-04
   7708.29    9.901614e-04
   7708.58    1.007994e-03
   7708.87    1.025827e-03
   7709.16    1.044847e-03
   7709.44    1.064886e-03
   7709.73    1.084925e-03
   7710.02    1.105165e-03
   7710.31    1.127834e-03
   7710.60    1.150502e-03
   7710.89    1.173170e-03
   7711.18    1.197788e-03
   7711.47    1.223624e-03
   7711.76    1.249460e-03
   7712.04    1.275891e-03
   7712.33    1.305589e-03
   7712.62    1.335288e-03
   7712.91    1.364986e-03
   7713.20    1.397989e-03
   7713.49    1.432460e-03
   7713.78    1.466932e-03
   7714.07    1.502786e-03
   7714.36    1.543249e-03
   7714.64    1.583712e-03
   7714.93    1.624175e-03
   7715.22    1.670531e-03
   7715.51    1.718655e-03
   7715.80    1.766779e-03
   7716.09    1.817984e-03
   7716.38    1.876118e-03
   7716.67    1.934253e-03
   7716.96    1.992388e-03
   7717.24    2.061887e-03
   7717.53    2.133453e-03
   7717.82    2.205019e-03
   7718.11    2.283745e-03
   7718.40    2.373930e-03
   7718.69    2.464114e-03
   7718.98    2.554299e-03
   7719.27    2.669330e-03
   7719.56    2.786433e-03
   7719.84    2.903535e-03
   7720.13    3.039640e-03
   7720.42    3.197917e-03
   7720.71    3.356193e-03
   7721.00    3.514469e-03
   7721.29    3.741044e-03
   7721.58    3.967619e-03
   7721.87    4.194193e-03
   7722.16    4.490177e-03
   7722.44    4.845656e-03
   7722.73    5.201134e-03
   7723.02    5.580385e-03
   7723.31    6.244913e-03
   7723.60    6.909440e-03
   7723.89    7.573968e-03
   7724.18    8.884234e-03
   7724.47    1.059809e-02
   7724.76    1.231194e-02
   7725.04    1.419296e-02
   7725.33    1.710329e-02
   7725.62    2.034277e-02
   7725.91    2.404987e-02
   7726.20    2.827525e-02
   7726.49    3.318753e-02
   7726.78    3.858297e-02
   7727.07    4.438284e-02
   7727.36    5.043909e-02
   7727.64    5.675403e-02
   7727.93    6.337730e-02
   7728.22    7.039604e-02
   7728.51    7.809279e-02
   7728.80    8.661015e-02
   7729.09    9.613726e-02
   7729.38    1.060069e-01
   7729.67    1.151951e-01
   7729.96    1.226698e-01
   7730.24    1.275637e-01
   7730.53    1.293748e-01
   7730.82    1.287456e-01
   7731.11    1.264801e-01
   7731.40    1.233151e-01
   7731.69    1.197818e-01
   7731.98    1.161803e-01
   7732.27    1.126521e-01
   7732.56    1.092611e-01
   7732.84    1.060402e-01
   7733.13    1.030356e-01
   7733.42    1.003005e-01
   7733.71    9.788592e-02
   7734.00    9.582767e-02
   7734.29    9.418400e-02
   7734.58    9.290359e-02
   7734.87    9.196511e-02
   7735.16    9.133647e-02
   7735.44    9.097628e-02
   7735.73    9.083551e-02
   7736.02    9.086732e-02
   7736.31    9.100569e-02
   7736.60    9.119264e-02
   7736.89    9.138775e-02
   7737.18    9.156373e-02
   7737.47    9.170787e-02
   7737.76    9.182100e-02
   7738.04    9.191622e-02
   7738.33    9.201658e-02
   7738.62    9.214296e-02
   7738.91    9.231347e-02
   7739.20    9.254089e-02
   7739.49    9.283154e-02
   7739.78    9.318986e-02
   7740.07    9.360893e-02
   7740.36    9.407464e-02
   7740.64    9.454036e-02
   7740.93    9.500607e-02
   7741.22    9.540897e-02
   7741.51    9.579302e-02
   7741.80    9.617707e-02
   7742.09    9.648112e-02
   7742.38    9.660520e-02
   7742.67    9.672927e-02
   7742.96    9.685334e-02
   7743.24    9.670743e-02
   7743.53    9.651243e-02
   7743.82    9.631743e-02
   7744.11    9.601682e-02
   7744.40    9.554725e-02
   7744.69    9.507768e-02
   7744.98    9.460811e-02
   7745.27    9.397549e-02
   7745.56    9.332928e-02
   7745.84    9.268307e-02
   7746.13    9.200169e-02
   7746.42    9.127925e-02
   7746.71    9.055682e-02
   7747.00    8.983439e-02
   7747.29    8.911172e-02
   7747.58    8.838905e-02
   7747.87    8.766639e-02
   7748.16    8.697346e-02
   7748.44    8.630604e-02
   7748.73    8.563861e-02
   7749.02    8.497825e-02
   7749.31    8.440269e-02
   7749.60    8.382712e-02
   7749.89    8.325155e-02
   7750.18    8.273539e-02
   7750.47    8.225636e-02
   7750.76    8.177732e-02
   7751.04    8.131007e-02
   7751.33    8.090760e-02
   7751.62    8.050514e-02
   7751.91    8.010267e-02
   7752.20    7.973349e-02
   7752.49    7.937910e-02
   7752.78    7.902471e-02
   7753.07    7.867521e-02
   7753.36    7.834201e-02
   7753.64    7.800881e-02
   7753.93    7.767561e-02
   7754.22    7.734281e-02
   7754.51    7.701014e-02
   7754.80    7.667746e-02
   7755.09    7.634127e-02
   7755.38    7.599718e-02
   7755.67    7.565309e-02
   7755.96    7.530900e-02
   7756.24    7.495437e-02
   7756.53    7.459782e-02
   7756.82    7.424128e-02
   7757.11    7.388429e-02
   7757.40    7.352658e-02
   7757.69    7.316888e-02
   7757.98    7.281117e-02
   7758.27    7.247512e-02
   7758.56    7.214087e-02
   7758.84    7.180662e-02
   7759.13    7.149969e-02
   7759.42    7.122463e-02
   7759.71    7.094957e-02
   7760.00    7.067451e-02
