 FDMNES
  energy    <xanes>
   7695.00    5.435531e-04
   7695.29    5.491358e-04
   7695.58    5.547185e-04
   7695.87    5.603012e-04
   7696.16    5.660878e-04
   7696.44    5.720490e-04
   7696.73    5.780103e-04
   7697.02    5.840037e-04
   7697.31    5.903826e-04
   7697.60    5.967614e-04
   7697.89    6.031403e-04
   7698.18    6.098036e-04
   7698.47    6.166447e-04
   7698.76    6.234857e-04
   7699.04    6.304057e-04
   7699.33    6.377601e-04
   7699.62    6.451144e-04
   7699.91    6.524687e-04
   7700.20    6.602192e-04
   7700.49    6.681456e-04
   7700.78    6.760721e-04
   7701.07    6.841463e-04
   7701.36    6.927130e-04
   7701.64    7.012798e-04
   7701.93    7.098465e-04
   7702.22    7.189668e-04
   7702.51    7.282532e-04
   7702.80    7.375395e-04
   7703.09    7.470759e-04
   7703.38    7.571748e-04
   7703.67    7.672737e-04
   7703.96    7.773726e-04
   7704.24    7.882517e-04
   7704.53    7.992726e-04
   7704.82    8.102936e-04
   7705.11    8.217192e-04
   7705.40    8.337923e-04
   7705.69    8.458654e-04
   7705.98    8.579385e-04
   7706.27    8.711264e-04
   7706.56    8.844073e-04
   7706.84    8.976881e-04
   7707.13    9.116131e-04
   7707.42    9.262894e-04
   7707.71    9.409658e-04
   7708.00    9.556422e-04
   7708.29    9.719428e-04
   7708.58    9.882435e-04
   7708.87    1.004544e-03
   7709.16    1.021871e-03
   7709.44    1.040078e-03
   7709.73    1.058284e-03
   7710.02    1.076664e-03
   7710.31    1.097128e-03
   7710.60    1.117591e-03
   7710.89    1.138054e-03
   7711.18    1.160179e-03
   7711.47    1.183341e-03
   7711.76    1.206504e-03
   7712.04    1.230169e-03
   7712.33    1.256598e-03
   7712.62    1.283027e-03
   7712.91    1.309457e-03
   7713.20    1.338659e-03
   7713.49    1.369094e-03
   7713.78    1.399530e-03
   7714.07    1.431116e-03
   7714.36    1.466541e-03
   7714.64    1.501966e-03
   7714.93    1.537391e-03
   7715.22    1.577685e-03
   7715.51    1.619440e-03
   7715.80    1.661195e-03
   7716.09    1.705475e-03
   7716.38    1.755438e-03
   7716.67    1.805401e-03
   7716.96    1.855364e-03
   7717.24    1.914582e-03
   7717.53    1.975482e-03
   7717.82    2.036382e-03
   7718.11    2.103083e-03
   7718.40    2.179065e-03
   7718.69    2.255047e-03
   7718.98    2.331030e-03
   7719.27    2.427099e-03
   7719.56    2.524842e-03
   7719.84    2.622586e-03
   7720.13    2.735762e-03
   7720.42    2.866942e-03
   7720.71    2.998123e-03
   7721.00    3.129304e-03
   7721.29    3.316940e-03
   7721.58    3.504577e-03
   7721.87    3.692213e-03
   7722.16    3.939865e-03
   7722.44    4.238959e-03
   7722.73    4.538053e-03
   7723.02    4.859861e-03
   7723.31    5.454244e-03
   7723.60    6.048626e-03
   7723.89    6.643008e-03
   7724.18    7.932815e-03
   7724.47    9.657263e-03
   7724.76    1.138171e-02
   7725.04    1.326152e-02
   7725.33    1.597864e-02
   7725.62    1.852972e-02
   7725.91    2.080442e-02
   7726.20    2.291591e-02
   7726.49    2.498593e-02
   7726.78    2.715408e-02
   7727.07    2.957822e-02
   7727.36    3.236689e-02
   7727.64    3.570309e-02
   7727.93    3.975399e-02
   7728.22    4.463633e-02
   7728.51    5.058300e-02
   7728.80    5.750618e-02
   7729.09    6.558626e-02
   7729.38    7.438543e-02
   7729.67    8.346104e-02
   7729.96    9.200556e-02
   7730.24    9.908934e-02
   7730.53    1.037252e-01
   7730.82    1.058703e-01
   7731.11    1.059898e-01
   7731.40    1.048096e-01
   7731.69    1.030379e-01
   7731.98    1.011781e-01
   7732.27    9.950439e-02
   7732.56    9.808698e-02
   7732.84    9.686733e-02
   7733.13    9.578846e-02
   7733.42    9.481447e-02
   7733.71    9.393886e-02
   7734.00    9.317862e-02
   7734.29    9.258389e-02
   7734.58    9.217029e-02
   7734.87    9.196081e-02
   7735.16    9.196911e-02
   7735.44    9.219917e-02
   7735.73    9.264582e-02
   7736.02    9.330729e-02
   7736.31    9.415278e-02
   7736.60    9.513845e-02
   7736.89    9.622266e-02
   7737.18    9.735770e-02
   7737.47    9.849305e-02
   7737.76    9.957827e-02
   7738.04    1.005593e-01
   7738.33    1.014140e-01
   7738.62    1.021284e-01
   7738.91    1.027019e-01
   7739.20    1.031452e-01
   7739.49    1.034772e-01
   7739.78    1.037158e-01
   7740.07    1.038873e-01
   7740.36    1.040129e-01
   7740.64    1.041386e-01
   7740.93    1.042642e-01
   7741.22    1.043956e-01
   7741.51    1.045287e-01
   7741.80    1.046618e-01
   7742.09    1.047920e-01
   7742.38    1.049154e-01
   7742.67    1.050388e-01
   7742.96    1.051623e-01
   7743.24    1.051771e-01
   7743.53    1.051722e-01
   7743.82    1.051672e-01
   7744.11    1.050673e-01
   7744.40    1.048154e-01
   7744.69    1.045635e-01
   7744.98    1.043116e-01
   7745.27    1.037817e-01
   7745.56    1.032286e-01
   7745.84    1.026756e-01
   7746.13    1.019999e-01
   7746.42    1.011811e-01
   7746.71    1.003623e-01
   7747.00    9.954348e-02
   7747.29    9.856770e-02
   7747.58    9.759191e-02
   7747.87    9.661612e-02
   7748.16    9.563079e-02
   7748.44    9.463727e-02
   7748.73    9.364376e-02
   7749.02    9.265806e-02
   7749.31    9.176610e-02
   7749.60    9.087414e-02
   7749.89    8.998217e-02
   7750.18    8.918513e-02
   7750.47    8.844742e-02
   7750.76    8.770971e-02
   7751.04    8.699615e-02
   7751.33    8.641545e-02
   7751.62    8.583474e-02
   7751.91    8.525403e-02
   7752.20    8.476764e-02
   7752.49    8.432317e-02
   7752.78    8.387870e-02
   7753.07    8.345853e-02
   7753.36    8.311939e-02
   7753.64    8.278026e-02
   7753.93    8.244112e-02
   7754.22    8.215786e-02
   7754.51    8.189137e-02
   7754.80    8.162487e-02
   7755.09    8.137147e-02
   7755.38    8.114753e-02
   7755.67    8.092359e-02
   7755.96    8.069964e-02
   7756.24    8.049001e-02
   7756.53    8.028299e-02
   7756.82    8.007596e-02
   7757.11    7.986844e-02
   7757.40    7.966013e-02
   7757.69    7.945182e-02
   7757.98    7.924352e-02
   7758.27    7.903215e-02
   7758.56    7.882054e-02
   7758.84    7.860892e-02
   7759.13    7.840696e-02
   7759.42    7.821627e-02
   7759.71    7.802559e-02
   7760.00    7.783490e-02
