 FDMNES
  energy    <xanes>
   7695.00    5.404130e-04
   7695.29    5.462222e-04
   7695.58    5.520313e-04
   7695.87    5.578405e-04
   7696.16    5.638707e-04
   7696.44    5.700904e-04
   7696.73    5.763102e-04
   7697.02    5.825649e-04
   7697.31    5.892392e-04
   7697.60    5.959135e-04
   7697.89    6.025879e-04
   7698.18    6.095730e-04
   7698.47    6.167523e-04
   7698.76    6.239316e-04
   7699.04    6.311975e-04
   7699.33    6.389398e-04
   7699.62    6.466821e-04
   7699.91    6.544244e-04
   7700.20    6.626030e-04
   7700.49    6.709755e-04
   7700.78    6.793479e-04
   7701.07    6.878839e-04
   7701.36    6.969646e-04
   7701.64    7.060454e-04
   7701.93    7.151261e-04
   7702.22    7.248220e-04
   7702.51    7.347024e-04
   7702.80    7.445828e-04
   7703.09    7.547424e-04
   7703.38    7.655302e-04
   7703.67    7.763179e-04
   7703.96    7.871056e-04
   7704.24    7.987690e-04
   7704.53    8.105916e-04
   7704.82    8.224142e-04
   7705.11    8.346935e-04
   7705.40    8.477033e-04
   7705.69    8.607131e-04
   7705.98    8.737229e-04
   7706.27    8.879979e-04
   7706.56    9.023783e-04
   7706.84    9.167587e-04
   7707.13    9.318745e-04
   7707.42    9.478482e-04
   7707.71    9.638219e-04
   7708.00    9.797956e-04
   7708.29    9.976357e-04
   7708.58    1.015476e-03
   7708.87    1.033316e-03
   7709.16    1.052343e-03
   7709.44    1.072388e-03
   7709.73    1.092433e-03
   7710.02    1.112680e-03
   7710.31    1.135355e-03
   7710.60    1.158029e-03
   7710.89    1.180703e-03
   7711.18    1.205328e-03
   7711.47    1.231172e-03
   7711.76    1.257016e-03
   7712.04    1.283455e-03
   7712.33    1.313165e-03
   7712.62    1.342876e-03
   7712.91    1.372586e-03
   7713.20    1.405608e-03
   7713.49    1.440101e-03
   7713.78    1.474594e-03
   7714.07    1.510475e-03
   7714.36    1.550979e-03
   7714.64    1.591482e-03
   7714.93    1.631986e-03
   7715.22    1.678411e-03
   7715.51    1.726612e-03
   7715.80    1.774813e-03
   7716.09    1.826115e-03
   7716.38    1.884394e-03
   7716.67    1.942673e-03
   7716.96    2.000952e-03
   7717.24    2.070704e-03
   7717.53    2.142541e-03
   7717.82    2.214379e-03
   7718.11    2.293473e-03
   7718.40    2.384178e-03
   7718.69    2.474883e-03
   7718.98    2.565588e-03
   7719.27    2.681609e-03
   7719.56    2.799741e-03
   7719.84    2.917872e-03
   7720.13    3.055525e-03
   7720.42    3.215952e-03
   7720.71    3.376380e-03
   7721.00    3.536807e-03
   7721.29    3.768299e-03
   7721.58    3.999790e-03
   7721.87    4.231281e-03
   7722.16    4.536565e-03
   7722.44    4.905100e-03
   7722.73    5.273635e-03
   7723.02    5.668438e-03
   7723.31    6.378458e-03
   7723.60    7.088478e-03
   7723.89    7.798498e-03
   7724.18    9.251336e-03
   7724.47    1.116844e-02
   7724.76    1.308554e-02
   7725.04    1.518111e-02
   7725.33    1.832041e-02
   7725.62    2.162043e-02
   7725.91    2.524500e-02
   7726.20    2.942581e-02
   7726.49    3.462096e-02
   7726.78    4.071024e-02
   7727.07    4.743964e-02
   7727.36    5.392369e-02
   7727.64    5.925950e-02
   7727.93    6.336239e-02
   7728.22    6.709221e-02
   7728.51    7.153037e-02
   7728.80    7.724865e-02
   7729.09    8.490417e-02
   7729.38    9.408035e-02
   7729.67    1.044999e-01
   7729.96    1.150824e-01
   7730.24    1.244844e-01
   7730.53    1.310343e-01
   7730.82    1.341141e-01
   7731.11    1.339175e-01
   7731.40    1.311862e-01
   7731.69    1.268671e-01
   7731.98    1.218165e-01
   7732.27    1.166848e-01
   7732.56    1.119018e-01
   7732.84    1.076317e-01
   7733.13    1.039326e-01
   7733.42    1.008055e-01
   7733.71    9.822319e-02
   7734.00    9.614220e-02
   7734.29    9.455602e-02
   7734.58    9.334950e-02
   7734.87    9.246670e-02
   7735.16    9.185348e-02
   7735.44    9.145757e-02
   7735.73    9.122864e-02
   7736.02    9.112367e-02
   7736.31    9.109011e-02
   7736.60    9.108384e-02
   7736.89    9.107286e-02
   7737.18    9.103263e-02
   7737.47    9.094667e-02
   7737.76    9.080572e-02
   7738.04    9.060523e-02
   7738.33    9.035849e-02
   7738.62    9.007807e-02
   7738.91    8.977977e-02
   7739.20    8.948090e-02
   7739.49    8.919849e-02
   7739.78    8.895157e-02
   7740.07    8.877038e-02
   7740.36    8.868653e-02
   7740.64    8.860267e-02
   7740.93    8.851882e-02
   7741.22    8.859817e-02
   7741.51    8.872647e-02
   7741.80    8.885478e-02
   7742.09    8.902752e-02
   7742.38    8.930025e-02
   7742.67    8.957298e-02
   7742.96    8.984570e-02
   7743.24    9.015625e-02
   7743.53    9.047366e-02
   7743.82    9.079108e-02
   7744.11    9.109061e-02
   7744.40    9.136151e-02
   7744.69    9.163242e-02
   7744.98    9.190332e-02
   7745.27    9.204680e-02
   7745.56    9.217967e-02
   7745.84    9.231254e-02
   7746.13    9.233911e-02
   7746.42    9.224166e-02
   7746.71    9.214421e-02
   7747.00    9.204677e-02
   7747.29    9.169412e-02
   7747.58    9.134147e-02
   7747.87    9.098882e-02
   7748.16    9.054788e-02
   7748.44    9.003126e-02
   7748.73    8.951465e-02
   7749.02    8.899545e-02
   7749.31    8.844527e-02
   7749.60    8.789510e-02
   7749.89    8.734493e-02
   7750.18    8.682668e-02
   7750.47    8.632838e-02
   7750.76    8.583008e-02
   7751.04    8.534311e-02
   7751.33    8.491850e-02
   7751.62    8.449388e-02
   7751.91    8.406926e-02
   7752.20    8.368255e-02
   7752.49    8.331269e-02
   7752.78    8.294283e-02
   7753.07    8.257821e-02
   7753.36    8.223103e-02
   7753.64    8.188385e-02
   7753.93    8.153667e-02
   7754.22    8.118511e-02
   7754.51    8.083224e-02
   7754.80    8.047937e-02
   7755.09    8.011944e-02
   7755.38    7.974362e-02
   7755.67    7.936780e-02
   7755.96    7.899199e-02
   7756.24    7.859392e-02
   7756.53    7.819181e-02
   7756.82    7.778970e-02
   7757.11    7.738216e-02
   7757.40    7.696593e-02
   7757.69    7.654969e-02
   7757.98    7.613346e-02
   7758.27    7.573253e-02
   7758.56    7.533288e-02
   7758.84    7.493323e-02
   7759.13    7.456375e-02
   7759.42    7.422945e-02
   7759.71    7.389516e-02
   7760.00    7.356086e-02
