 FDMNES
  energy    <xanes>
   7695.00    5.377137e-04
   7695.29    5.432589e-04
   7695.58    5.488041e-04
   7695.87    5.543493e-04
   7696.16    5.600966e-04
   7696.44    5.660170e-04
   7696.73    5.719374e-04
   7697.02    5.778896e-04
   7697.31    5.842236e-04
   7697.60    5.905577e-04
   7697.89    5.968917e-04
   7698.18    6.035074e-04
   7698.47    6.102989e-04
   7698.76    6.170905e-04
   7699.04    6.239602e-04
   7699.33    6.312596e-04
   7699.62    6.385589e-04
   7699.91    6.458582e-04
   7700.20    6.535491e-04
   7700.49    6.614139e-04
   7700.78    6.692787e-04
   7701.07    6.772895e-04
   7701.36    6.857867e-04
   7701.64    6.942838e-04
   7701.93    7.027810e-04
   7702.22    7.118242e-04
   7702.51    7.210313e-04
   7702.80    7.302385e-04
   7703.09    7.396919e-04
   7703.38    7.496998e-04
   7703.67    7.597076e-04
   7703.96    7.697154e-04
   7704.24    7.804912e-04
   7704.53    7.914066e-04
   7704.82    8.023220e-04
   7705.11    8.136351e-04
   7705.40    8.255846e-04
   7705.69    8.375341e-04
   7705.98    8.494836e-04
   7706.27    8.625271e-04
   7706.56    8.756618e-04
   7706.84    8.887964e-04
   7707.13    9.025620e-04
   7707.42    9.170638e-04
   7707.71    9.315655e-04
   7708.00    9.460672e-04
   7708.29    9.621568e-04
   7708.58    9.782465e-04
   7708.87    9.943361e-04
   7709.16    1.011427e-03
   7709.44    1.029375e-03
   7709.73    1.047324e-03
   7710.02    1.065442e-03
   7710.31    1.085586e-03
   7710.60    1.105730e-03
   7710.89    1.125874e-03
   7711.18    1.147629e-03
   7711.47    1.170392e-03
   7711.76    1.193155e-03
   7712.04    1.216403e-03
   7712.33    1.242323e-03
   7712.62    1.268244e-03
   7712.91    1.294164e-03
   7713.20    1.322756e-03
   7713.49    1.352534e-03
   7713.78    1.382313e-03
   7714.07    1.413195e-03
   7714.36    1.447757e-03
   7714.64    1.482319e-03
   7714.93    1.516881e-03
   7715.22    1.556087e-03
   7715.51    1.596687e-03
   7715.80    1.637286e-03
   7716.09    1.680279e-03
   7716.38    1.728661e-03
   7716.67    1.777042e-03
   7716.96    1.825423e-03
   7717.24    1.882516e-03
   7717.53    1.941194e-03
   7717.82    1.999871e-03
   7718.11    2.063965e-03
   7718.40    2.136725e-03
   7718.69    2.209484e-03
   7718.98    2.282244e-03
   7719.27    2.373579e-03
   7719.56    2.466463e-03
   7719.84    2.559346e-03
   7720.13    2.666343e-03
   7720.42    2.789806e-03
   7720.71    2.913268e-03
   7721.00    3.036731e-03
   7721.29    3.211176e-03
   7721.58    3.385620e-03
   7721.87    3.560065e-03
   7722.16    3.787996e-03
   7722.44    4.061772e-03
   7722.73    4.335548e-03
   7723.02    4.629355e-03
   7723.31    5.163525e-03
   7723.60    5.697696e-03
   7723.89    6.231866e-03
   7724.18    7.370212e-03
   7724.47    8.886167e-03
   7724.76    1.040212e-02
   7725.04    1.204419e-02
   7725.33    1.435344e-02
   7725.62    1.652967e-02
   7725.91    1.857481e-02
   7726.20    2.057310e-02
   7726.49    2.254278e-02
   7726.78    2.451819e-02
   7727.07    2.658762e-02
   7727.36    2.886127e-02
   7727.64    3.150281e-02
   7727.93    3.465882e-02
   7728.22    3.842541e-02
   7728.51    4.297952e-02
   7728.80    4.827590e-02
   7729.09    5.454035e-02
   7729.38    6.157932e-02
   7729.67    6.942371e-02
   7729.96    7.779981e-02
   7730.24    8.640506e-02
   7730.53    9.472725e-02
   7730.82    1.021799e-01
   7731.11    1.082344e-01
   7731.40    1.125170e-01
   7731.69    1.149164e-01
   7731.98    1.155964e-01
   7732.27    1.148727e-01
   7732.56    1.132270e-01
   7732.84    1.111282e-01
   7733.13    1.088676e-01
   7733.42    1.066488e-01
   7733.71    1.046040e-01
   7734.00    1.028121e-01
   7734.29    1.013500e-01
   7734.58    1.001944e-01
   7734.87    9.933756e-02
   7735.16    9.876113e-02
   7735.44    9.843942e-02
   7735.73    9.834211e-02
   7736.02    9.844673e-02
   7736.31    9.871008e-02
   7736.60    9.908686e-02
   7736.89    9.954084e-02
   7737.18    1.000361e-01
   7737.47    1.005385e-01
   7737.76    1.010159e-01
   7738.04    1.014359e-01
   7738.33    1.017847e-01
   7738.62    1.020542e-01
   7738.91    1.022449e-01
   7739.20    1.023650e-01
   7739.49    1.024292e-01
   7739.78    1.024549e-01
   7740.07    1.024755e-01
   7740.36    1.025257e-01
   7740.64    1.025760e-01
   7740.93    1.026262e-01
   7741.22    1.027962e-01
   7741.51    1.030021e-01
   7741.80    1.032081e-01
   7742.09    1.034423e-01
   7742.38    1.037403e-01
   7742.67    1.040383e-01
   7742.96    1.043363e-01
   7743.24    1.045448e-01
   7743.53    1.047371e-01
   7743.82    1.049295e-01
   7744.11    1.050143e-01
   7744.40    1.049271e-01
   7744.69    1.048399e-01
   7744.98    1.047527e-01
   7745.27    1.043506e-01
   7745.56    1.039223e-01
   7745.84    1.034939e-01
   7746.13    1.029321e-01
   7746.42    1.022146e-01
   7746.71    1.014970e-01
   7747.00    1.007795e-01
   7747.29    9.989630e-02
   7747.58    9.901312e-02
   7747.87    9.812995e-02
   7748.16    9.722289e-02
   7748.44    9.629536e-02
   7748.73    9.536783e-02
   7749.02    9.444397e-02
   7749.31    9.356413e-02
   7749.60    9.268429e-02
   7749.89    9.180445e-02
   7750.18    9.098857e-02
   7750.47    9.021265e-02
   7750.76    8.943674e-02
   7751.04    8.867989e-02
   7751.33    8.802790e-02
   7751.62    8.737592e-02
   7751.91    8.672394e-02
   7752.20    8.615235e-02
   7752.49    8.561650e-02
   7752.78    8.508064e-02
   7753.07    8.456602e-02
   7753.36    8.412219e-02
   7753.64    8.367835e-02
   7753.93    8.323452e-02
   7754.22    8.283808e-02
   7754.51    8.245585e-02
   7754.80    8.207363e-02
   7755.09    8.170141e-02
   7755.38    8.135171e-02
   7755.67    8.100200e-02
   7755.96    8.065230e-02
   7756.24    8.031161e-02
   7756.53    7.997257e-02
   7756.82    7.963352e-02
   7757.11    7.929515e-02
   7757.40    7.895785e-02
   7757.69    7.862055e-02
   7757.98    7.828325e-02
   7758.27    7.795794e-02
   7758.56    7.763364e-02
   7758.84    7.730933e-02
   7759.13    7.700717e-02
   7759.42    7.673085e-02
   7759.71    7.645453e-02
   7760.00    7.617821e-02
