 FDMNES
  energy    <xanes>
   7695.00    5.350330e-04
   7695.29    5.407364e-04
   7695.58    5.464399e-04
   7695.87    5.521434e-04
   7696.16    5.580617e-04
   7696.44    5.641641e-04
   7696.73    5.702665e-04
   7697.02    5.764029e-04
   7697.31    5.829465e-04
   7697.60    5.894902e-04
   7697.89    5.960338e-04
   7698.18    6.028788e-04
   7698.47    6.099121e-04
   7698.76    6.169454e-04
   7699.04    6.240625e-04
   7699.33    6.316410e-04
   7699.62    6.392196e-04
   7699.91    6.467981e-04
   7700.20    6.547986e-04
   7700.49    6.629866e-04
   7700.78    6.711747e-04
   7701.07    6.795207e-04
   7701.36    6.883929e-04
   7701.64    6.972652e-04
   7701.93    7.061375e-04
   7702.22    7.156032e-04
   7702.51    7.252469e-04
   7702.80    7.348907e-04
   7703.09    7.448033e-04
   7703.38    7.553211e-04
   7703.67    7.658389e-04
   7703.96    7.763566e-04
   7704.24    7.877167e-04
   7704.53    7.992298e-04
   7704.82    8.107430e-04
   7705.11    8.226947e-04
   7705.40    8.353479e-04
   7705.69    8.480012e-04
   7705.98    8.606545e-04
   7706.27    8.745206e-04
   7706.56    8.884879e-04
   7706.84    9.024551e-04
   7707.13    9.171260e-04
   7707.42    9.326180e-04
   7707.71    9.481099e-04
   7708.00    9.636018e-04
   7708.29    9.808765e-04
   7708.58    9.981511e-04
   7708.87    1.015426e-03
   7709.16    1.033832e-03
   7709.44    1.053208e-03
   7709.73    1.072585e-03
   7710.02    1.092154e-03
   7710.31    1.114032e-03
   7710.60    1.135909e-03
   7710.89    1.157787e-03
   7711.18    1.181517e-03
   7711.47    1.206403e-03
   7711.76    1.231290e-03
   7712.04    1.256740e-03
   7712.33    1.285288e-03
   7712.62    1.313837e-03
   7712.91    1.342386e-03
   7713.20    1.374064e-03
   7713.49    1.407133e-03
   7713.78    1.440202e-03
   7714.07    1.474579e-03
   7714.36    1.513317e-03
   7714.64    1.552054e-03
   7714.93    1.590792e-03
   7715.22    1.635102e-03
   7715.51    1.681085e-03
   7715.80    1.727067e-03
   7716.09    1.775964e-03
   7716.38    1.831418e-03
   7716.67    1.886872e-03
   7716.96    1.942326e-03
   7717.24    2.008555e-03
   7717.53    2.076742e-03
   7717.82    2.144930e-03
   7718.11    2.219938e-03
   7718.40    2.305858e-03
   7718.69    2.391779e-03
   7718.98    2.477700e-03
   7719.27    2.587504e-03
   7719.56    2.699297e-03
   7719.84    2.811091e-03
   7720.13    2.941470e-03
   7720.42    3.093534e-03
   7720.71    3.245597e-03
   7721.00    3.397661e-03
   7721.29    3.618790e-03
   7721.58    3.839920e-03
   7721.87    4.061049e-03
   7722.16    4.357171e-03
   7722.44    4.717574e-03
   7722.73    5.077976e-03
   7723.02    5.467717e-03
   7723.31    6.209509e-03
   7723.60    6.951301e-03
   7723.89    7.693094e-03
   7724.18    9.340418e-03
   7724.47    1.155370e-02
   7724.76    1.376698e-02
   7725.04    1.614358e-02
   7725.33    1.929808e-02
   7725.62    2.203163e-02
   7725.91    2.443996e-02
   7726.20    2.681335e-02
   7726.49    2.936190e-02
   7726.78    3.219138e-02
   7727.07    3.551829e-02
   7727.36    3.946736e-02
   7727.64    4.428125e-02
   7727.93    5.014890e-02
   7728.22    5.711240e-02
   7728.51    6.520523e-02
   7728.80    7.402424e-02
   7729.09    8.337112e-02
   7729.38    9.284785e-02
   7729.67    1.019558e-01
   7729.96    1.100145e-01
   7730.24    1.162219e-01
   7730.53    1.198837e-01
   7730.82    1.212679e-01
   7731.11    1.209128e-01
   7731.40    1.194028e-01
   7731.69    1.172185e-01
   7731.98    1.146845e-01
   7732.27    1.120052e-01
   7732.56    1.093316e-01
   7732.84    1.067636e-01
   7733.13    1.043661e-01
   7733.42    1.021787e-01
   7733.71    1.002201e-01
   7734.00    9.849263e-02
   7734.29    9.701391e-02
   7734.58    9.574634e-02
   7734.87    9.468039e-02
   7735.16    9.380565e-02
   7735.44    9.310853e-02
   7735.73    9.257073e-02
   7736.02    9.217655e-02
   7736.31    9.189315e-02
   7736.60    9.168699e-02
   7736.89    9.153445e-02
   7737.18    9.141770e-02
   7737.47    9.132642e-02
   7737.76    9.125864e-02
   7738.04    9.122266e-02
   7738.33    9.122705e-02
   7738.62    9.128484e-02
   7738.91    9.140905e-02
   7739.20    9.161084e-02
   7739.49    9.189834e-02
   7739.78    9.228348e-02
   7740.07    9.278109e-02
   7740.36    9.340484e-02
   7740.64    9.402859e-02
   7740.93    9.465234e-02
   7741.22    9.536646e-02
   7741.51    9.610768e-02
   7741.80    9.684891e-02
   7742.09    9.754967e-02
   7742.38    9.815940e-02
   7742.67    9.876912e-02
   7742.96    9.937885e-02
   7743.24    9.968038e-02
   7743.53    9.992588e-02
   7743.82    1.001714e-01
   7744.11    1.002397e-01
   7744.40    1.000245e-01
   7744.69    9.980934e-02
   7744.98    9.959416e-02
   7745.27    9.903043e-02
   7745.56    9.843764e-02
   7745.84    9.784486e-02
   7746.13    9.716025e-02
   7746.42    9.636852e-02
   7746.71    9.557678e-02
   7747.00    9.478504e-02
   7747.29    9.395275e-02
   7747.58    9.312046e-02
   7747.87    9.228817e-02
   7748.16    9.148193e-02
   7748.44    9.069802e-02
   7748.73    8.991411e-02
   7749.02    8.913674e-02
   7749.31    8.843798e-02
   7749.60    8.773922e-02
   7749.89    8.704046e-02
   7750.18    8.640428e-02
   7750.47    8.580720e-02
   7750.76    8.521012e-02
   7751.04    8.462907e-02
   7751.33    8.413625e-02
   7751.62    8.364343e-02
   7751.91    8.315060e-02
   7752.20    8.271512e-02
   7752.49    8.230513e-02
   7752.78    8.189514e-02
   7753.07    8.149596e-02
   7753.36    8.113284e-02
   7753.64    8.076971e-02
   7753.93    8.040658e-02
   7754.22    8.005252e-02
   7754.51    7.970117e-02
   7754.80    7.934982e-02
   7755.09    7.899474e-02
   7755.38    7.863125e-02
   7755.67    7.826776e-02
   7755.96    7.790427e-02
   7756.24    7.752480e-02
   7756.53    7.714243e-02
   7756.82    7.676005e-02
   7757.11    7.637525e-02
   7757.40    7.598658e-02
   7757.69    7.559791e-02
   7757.98    7.520924e-02
   7758.27    7.484295e-02
   7758.56    7.447852e-02
   7758.84    7.411409e-02
   7759.13    7.377994e-02
   7759.42    7.348114e-02
   7759.71    7.318233e-02
   7760.00    7.288352e-02
