 FDMNES
  energy    <xanes>
   7695.00    5.273407e-04
   7695.29    5.331093e-04
   7695.58    5.388778e-04
   7695.87    5.446464e-04
   7696.16    5.506362e-04
   7696.44    5.568156e-04
   7696.73    5.629950e-04
   7697.02    5.692094e-04
   7697.31    5.758438e-04
   7697.60    5.824781e-04
   7697.89    5.891124e-04
   7698.18    5.960577e-04
   7698.47    6.031974e-04
   7698.76    6.103371e-04
   7699.04    6.175635e-04
   7699.33    6.252667e-04
   7699.62    6.329698e-04
   7699.91    6.406730e-04
   7700.20    6.488128e-04
   7700.49    6.571467e-04
   7700.78    6.654805e-04
   7701.07    6.739779e-04
   7701.36    6.830206e-04
   7701.64    6.920633e-04
   7701.93    7.011059e-04
   7702.22    7.107641e-04
   7702.51    7.206070e-04
   7702.80    7.304498e-04
   7703.09    7.405720e-04
   7703.38    7.513225e-04
   7703.67    7.620730e-04
   7703.96    7.728235e-04
   7704.24    7.844498e-04
   7704.53    7.962353e-04
   7704.82    8.080207e-04
   7705.11    8.202627e-04
   7705.40    8.332350e-04
   7705.69    8.462074e-04
   7705.98    8.591797e-04
   7706.27    8.734161e-04
   7706.56    8.877578e-04
   7706.84    9.020996e-04
   7707.13    9.171756e-04
   7707.42    9.331082e-04
   7707.71    9.490408e-04
   7708.00    9.649733e-04
   7708.29    9.827678e-04
   7708.58    1.000562e-03
   7708.87    1.018357e-03
   7709.16    1.037335e-03
   7709.44    1.057326e-03
   7709.73    1.077318e-03
   7710.02    1.097511e-03
   7710.31    1.120120e-03
   7710.60    1.142729e-03
   7710.89    1.165338e-03
   7711.18    1.189885e-03
   7711.47    1.215644e-03
   7711.76    1.241402e-03
   7712.04    1.267751e-03
   7712.33    1.297345e-03
   7712.62    1.326938e-03
   7712.91    1.356532e-03
   7713.20    1.389402e-03
   7713.49    1.423728e-03
   7713.78    1.458055e-03
   7714.07    1.493750e-03
   7714.36    1.534008e-03
   7714.64    1.574265e-03
   7714.93    1.614523e-03
   7715.22    1.660603e-03
   7715.51    1.708430e-03
   7715.80    1.756256e-03
   7716.09    1.807119e-03
   7716.38    1.864814e-03
   7716.67    1.922510e-03
   7716.96    1.980205e-03
   7717.24    2.049075e-03
   7717.53    2.119976e-03
   7717.82    2.190878e-03
   7718.11    2.268801e-03
   7718.40    2.357959e-03
   7718.69    2.447117e-03
   7718.98    2.536275e-03
   7719.27    2.649724e-03
   7719.56    2.765198e-03
   7719.84    2.880672e-03
   7720.13    3.014673e-03
   7720.42    3.170290e-03
   7720.71    3.325907e-03
   7721.00    3.481524e-03
   7721.29    3.703638e-03
   7721.58    3.925753e-03
   7721.87    4.147867e-03
   7722.16    4.437771e-03
   7722.44    4.785780e-03
   7722.73    5.133790e-03
   7723.02    5.505408e-03
   7723.31    6.160327e-03
   7723.60    6.815247e-03
   7723.89    7.470167e-03
   7724.18    8.775627e-03
   7724.47    1.048767e-02
   7724.76    1.219972e-02
   7725.04    1.406040e-02
   7725.33    1.678226e-02
   7725.62    1.963493e-02
   7725.91    2.279404e-02
   7726.20    2.644622e-02
   7726.49    3.095416e-02
   7726.78    3.621570e-02
   7727.07    4.213654e-02
   7727.36    4.827554e-02
   7727.64    5.433586e-02
   7727.93    6.026120e-02
   7728.22    6.619796e-02
   7728.51    7.249442e-02
   7728.80    7.947505e-02
   7729.09    8.760010e-02
   7729.38    9.659632e-02
   7729.67    1.061426e-01
   7729.96    1.154862e-01
   7730.24    1.237964e-01
   7730.53    1.301157e-01
   7730.82    1.341113e-01
   7731.11    1.358063e-01
   7731.40    1.354815e-01
   7731.69    1.335477e-01
   7731.98    1.304282e-01
   7732.27    1.264890e-01
   7732.56    1.221047e-01
   7732.84    1.175950e-01
   7733.13    1.131791e-01
   7733.42    1.090347e-01
   7733.71    1.053020e-01
   7734.00    1.020784e-01
   7734.29    9.947775e-02
   7734.58    9.743033e-02
   7734.87    9.590214e-02
   7735.16    9.484173e-02
   7735.44    9.418528e-02
   7735.73    9.385953e-02
   7736.02    9.379547e-02
   7736.31    9.389325e-02
   7736.60    9.406071e-02
   7736.89    9.422740e-02
   7737.18    9.433828e-02
   7737.47    9.435811e-02
   7737.76    9.427149e-02
   7738.04    9.407936e-02
   7738.33    9.381806e-02
   7738.62    9.352082e-02
   7738.91    9.322254e-02
   7739.20    9.295481e-02
   7739.49    9.274261e-02
   7739.78    9.260932e-02
   7740.07    9.257872e-02
   7740.36    9.266929e-02
   7740.64    9.275986e-02
   7740.93    9.285043e-02
   7741.22    9.303460e-02
   7741.51    9.324686e-02
   7741.80    9.345911e-02
   7742.09    9.364031e-02
   7742.38    9.375166e-02
   7742.67    9.386300e-02
   7742.96    9.397434e-02
   7743.24    9.386335e-02
   7743.53    9.371194e-02
   7743.82    9.356052e-02
   7744.11    9.330038e-02
   7744.40    9.286626e-02
   7744.69    9.243215e-02
   7744.98    9.199804e-02
   7745.27    9.139315e-02
   7745.56    9.077402e-02
   7745.84    9.015490e-02
   7746.13    8.950722e-02
   7746.42    8.882623e-02
   7746.71    8.814524e-02
   7747.00    8.746425e-02
   7747.29    8.681140e-02
   7747.58    8.615855e-02
   7747.87    8.550569e-02
   7748.16    8.489577e-02
   7748.44    8.432264e-02
   7748.73    8.374951e-02
   7749.02    8.318405e-02
   7749.31    8.271061e-02
   7749.60    8.223718e-02
   7749.89    8.176375e-02
   7750.18    8.134625e-02
   7750.47    8.096371e-02
   7750.76    8.058117e-02
   7751.04    8.020796e-02
   7751.33    7.988606e-02
   7751.62    7.956417e-02
   7751.91    7.924228e-02
   7752.20    7.893528e-02
   7752.49    7.863489e-02
   7752.78    7.833451e-02
   7753.07    7.803079e-02
   7753.36    7.771597e-02
   7753.64    7.740114e-02
   7753.93    7.708632e-02
   7754.22    7.674179e-02
   7754.51    7.638835e-02
   7754.80    7.603491e-02
   7755.09    7.566723e-02
   7755.38    7.526751e-02
   7755.67    7.486780e-02
   7755.96    7.446808e-02
   7756.24    7.403756e-02
   7756.53    7.360143e-02
   7756.82    7.316531e-02
   7757.11    7.272512e-02
   7757.40    7.227842e-02
   7757.69    7.183173e-02
   7757.98    7.138503e-02
   7758.27    7.096526e-02
   7758.56    7.054772e-02
   7758.84    7.013019e-02
   7759.13    6.974818e-02
   7759.42    6.940760e-02
   7759.71    6.906702e-02
   7760.00    6.872644e-02
