 FDMNES
  energy    <xanes>
   7695.00    5.381707e-04
   7695.29    5.438470e-04
   7695.58    5.495233e-04
   7695.87    5.551997e-04
   7696.16    5.610882e-04
   7696.44    5.671585e-04
   7696.73    5.732288e-04
   7697.02    5.793326e-04
   7697.31    5.858384e-04
   7697.60    5.923441e-04
   7697.89    5.988499e-04
   7698.18    6.056529e-04
   7698.47    6.126417e-04
   7698.76    6.196305e-04
   7699.04    6.267019e-04
   7699.33    6.342283e-04
   7699.62    6.417547e-04
   7699.91    6.492810e-04
   7700.20    6.572232e-04
   7700.49    6.653502e-04
   7700.78    6.734772e-04
   7701.07    6.817597e-04
   7701.36    6.905606e-04
   7701.64    6.993614e-04
   7701.93    7.081623e-04
   7702.22    7.175473e-04
   7702.51    7.271076e-04
   7702.80    7.366679e-04
   7703.09    7.464927e-04
   7703.38    7.569129e-04
   7703.67    7.673330e-04
   7703.96    7.777532e-04
   7704.24    7.890016e-04
   7704.53    8.004005e-04
   7704.82    8.117994e-04
   7705.11    8.236293e-04
   7705.40    8.361487e-04
   7705.69    8.486681e-04
   7705.98    8.611875e-04
   7706.27    8.748982e-04
   7706.56    8.887083e-04
   7706.84    9.025183e-04
   7707.13    9.170192e-04
   7707.42    9.323261e-04
   7707.71    9.476330e-04
   7708.00    9.629399e-04
   7708.29    9.799961e-04
   7708.58    9.970523e-04
   7708.87    1.014108e-03
   7709.16    1.032275e-03
   7709.44    1.051392e-03
   7709.73    1.070510e-03
   7710.02    1.089816e-03
   7710.31    1.111386e-03
   7710.60    1.132956e-03
   7710.89    1.154525e-03
   7711.18    1.177909e-03
   7711.47    1.202427e-03
   7711.76    1.226945e-03
   7712.04    1.252015e-03
   7712.33    1.280120e-03
   7712.62    1.308225e-03
   7712.91    1.336330e-03
   7713.20    1.367499e-03
   7713.49    1.400029e-03
   7713.78    1.432559e-03
   7714.07    1.466369e-03
   7714.36    1.504447e-03
   7714.64    1.542524e-03
   7714.93    1.580601e-03
   7715.22    1.624129e-03
   7715.51    1.669291e-03
   7715.80    1.714453e-03
   7716.09    1.762463e-03
   7716.38    1.816880e-03
   7716.67    1.871297e-03
   7716.96    1.925715e-03
   7717.24    1.990644e-03
   7717.53    2.057485e-03
   7717.82    2.124327e-03
   7718.11    2.197806e-03
   7718.40    2.281906e-03
   7718.69    2.366006e-03
   7718.98    2.450106e-03
   7719.27    2.557339e-03
   7719.56    2.666500e-03
   7719.84    2.775661e-03
   7720.13    2.902658e-03
   7720.42    3.050463e-03
   7720.71    3.198268e-03
   7721.00    3.346073e-03
   7721.29    3.558906e-03
   7721.58    3.771740e-03
   7721.87    3.984573e-03
   7722.16    4.265232e-03
   7722.44    4.604026e-03
   7722.73    4.942821e-03
   7723.02    5.306000e-03
   7723.31    5.961778e-03
   7723.60    6.617557e-03
   7723.89    7.273335e-03
   7724.18    8.626293e-03
   7724.47    1.041499e-02
   7724.76    1.220368e-02
   7725.04    1.415805e-02
   7725.33    1.707730e-02
   7725.62    2.012578e-02
   7725.91    2.338232e-02
   7726.20    2.694906e-02
   7726.49    3.106101e-02
   7726.78    3.572631e-02
   7727.07    4.112857e-02
   7727.36    4.720207e-02
   7727.64    5.383772e-02
   7727.93    6.070216e-02
   7728.22    6.735010e-02
   7728.51    7.338367e-02
   7728.80    7.880915e-02
   7729.09    8.370612e-02
   7729.38    8.843594e-02
   7729.67    9.306951e-02
   7729.96    9.739477e-02
   7730.24    1.009160e-01
   7730.53    1.029730e-01
   7730.82    1.034362e-01
   7731.11    1.025434e-01
   7731.40    1.007729e-01
   7731.69    9.865706e-02
   7731.98    9.662044e-02
   7732.27    9.493989e-02
   7732.56    9.372099e-02
   7732.84    9.291818e-02
   7733.13    9.247559e-02
   7733.42    9.233337e-02
   7733.71    9.244021e-02
   7734.00    9.275665e-02
   7734.29    9.327521e-02
   7734.58    9.395518e-02
   7734.87    9.478000e-02
   7735.16    9.572701e-02
   7735.44    9.676314e-02
   7735.73    9.784328e-02
   7736.02    9.890590e-02
   7736.31    9.987809e-02
   7736.60    1.006979e-01
   7736.89    1.013111e-01
   7737.18    1.016791e-01
   7737.47    1.017838e-01
   7737.76    1.016249e-01
   7738.04    1.012121e-01
   7738.33    1.006157e-01
   7738.62    9.988864e-02
   7738.91    9.908660e-02
   7739.20    9.826279e-02
   7739.49    9.746382e-02
   7739.78    9.673478e-02
   7740.07    9.613890e-02
   7740.36    9.573926e-02
   7740.64    9.533961e-02
   7740.93    9.493997e-02
   7741.22    9.486822e-02
   7741.51    9.489483e-02
   7741.80    9.492144e-02
   7742.09    9.504028e-02
   7742.38    9.536664e-02
   7742.67    9.569300e-02
   7742.96    9.601936e-02
   7743.24    9.641747e-02
   7743.53    9.682863e-02
   7743.82    9.723980e-02
   7744.11    9.759897e-02
   7744.40    9.787495e-02
   7744.69    9.815093e-02
   7744.98    9.842692e-02
   7745.27    9.843891e-02
   7745.56    9.842890e-02
   7745.84    9.841889e-02
   7746.13    9.826080e-02
   7746.42    9.792995e-02
   7746.71    9.759910e-02
   7747.00    9.726825e-02
   7747.29    9.668936e-02
   7747.58    9.611047e-02
   7747.87    9.553158e-02
   7748.16    9.488689e-02
   7748.44    9.418581e-02
   7748.73    9.348473e-02
   7749.02    9.278316e-02
   7749.31    9.207568e-02
   7749.60    9.136820e-02
   7749.89    9.066072e-02
   7750.18    8.999200e-02
   7750.47    8.934751e-02
   7750.76    8.870301e-02
   7751.04    8.807130e-02
   7751.33    8.750994e-02
   7751.62    8.694858e-02
   7751.91    8.638722e-02
   7752.20    8.587466e-02
   7752.49    8.538379e-02
   7752.78    8.489293e-02
   7753.07    8.441264e-02
   7753.36    8.396758e-02
   7753.64    8.352253e-02
   7753.93    8.307747e-02
   7754.22    8.264949e-02
   7754.51    8.222663e-02
   7754.80    8.180378e-02
   7755.09    8.138267e-02
   7755.38    8.096550e-02
   7755.67    8.054833e-02
   7755.96    8.013116e-02
   7756.24    7.971338e-02
   7756.53    7.929549e-02
   7756.82    7.887760e-02
   7757.11    7.846187e-02
   7757.40    7.804957e-02
   7757.69    7.763727e-02
   7757.98    7.722498e-02
   7758.27    7.683887e-02
   7758.56    7.645494e-02
   7758.84    7.607101e-02
   7759.13    7.571819e-02
   7759.42    7.540166e-02
   7759.71    7.508514e-02
   7760.00    7.476861e-02
