 FDMNES
  energy    <xanes>
   7695.00    5.177622e-04
   7695.29    5.234371e-04
   7695.58    5.291121e-04
   7695.87    5.347871e-04
   7696.16    5.406789e-04
   7696.44    5.467567e-04
   7696.73    5.528344e-04
   7697.02    5.589464e-04
   7697.31    5.654698e-04
   7697.60    5.719932e-04
   7697.89    5.785167e-04
   7698.18    5.853446e-04
   7698.47    5.923629e-04
   7698.76    5.993812e-04
   7699.04    6.064844e-04
   7699.33    6.140541e-04
   7699.62    6.216239e-04
   7699.91    6.291936e-04
   7700.20    6.371904e-04
   7700.49    6.453769e-04
   7700.78    6.535635e-04
   7701.07    6.619099e-04
   7701.36    6.707893e-04
   7701.64    6.796686e-04
   7701.93    6.885480e-04
   7702.22    6.980284e-04
   7702.51    7.076893e-04
   7702.80    7.173501e-04
   7703.09    7.272835e-04
   7703.38    7.378301e-04
   7703.67    7.483768e-04
   7703.96    7.589234e-04
   7704.24    7.703240e-04
   7704.53    7.818799e-04
   7704.82    7.934358e-04
   7705.11    8.054364e-04
   7705.40    8.181485e-04
   7705.69    8.308607e-04
   7705.98    8.435729e-04
   7706.27    8.575154e-04
   7706.56    8.715606e-04
   7706.84    8.856057e-04
   7707.13    9.003648e-04
   7707.42    9.159569e-04
   7707.71    9.315490e-04
   7708.00    9.471411e-04
   7708.29    9.645418e-04
   7708.58    9.819426e-04
   7708.87    9.993434e-04
   7709.16    1.017892e-03
   7709.44    1.037425e-03
   7709.73    1.056958e-03
   7710.02    1.076686e-03
   7710.31    1.098755e-03
   7710.60    1.120825e-03
   7710.89    1.142894e-03
   7711.18    1.166840e-03
   7711.47    1.191958e-03
   7711.76    1.217077e-03
   7712.04    1.242766e-03
   7712.33    1.271592e-03
   7712.62    1.300418e-03
   7712.91    1.329244e-03
   7713.20    1.361234e-03
   7713.49    1.394629e-03
   7713.78    1.428025e-03
   7714.07    1.462740e-03
   7714.36    1.501855e-03
   7714.64    1.540970e-03
   7714.93    1.580085e-03
   7715.22    1.624806e-03
   7715.51    1.671209e-03
   7715.80    1.717613e-03
   7716.09    1.766936e-03
   7716.38    1.822831e-03
   7716.67    1.878726e-03
   7716.96    1.934621e-03
   7717.24    2.001253e-03
   7717.53    2.069837e-03
   7717.82    2.138421e-03
   7718.11    2.213750e-03
   7718.40    2.299868e-03
   7718.69    2.385986e-03
   7718.98    2.472104e-03
   7719.27    2.581567e-03
   7719.56    2.692976e-03
   7719.84    2.804385e-03
   7720.13    2.933652e-03
   7720.42    3.083755e-03
   7720.71    3.233857e-03
   7721.00    3.383960e-03
   7721.29    3.598670e-03
   7721.58    3.813380e-03
   7721.87    4.028091e-03
   7722.16    4.309961e-03
   7722.44    4.649398e-03
   7722.73    4.988834e-03
   7723.02    5.352744e-03
   7723.31    6.010335e-03
   7723.60    6.667925e-03
   7723.89    7.325515e-03
   7724.18    8.700141e-03
   7724.47    1.052291e-02
   7724.76    1.234569e-02
   7725.04    1.432141e-02
   7725.33    1.710584e-02
   7725.62    1.969650e-02
   7725.91    2.208884e-02
   7726.20    2.453394e-02
   7726.49    2.737945e-02
   7726.78    3.078490e-02
   7727.07    3.507002e-02
   7727.36    4.031157e-02
   7727.64    4.665673e-02
   7727.93    5.403108e-02
   7728.22    6.208662e-02
   7728.51    7.047230e-02
   7728.80    7.898690e-02
   7729.09    8.792324e-02
   7729.38    9.737702e-02
   7729.67    1.070437e-01
   7729.96    1.160374e-01
   7730.24    1.232873e-01
   7730.53    1.277159e-01
   7730.82    1.293023e-01
   7731.11    1.285131e-01
   7731.40    1.260849e-01
   7731.69    1.227899e-01
   7731.98    1.192384e-01
   7732.27    1.158204e-01
   7732.56    1.127174e-01
   7732.84    1.099383e-01
   7733.13    1.074581e-01
   7733.42    1.052439e-01
   7733.71    1.032736e-01
   7734.00    1.015378e-01
   7734.29    1.000635e-01
   7734.58    9.882599e-02
   7734.87    9.782734e-02
   7735.16    9.706479e-02
   7735.44    9.652616e-02
   7735.73    9.618661e-02
   7736.02    9.601513e-02
   7736.31    9.595046e-02
   7736.60    9.592729e-02
   7736.89    9.588977e-02
   7737.18    9.579089e-02
   7737.47    9.559867e-02
   7737.76    9.529858e-02
   7738.04    9.489242e-02
   7738.33    9.441934e-02
   7738.62    9.391755e-02
   7738.91    9.342884e-02
   7739.20    9.299276e-02
   7739.49    9.264236e-02
   7739.78    9.241221e-02
   7740.07    9.234857e-02
   7740.36    9.249697e-02
   7740.64    9.264538e-02
   7740.93    9.279379e-02
   7741.22    9.320884e-02
   7741.51    9.370387e-02
   7741.80    9.419891e-02
   7742.09    9.472871e-02
   7742.38    9.533671e-02
   7742.67    9.594472e-02
   7742.96    9.655272e-02
   7743.24    9.700541e-02
   7743.53    9.742985e-02
   7743.82    9.785429e-02
   7744.11    9.811633e-02
   7744.40    9.811855e-02
   7744.69    9.812076e-02
   7744.98    9.812297e-02
   7745.27    9.769781e-02
   7745.56    9.723704e-02
   7745.84    9.677626e-02
   7746.13    9.617629e-02
   7746.42    9.541393e-02
   7746.71    9.465156e-02
   7747.00    9.388920e-02
   7747.29    9.302886e-02
   7747.58    9.216852e-02
   7747.87    9.130818e-02
   7748.16    9.047141e-02
   7748.44    8.965484e-02
   7748.73    8.883828e-02
   7749.02    8.803022e-02
   7749.31    8.732430e-02
   7749.60    8.661839e-02
   7749.89    8.591247e-02
   7750.18    8.527884e-02
   7750.47    8.469038e-02
   7750.76    8.410193e-02
   7751.04    8.352659e-02
   7751.33    8.302341e-02
   7751.62    8.252024e-02
   7751.91    8.201706e-02
   7752.20    8.153965e-02
   7752.49    8.107370e-02
   7752.78    8.060775e-02
   7753.07    8.013992e-02
   7753.36    7.966584e-02
   7753.64    7.919175e-02
   7753.93    7.871767e-02
   7754.22    7.821303e-02
   7754.51    7.769923e-02
   7754.80    7.718543e-02
   7755.09    7.665576e-02
   7755.38    7.609041e-02
   7755.67    7.552506e-02
   7755.96    7.495971e-02
   7756.24    7.435953e-02
   7756.53    7.375301e-02
   7756.82    7.314650e-02
   7757.11    7.253646e-02
   7757.40    7.192079e-02
   7757.69    7.130512e-02
   7757.98    7.068944e-02
   7758.27    7.011286e-02
   7758.56    6.953953e-02
   7758.84    6.896620e-02
   7759.13    6.844174e-02
   7759.42    6.797429e-02
   7759.71    6.750684e-02
   7760.00    6.703939e-02
