 FDMNES
  energy    <xanes>
   7695.00    5.480383e-04
   7695.29    5.537008e-04
   7695.58    5.593633e-04
   7695.87    5.650258e-04
   7696.16    5.708959e-04
   7696.44    5.769441e-04
   7696.73    5.829923e-04
   7697.02    5.890732e-04
   7697.31    5.955471e-04
   7697.60    6.020209e-04
   7697.89    6.084948e-04
   7698.18    6.152586e-04
   7698.47    6.222037e-04
   7698.76    6.291487e-04
   7699.04    6.361744e-04
   7699.33    6.436430e-04
   7699.62    6.511116e-04
   7699.91    6.585802e-04
   7700.20    6.664530e-04
   7700.49    6.745053e-04
   7700.78    6.825577e-04
   7701.07    6.907609e-04
   7701.36    6.994668e-04
   7701.64    7.081728e-04
   7701.93    7.168787e-04
   7702.22    7.261499e-04
   7702.51    7.355906e-04
   7702.80    7.450314e-04
   7703.09    7.547275e-04
   7703.38    7.649983e-04
   7703.67    7.752690e-04
   7703.96    7.855398e-04
   7704.24    7.966080e-04
   7704.53    8.078211e-04
   7704.82    8.190342e-04
   7705.11    8.306610e-04
   7705.40    8.429498e-04
   7705.69    8.552387e-04
   7705.98    8.675275e-04
   7706.27    8.809566e-04
   7706.56    8.944808e-04
   7706.84    9.080050e-04
   7707.13    9.221884e-04
   7707.42    9.371407e-04
   7707.71    9.520930e-04
   7708.00    9.670453e-04
   7708.29    9.836606e-04
   7708.58    1.000276e-03
   7708.87    1.016891e-03
   7709.16    1.034558e-03
   7709.44    1.053125e-03
   7709.73    1.071693e-03
   7710.02    1.090439e-03
   7710.31    1.111319e-03
   7710.60    1.132200e-03
   7710.89    1.153080e-03
   7711.18    1.175664e-03
   7711.47    1.199313e-03
   7711.76    1.222961e-03
   7712.04    1.247125e-03
   7712.33    1.274125e-03
   7712.62    1.301126e-03
   7712.91    1.328126e-03
   7713.20    1.357973e-03
   7713.49    1.389086e-03
   7713.78    1.420199e-03
   7714.07    1.452495e-03
   7714.36    1.488734e-03
   7714.64    1.524974e-03
   7714.93    1.561213e-03
   7715.22    1.602457e-03
   7715.51    1.645204e-03
   7715.80    1.687950e-03
   7716.09    1.733295e-03
   7716.38    1.784487e-03
   7716.67    1.835679e-03
   7716.96    1.886870e-03
   7717.24    1.947593e-03
   7717.53    2.010048e-03
   7717.82    2.072503e-03
   7718.11    2.140938e-03
   7718.40    2.218943e-03
   7718.69    2.296947e-03
   7718.98    2.374951e-03
   7719.27    2.473694e-03
   7719.56    2.574165e-03
   7719.84    2.674636e-03
   7720.13    2.791069e-03
   7720.42    2.926126e-03
   7720.71    3.061182e-03
   7721.00    3.196239e-03
   7721.29    3.389833e-03
   7721.58    3.583428e-03
   7721.87    3.777022e-03
   7722.16    4.033035e-03
   7722.44    4.342551e-03
   7722.73    4.652066e-03
   7723.02    4.985266e-03
   7723.31    5.602698e-03
   7723.60    6.220129e-03
   7723.89    6.837560e-03
   7724.18    8.183552e-03
   7724.47    9.984895e-03
   7724.76    1.178624e-02
   7725.04    1.375500e-02
   7725.33    1.663827e-02
   7725.62    1.937398e-02
   7725.91    2.181229e-02
   7726.20    2.403303e-02
   7726.49    2.615285e-02
   7726.78    2.838528e-02
   7727.07    3.095636e-02
   7727.36    3.396050e-02
   7727.64    3.750760e-02
   7727.93    4.165525e-02
   7728.22    4.640055e-02
   7728.51    5.179873e-02
   7728.80    5.771498e-02
   7729.09    6.421668e-02
   7729.38    7.115632e-02
   7729.67    7.854831e-02
   7729.96    8.620841e-02
   7730.24    9.384509e-02
   7730.53    1.008737e-01
   7730.82    1.066773e-01
   7731.11    1.107763e-01
   7731.40    1.129802e-01
   7731.69    1.134577e-01
   7731.98    1.126328e-01
   7732.27    1.109799e-01
   7732.56    1.089561e-01
   7732.84    1.068686e-01
   7733.13    1.048685e-01
   7733.42    1.030346e-01
   7733.71    1.014055e-01
   7734.00    9.999974e-02
   7734.29    9.885652e-02
   7734.58    9.795641e-02
   7734.87    9.730343e-02
   7735.16    9.689605e-02
   7735.44    9.672577e-02
   7735.73    9.677651e-02
   7736.02    9.703506e-02
   7736.31    9.745923e-02
   7736.60    9.799638e-02
   7736.89    9.859751e-02
   7737.18    9.921060e-02
   7737.47    9.978489e-02
   7737.76    1.002739e-01
   7738.04    1.006321e-01
   7738.33    1.008546e-01
   7738.62    1.009428e-01
   7738.91    1.009120e-01
   7739.20    1.007871e-01
   7739.49    1.005985e-01
   7739.78    1.003774e-01
   7740.07    1.001718e-01
   7740.36    1.000279e-01
   7740.64    9.988410e-02
   7740.93    9.974026e-02
   7741.22    9.977076e-02
   7741.51    9.985356e-02
   7741.80    9.993635e-02
   7742.09    1.000742e-01
   7742.38    1.003360e-01
   7742.67    1.005978e-01
   7742.96    1.008596e-01
   7743.24    1.011287e-01
   7743.53    1.013990e-01
   7743.82    1.016693e-01
   7744.11    1.018702e-01
   7744.40    1.019598e-01
   7744.69    1.020494e-01
   7744.98    1.021390e-01
   7745.27    1.019467e-01
   7745.56    1.017309e-01
   7745.84    1.015151e-01
   7746.13    1.011525e-01
   7746.42    1.006185e-01
   7746.71    1.000846e-01
   7747.00    9.955074e-02
   7747.29    9.880080e-02
   7747.58    9.805087e-02
   7747.87    9.730094e-02
   7748.16    9.651968e-02
   7748.44    9.571157e-02
   7748.73    9.490346e-02
   7749.02    9.409932e-02
   7749.31    9.334286e-02
   7749.60    9.258640e-02
   7749.89    9.182994e-02
   7750.18    9.113753e-02
   7750.47    9.048516e-02
   7750.76    8.983279e-02
   7751.04    8.919935e-02
   7751.33    8.867002e-02
   7751.62    8.814069e-02
   7751.91    8.761136e-02
   7752.20    8.716167e-02
   7752.49    8.674738e-02
   7752.78    8.633309e-02
   7753.07    8.593834e-02
   7753.36    8.560872e-02
   7753.64    8.527911e-02
   7753.93    8.494949e-02
   7754.22    8.465302e-02
   7754.51    8.436651e-02
   7754.80    8.407999e-02
   7755.09    8.379457e-02
   7755.38    8.351159e-02
   7755.67    8.322862e-02
   7755.96    8.294565e-02
   7756.24    8.264258e-02
   7756.53    8.233587e-02
   7756.82    8.202915e-02
   7757.11    8.171057e-02
   7757.40    8.137302e-02
   7757.69    8.103546e-02
   7757.98    8.069791e-02
   7758.27    8.035139e-02
   7758.56    8.000413e-02
   7758.84    7.965686e-02
   7759.13    7.932898e-02
   7759.42    7.902370e-02
   7759.71    7.871842e-02
   7760.00    7.841315e-02
