 FDMNES
  energy    <xanes>
   7695.00    5.402652e-04
   7695.29    5.461056e-04
   7695.58    5.519460e-04
   7695.87    5.577863e-04
   7696.16    5.638490e-04
   7696.44    5.701021e-04
   7696.73    5.763553e-04
   7697.02    5.826436e-04
   7697.31    5.893536e-04
   7697.60    5.960636e-04
   7697.89    6.027736e-04
   7698.18    6.097957e-04
   7698.47    6.170130e-04
   7698.76    6.242303e-04
   7699.04    6.315345e-04
   7699.33    6.393171e-04
   7699.62    6.470997e-04
   7699.91    6.548822e-04
   7700.20    6.631026e-04
   7700.49    6.715176e-04
   7700.78    6.799326e-04
   7701.07    6.885115e-04
   7701.36    6.976368e-04
   7701.64    7.067621e-04
   7701.93    7.158874e-04
   7702.22    7.256293e-04
   7702.51    7.355561e-04
   7702.80    7.454829e-04
   7703.09    7.556892e-04
   7703.38    7.665247e-04
   7703.67    7.773601e-04
   7703.96    7.881955e-04
   7704.24    7.999071e-04
   7704.53    8.117780e-04
   7704.82    8.236489e-04
   7705.11    8.359762e-04
   7705.40    8.490339e-04
   7705.69    8.620915e-04
   7705.98    8.751491e-04
   7706.27    8.894699e-04
   7706.56    9.038960e-04
   7706.84    9.183220e-04
   7707.13    9.334814e-04
   7707.42    9.494962e-04
   7707.71    9.655111e-04
   7708.00    9.815259e-04
   7708.29    9.993992e-04
   7708.58    1.017272e-03
   7708.87    1.035146e-03
   7709.16    1.054199e-03
   7709.44    1.074264e-03
   7709.73    1.094329e-03
   7710.02    1.114595e-03
   7710.31    1.137269e-03
   7710.60    1.159943e-03
   7710.89    1.182617e-03
   7711.18    1.207222e-03
   7711.47    1.233034e-03
   7711.76    1.258845e-03
   7712.04    1.285245e-03
   7712.33    1.314876e-03
   7712.62    1.344507e-03
   7712.91    1.374137e-03
   7713.20    1.407029e-03
   7713.49    1.441370e-03
   7713.78    1.475711e-03
   7714.07    1.511414e-03
   7714.36    1.551656e-03
   7714.64    1.591898e-03
   7714.93    1.632140e-03
   7715.22    1.678173e-03
   7715.51    1.725943e-03
   7715.80    1.773713e-03
   7716.09    1.824503e-03
   7716.38    1.882089e-03
   7716.67    1.939674e-03
   7716.96    1.997259e-03
   7717.24    2.065962e-03
   7717.53    2.136686e-03
   7717.82    2.207410e-03
   7718.11    2.285126e-03
   7718.40    2.374029e-03
   7718.69    2.462933e-03
   7718.98    2.551836e-03
   7719.27    2.664971e-03
   7719.56    2.780125e-03
   7719.84    2.895280e-03
   7720.13    3.028977e-03
   7720.42    3.184307e-03
   7720.71    3.339637e-03
   7721.00    3.494967e-03
   7721.29    3.717223e-03
   7721.58    3.939480e-03
   7721.87    4.161737e-03
   7722.16    4.452855e-03
   7722.44    4.802997e-03
   7722.73    5.153140e-03
   7723.02    5.527572e-03
   7723.31    6.193484e-03
   7723.60    6.859396e-03
   7723.89    7.525307e-03
   7724.18    8.878281e-03
   7724.47    1.066067e-02
   7724.76    1.244306e-02
   7725.04    1.439862e-02
   7725.33    1.739021e-02
   7725.62    2.059483e-02
   7725.91    2.406149e-02
   7726.20    2.781873e-02
   7726.49    3.195372e-02
   7726.78    3.636367e-02
   7727.07    4.106884e-02
   7727.36    4.606477e-02
   7727.64    5.142019e-02
   7727.93    5.713364e-02
   7728.22    6.312355e-02
   7728.51    6.938805e-02
   7728.80    7.597754e-02
   7729.09    8.322649e-02
   7729.38    9.118219e-02
   7729.67    9.992035e-02
   7729.96    1.090230e-01
   7730.24    1.178736e-01
   7730.53    1.255267e-01
   7730.82    1.312605e-01
   7731.11    1.346436e-01
   7731.40    1.355995e-01
   7731.69    1.344155e-01
   7731.98    1.316278e-01
   7732.27    1.278304e-01
   7732.56    1.236182e-01
   7732.84    1.194077e-01
   7733.13    1.154266e-01
   7733.42    1.118097e-01
   7733.71    1.086304e-01
   7734.00    1.059194e-01
   7734.29    1.037291e-01
   7734.58    1.019752e-01
   7734.87    1.006160e-01
   7735.16    9.960092e-02
   7735.44    9.887294e-02
   7735.73    9.837037e-02
   7736.02    9.803540e-02
   7736.31    9.779244e-02
   7736.60    9.757575e-02
   7736.89    9.733655e-02
   7737.18    9.703887e-02
   7737.47    9.666179e-02
   7737.76    9.619880e-02
   7738.04    9.565512e-02
   7738.33    9.506194e-02
   7738.62    9.444754e-02
   7738.91    9.384181e-02
   7739.20    9.327268e-02
   7739.49    9.276350e-02
   7739.78    9.233890e-02
   7740.07    9.203269e-02
   7740.36    9.187884e-02
   7740.64    9.172500e-02
   7740.93    9.157115e-02
   7741.22    9.161408e-02
   7741.51    9.171604e-02
   7741.80    9.181800e-02
   7742.09    9.195086e-02
   7742.38    9.215327e-02
   7742.67    9.235567e-02
   7742.96    9.255808e-02
   7743.24    9.270079e-02
   7743.53    9.283265e-02
   7743.82    9.296450e-02
   7744.11    9.302399e-02
   7744.40    9.296768e-02
   7744.69    9.291137e-02
   7744.98    9.285506e-02
   7745.27    9.260169e-02
   7745.56    9.233190e-02
   7745.84    9.206212e-02
   7746.13    9.171459e-02
   7746.42    9.127638e-02
   7746.71    9.083816e-02
   7747.00    9.039994e-02
   7747.29    8.986815e-02
   7747.58    8.933636e-02
   7747.87    8.880458e-02
   7748.16    8.826258e-02
   7748.44    8.771182e-02
   7748.73    8.716107e-02
   7749.02    8.661327e-02
   7749.31    8.610079e-02
   7749.60    8.558832e-02
   7749.89    8.507585e-02
   7750.18    8.460643e-02
   7750.47    8.416391e-02
   7750.76    8.372140e-02
   7751.04    8.329026e-02
   7751.33    8.292174e-02
   7751.62    8.255322e-02
   7751.91    8.218469e-02
   7752.20    8.185433e-02
   7752.49    8.154093e-02
   7752.78    8.122753e-02
   7753.07    8.091945e-02
   7753.36    8.062908e-02
   7753.64    8.033871e-02
   7753.93    8.004834e-02
   7754.22    7.974915e-02
   7754.51    7.944731e-02
   7754.80    7.914548e-02
   7755.09    7.883190e-02
   7755.38    7.849192e-02
   7755.67    7.815194e-02
   7755.96    7.781196e-02
   7756.24    7.743111e-02
   7756.53    7.704283e-02
   7756.82    7.665455e-02
   7757.11    7.625262e-02
   7757.40    7.582884e-02
   7757.69    7.540506e-02
   7757.98    7.498127e-02
   7758.27    7.456093e-02
   7758.56    7.414088e-02
   7758.84    7.372083e-02
   7759.13    7.333037e-02
   7759.42    7.297442e-02
   7759.71    7.261847e-02
   7760.00    7.226253e-02
