 FDMNES
  energy    <xanes>
   7695.00    5.445992e-04
   7695.29    5.501404e-04
   7695.58    5.556815e-04
   7695.87    5.612226e-04
   7696.16    5.669636e-04
   7696.44    5.728759e-04
   7696.73    5.787881e-04
   7697.02    5.847318e-04
   7697.31    5.910529e-04
   7697.60    5.973740e-04
   7697.89    6.036951e-04
   7698.18    6.102943e-04
   7698.47    6.170673e-04
   7698.76    6.238403e-04
   7699.04    6.306903e-04
   7699.33    6.379644e-04
   7699.62    6.452385e-04
   7699.91    6.525125e-04
   7700.20    6.601727e-04
   7700.49    6.680044e-04
   7700.78    6.758361e-04
   7701.07    6.838116e-04
   7701.36    6.922662e-04
   7701.64    7.007209e-04
   7701.93    7.091756e-04
   7702.22    7.181679e-04
   7702.51    7.273215e-04
   7702.80    7.364751e-04
   7703.09    7.458710e-04
   7703.38    7.558121e-04
   7703.67    7.657532e-04
   7703.96    7.756943e-04
   7704.24    7.863900e-04
   7704.53    7.972229e-04
   7704.82    8.080557e-04
   7705.11    8.192791e-04
   7705.40    8.311271e-04
   7705.69    8.429751e-04
   7705.98    8.548231e-04
   7706.27    8.677440e-04
   7706.56    8.807542e-04
   7706.84    8.937645e-04
   7707.13    9.073929e-04
   7707.42    9.217423e-04
   7707.71    9.360918e-04
   7708.00    9.504413e-04
   7708.29    9.663446e-04
   7708.58    9.822480e-04
   7708.87    9.981513e-04
   7709.16    1.015033e-03
   7709.44    1.032754e-03
   7709.73    1.050474e-03
   7710.02    1.068359e-03
   7710.31    1.088223e-03
   7710.60    1.108087e-03
   7710.89    1.127951e-03
   7711.18    1.149385e-03
   7711.47    1.171802e-03
   7711.76    1.194219e-03
   7712.04    1.217109e-03
   7712.33    1.242601e-03
   7712.62    1.268093e-03
   7712.91    1.293584e-03
   7713.20    1.321673e-03
   7713.49    1.350916e-03
   7713.78    1.380159e-03
   7714.07    1.410474e-03
   7714.36    1.444361e-03
   7714.64    1.478248e-03
   7714.93    1.512135e-03
   7715.22    1.550523e-03
   7715.51    1.590261e-03
   7715.80    1.629999e-03
   7716.09    1.672053e-03
   7716.38    1.719318e-03
   7716.67    1.766583e-03
   7716.96    1.813849e-03
   7717.24    1.869522e-03
   7717.53    1.926723e-03
   7717.82    1.983925e-03
   7718.11    2.046339e-03
   7718.40    2.117092e-03
   7718.69    2.187844e-03
   7718.98    2.258597e-03
   7719.27    2.347157e-03
   7719.56    2.437201e-03
   7719.84    2.527245e-03
   7720.13    2.630744e-03
   7720.42    2.749940e-03
   7720.71    2.869137e-03
   7721.00    2.988334e-03
   7721.29    3.155719e-03
   7721.58    3.323105e-03
   7721.87    3.490490e-03
   7722.16    3.707714e-03
   7722.44    3.967657e-03
   7722.73    4.227599e-03
   7723.02    4.505765e-03
   7723.31    5.002601e-03
   7723.60    5.499437e-03
   7723.89    5.996274e-03
   7724.18    7.031229e-03
   7724.47    8.402509e-03
   7724.76    9.773788e-03
   7725.04    1.126150e-02
   7725.33    1.338015e-02
   7725.62    1.541878e-02
   7725.91    1.738024e-02
   7726.20    1.935922e-02
   7726.49    2.143434e-02
   7726.78    2.361752e-02
   7727.07    2.596421e-02
   7727.36    2.852611e-02
   7727.64    3.143556e-02
   7727.93    3.483381e-02
   7728.22    3.882748e-02
   7728.51    4.360269e-02
   7728.80    4.911971e-02
   7729.09    5.560406e-02
   7729.38    6.284947e-02
   7729.67    7.081446e-02
   7729.96    7.908503e-02
   7730.24    8.710898e-02
   7730.53    9.403112e-02
   7730.82    9.923101e-02
   7731.11    1.024383e-01
   7731.40    1.037803e-01
   7731.69    1.036965e-01
   7731.98    1.027313e-01
   7732.27    1.013520e-01
   7732.56    9.990178e-02
   7732.84    9.854724e-02
   7733.13    9.735005e-02
   7733.42    9.633280e-02
   7733.71    9.550732e-02
   7734.00    9.488870e-02
   7734.29    9.452578e-02
   7734.58    9.441133e-02
   7734.87    9.455571e-02
   7735.16    9.495916e-02
   7735.44    9.561062e-02
   7735.73    9.648783e-02
   7736.02    9.756809e-02
   7736.31    9.879847e-02
   7736.60    1.001181e-01
   7736.89    1.014713e-01
   7737.18    1.028012e-01
   7737.47    1.040534e-01
   7737.76    1.051773e-01
   7738.04    1.061182e-01
   7738.33    1.068697e-01
   7738.62    1.074265e-01
   7738.91    1.077978e-01
   7739.20    1.080049e-01
   7739.49    1.080781e-01
   7739.78    1.080471e-01
   7740.07    1.079614e-01
   7740.36    1.078680e-01
   7740.64    1.077747e-01
   7740.93    1.076813e-01
   7741.22    1.077088e-01
   7741.51    1.077725e-01
   7741.80    1.078362e-01
   7742.09    1.079391e-01
   7742.38    1.081302e-01
   7742.67    1.083213e-01
   7742.96    1.085124e-01
   7743.24    1.086279e-01
   7743.53    1.087297e-01
   7743.82    1.088314e-01
   7744.11    1.088133e-01
   7744.40    1.086032e-01
   7744.69    1.083932e-01
   7744.98    1.081831e-01
   7745.27    1.075985e-01
   7745.56    1.069827e-01
   7745.84    1.063669e-01
   7746.13    1.055967e-01
   7746.42    1.046463e-01
   7746.71    1.036959e-01
   7747.00    1.027456e-01
   7747.29    1.016308e-01
   7747.58    1.005161e-01
   7747.87    9.940129e-02
   7748.16    9.828991e-02
   7748.44    9.718143e-02
   7748.73    9.607294e-02
   7749.02    9.497421e-02
   7749.31    9.399261e-02
   7749.60    9.301101e-02
   7749.89    9.202940e-02
   7750.18    9.116418e-02
   7750.47    9.037171e-02
   7750.76    8.957923e-02
   7751.04    8.881578e-02
   7751.33    8.821198e-02
   7751.62    8.760819e-02
   7751.91    8.700439e-02
   7752.20    8.650844e-02
   7752.49    8.606043e-02
   7752.78    8.561242e-02
   7753.07    8.519084e-02
   7753.36    8.485736e-02
   7753.64    8.452387e-02
   7753.93    8.419039e-02
   7754.22    8.391220e-02
   7754.51    8.365060e-02
   7754.80    8.338899e-02
   7755.09    8.313689e-02
   7755.38    8.290619e-02
   7755.67    8.267550e-02
   7755.96    8.244480e-02
   7756.24    8.221047e-02
   7756.53    8.197549e-02
   7756.82    8.174050e-02
   7757.11    8.149566e-02
   7757.40    8.123503e-02
   7757.69    8.097441e-02
   7757.98    8.071378e-02
   7758.27    8.043502e-02
   7758.56    8.015476e-02
   7758.84    7.987449e-02
   7759.13    7.960496e-02
   7759.42    7.934797e-02
   7759.71    7.909099e-02
   7760.00    7.883400e-02
