 FDMNES
  energy    <xanes>
   7695.00    5.201631e-04
   7695.29    5.259143e-04
   7695.58    5.316655e-04
   7695.87    5.374167e-04
   7696.16    5.433896e-04
   7696.44    5.495524e-04
   7696.73    5.557153e-04
   7697.02    5.619132e-04
   7697.31    5.685319e-04
   7697.60    5.751507e-04
   7697.89    5.817694e-04
   7698.18    5.886999e-04
   7698.47    5.958252e-04
   7698.76    6.029506e-04
   7699.04    6.101628e-04
   7699.33    6.178530e-04
   7699.62    6.255432e-04
   7699.91    6.332334e-04
   7700.20    6.413614e-04
   7700.49    6.496839e-04
   7700.78    6.580065e-04
   7701.07    6.664931e-04
   7701.36    6.755264e-04
   7701.64    6.845597e-04
   7701.93    6.935930e-04
   7702.22    7.032436e-04
   7702.51    7.130793e-04
   7702.80    7.229151e-04
   7703.09    7.330310e-04
   7703.38    7.437770e-04
   7703.67    7.545231e-04
   7703.96    7.652692e-04
   7704.24    7.768936e-04
   7704.53    7.886777e-04
   7704.82    8.004618e-04
   7705.11    8.127037e-04
   7705.40    8.256781e-04
   7705.69    8.386525e-04
   7705.98    8.516270e-04
   7706.27    8.658691e-04
   7706.56    8.802170e-04
   7706.84    8.945648e-04
   7707.13    9.096489e-04
   7707.42    9.255920e-04
   7707.71    9.415351e-04
   7708.00    9.574783e-04
   7708.29    9.752883e-04
   7708.58    9.930982e-04
   7708.87    1.010908e-03
   7709.16    1.029904e-03
   7709.44    1.049917e-03
   7709.73    1.069930e-03
   7710.02    1.090144e-03
   7710.31    1.112779e-03
   7710.60    1.135415e-03
   7710.89    1.158050e-03
   7711.18    1.182627e-03
   7711.47    1.208418e-03
   7711.76    1.234208e-03
   7712.04    1.260589e-03
   7712.33    1.290220e-03
   7712.62    1.319850e-03
   7712.91    1.349480e-03
   7713.20    1.382389e-03
   7713.49    1.416755e-03
   7713.78    1.451121e-03
   7714.07    1.486855e-03
   7714.36    1.527150e-03
   7714.64    1.567446e-03
   7714.93    1.607742e-03
   7715.22    1.653852e-03
   7715.51    1.701707e-03
   7715.80    1.749562e-03
   7716.09    1.800446e-03
   7716.38    1.858145e-03
   7716.67    1.915844e-03
   7716.96    1.973543e-03
   7717.24    2.042372e-03
   7717.53    2.113224e-03
   7717.82    2.184076e-03
   7718.11    2.261908e-03
   7718.40    2.350909e-03
   7718.69    2.439910e-03
   7718.98    2.528911e-03
   7719.27    2.642008e-03
   7719.56    2.757113e-03
   7719.84    2.872218e-03
   7720.13    3.005658e-03
   7720.42    3.160488e-03
   7720.71    3.315318e-03
   7721.00    3.470148e-03
   7721.29    3.690629e-03
   7721.58    3.911110e-03
   7721.87    4.131590e-03
   7722.16    4.418903e-03
   7722.44    4.763501e-03
   7722.73    5.108098e-03
   7723.02    5.475992e-03
   7723.31    6.123436e-03
   7723.60    6.770881e-03
   7723.89    7.418326e-03
   7724.18    8.717063e-03
   7724.47    1.042286e-02
   7724.76    1.212865e-02
   7725.04    1.399378e-02
   7725.33    1.680158e-02
   7725.62    1.977188e-02
   7725.91    2.293400e-02
   7726.20    2.629275e-02
   7726.49    2.989441e-02
   7726.78    3.372693e-02
   7727.07    3.797400e-02
   7727.36    4.277622e-02
   7727.64    4.835424e-02
   7727.93    5.485830e-02
   7728.22    6.235994e-02
   7728.51    7.108100e-02
   7728.80    8.087878e-02
   7729.09    9.183699e-02
   7729.38    1.033242e-01
   7729.67    1.145540e-01
   7729.96    1.245206e-01
   7730.24    1.321922e-01
   7730.53    1.366846e-01
   7730.82    1.382845e-01
   7731.11    1.376155e-01
   7731.40    1.353913e-01
   7731.69    1.322477e-01
   7731.98    1.286595e-01
   7732.27    1.249449e-01
   7732.56    1.213104e-01
   7732.84    1.178508e-01
   7733.13    1.146154e-01
   7733.42    1.116396e-01
   7733.71    1.089558e-01
   7734.00    1.065890e-01
   7734.29    1.045897e-01
   7734.58    1.029097e-01
   7734.87    1.015215e-01
   7735.16    1.003827e-01
   7735.44    9.943975e-02
   7735.73    9.863460e-02
   7736.02    9.791347e-02
   7736.31    9.722330e-02
   7736.60    9.653195e-02
   7736.89    9.582735e-02
   7737.18    9.511224e-02
   7737.47    9.440063e-02
   7737.76    9.371405e-02
   7738.04    9.308221e-02
   7738.33    9.252262e-02
   7738.62    9.205100e-02
   7738.91    9.167729e-02
   7739.20    9.140544e-02
   7739.49    9.123392e-02
   7739.78    9.116357e-02
   7740.07    9.119204e-02
   7740.36    9.131728e-02
   7740.64    9.144253e-02
   7740.93    9.156778e-02
   7741.22    9.173708e-02
   7741.51    9.191959e-02
   7741.80    9.210210e-02
   7742.09    9.225769e-02
   7742.38    9.235272e-02
   7742.67    9.244774e-02
   7742.96    9.254276e-02
   7743.24    9.249795e-02
   7743.53    9.242771e-02
   7743.82    9.235748e-02
   7744.11    9.221189e-02
   7744.40    9.194573e-02
   7744.69    9.167957e-02
   7744.98    9.141342e-02
   7745.27    9.097524e-02
   7745.56    9.052274e-02
   7745.84    9.007023e-02
   7746.13    8.955530e-02
   7746.42    8.896753e-02
   7746.71    8.837977e-02
   7747.00    8.779201e-02
   7747.29    8.714980e-02
   7747.58    8.650758e-02
   7747.87    8.586537e-02
   7748.16    8.523625e-02
   7748.44    8.461835e-02
   7748.73    8.400045e-02
   7749.02    8.338806e-02
   7749.31    8.284172e-02
   7749.60    8.229538e-02
   7749.89    8.174904e-02
   7750.18    8.125208e-02
   7750.47    8.078597e-02
   7750.76    8.031987e-02
   7751.04    7.986317e-02
   7751.33    7.945817e-02
   7751.62    7.905318e-02
   7751.91    7.864819e-02
   7752.20    7.826346e-02
   7752.49    7.788774e-02
   7752.78    7.751202e-02
   7753.07    7.713545e-02
   7753.36    7.675607e-02
   7753.64    7.637668e-02
   7753.93    7.599730e-02
   7754.22    7.559479e-02
   7754.51    7.518534e-02
   7754.80    7.477589e-02
   7755.09    7.435278e-02
   7755.38    7.389893e-02
   7755.67    7.344507e-02
   7755.96    7.299122e-02
   7756.24    7.250183e-02
   7756.53    7.200598e-02
   7756.82    7.151013e-02
   7757.11    7.100705e-02
   7757.40    7.049241e-02
   7757.69    6.997778e-02
   7757.98    6.946314e-02
   7758.27    6.897342e-02
   7758.56    6.848576e-02
   7758.84    6.799811e-02
   7759.13    6.755054e-02
   7759.42    6.714974e-02
   7759.71    6.674893e-02
   7760.00    6.634813e-02
