 FDMNES
  energy    <xanes>
   7695.00    5.235372e-04
   7695.29    5.290971e-04
   7695.58    5.346570e-04
   7695.87    5.402170e-04
   7696.16    5.459841e-04
   7696.44    5.519287e-04
   7696.73    5.578734e-04
   7697.02    5.638508e-04
   7697.31    5.702204e-04
   7697.60    5.765901e-04
   7697.89    5.829597e-04
   7698.18    5.896191e-04
   7698.47    5.964595e-04
   7698.76    6.033000e-04
   7699.04    6.102210e-04
   7699.33    6.175849e-04
   7699.62    6.249488e-04
   7699.91    6.323127e-04
   7700.20    6.400811e-04
   7700.49    6.480291e-04
   7700.78    6.559772e-04
   7701.07    6.640763e-04
   7701.36    6.726789e-04
   7701.64    6.812814e-04
   7701.93    6.898840e-04
   7702.22    6.990530e-04
   7702.51    7.083919e-04
   7702.80    7.177309e-04
   7703.09    7.273259e-04
   7703.38    7.374972e-04
   7703.67    7.476686e-04
   7703.96    7.578399e-04
   7704.24    7.688113e-04
   7704.53    7.799283e-04
   7704.82    7.910452e-04
   7705.11    8.025776e-04
   7705.40    8.147746e-04
   7705.69    8.269716e-04
   7705.98    8.391687e-04
   7706.27    8.525113e-04
   7706.56    8.659494e-04
   7706.84    8.793876e-04
   7707.13    8.934881e-04
   7707.42    9.083616e-04
   7707.71    9.232351e-04
   7708.00    9.381086e-04
   7708.29    9.546541e-04
   7708.58    9.711996e-04
   7708.87    9.877451e-04
   7709.16    1.005348e-03
   7709.44    1.023857e-03
   7709.73    1.042365e-03
   7710.02    1.061053e-03
   7710.31    1.081888e-03
   7710.60    1.102722e-03
   7710.89    1.123557e-03
   7711.18    1.146104e-03
   7711.47    1.169722e-03
   7711.76    1.193340e-03
   7712.04    1.217476e-03
   7712.33    1.244461e-03
   7712.62    1.271447e-03
   7712.91    1.298433e-03
   7713.20    1.328277e-03
   7713.49    1.359392e-03
   7713.78    1.390506e-03
   7714.07    1.422807e-03
   7714.36    1.459060e-03
   7714.64    1.495313e-03
   7714.93    1.531565e-03
   7715.22    1.572824e-03
   7715.51    1.615585e-03
   7715.80    1.658345e-03
   7716.09    1.703695e-03
   7716.38    1.754872e-03
   7716.67    1.806049e-03
   7716.96    1.857225e-03
   7717.24    1.917851e-03
   7717.53    1.980194e-03
   7717.82    2.042538e-03
   7718.11    2.110765e-03
   7718.40    2.188405e-03
   7718.69    2.266046e-03
   7718.98    2.343687e-03
   7719.27    2.441493e-03
   7719.56    2.540979e-03
   7719.84    2.640465e-03
   7720.13    2.755190e-03
   7720.42    2.887695e-03
   7720.71    3.020200e-03
   7721.00    3.152705e-03
   7721.29    3.339463e-03
   7721.58    3.526222e-03
   7721.87    3.712980e-03
   7722.16    3.954774e-03
   7722.44    4.243742e-03
   7722.73    4.532710e-03
   7723.02    4.840885e-03
   7723.31    5.379544e-03
   7723.60    5.918203e-03
   7723.89    6.456861e-03
   7724.18    7.535238e-03
   7724.47    8.950939e-03
   7724.76    1.036664e-02
   7725.04    1.191261e-02
   7725.33    1.421877e-02
   7725.62    1.661529e-02
   7725.91    1.912309e-02
   7726.20    2.180066e-02
   7726.49    2.477899e-02
   7726.78    2.805814e-02
   7727.07    3.173737e-02
   7727.36    3.581345e-02
   7727.64    4.036069e-02
   7727.93    4.544639e-02
   7728.22    5.109316e-02
   7728.51    5.733895e-02
   7728.80    6.398319e-02
   7729.09    7.091974e-02
   7729.38    7.797671e-02
   7729.67    8.510186e-02
   7729.96    9.216225e-02
   7730.24    9.887288e-02
   7730.53    1.046975e-01
   7730.82    1.092299e-01
   7731.11    1.122381e-01
   7731.40    1.137093e-01
   7731.69    1.138300e-01
   7731.98    1.129000e-01
   7732.27    1.112313e-01
   7732.56    1.091669e-01
   7732.84    1.070006e-01
   7733.13    1.049265e-01
   7733.42    1.030819e-01
   7733.71    1.015514e-01
   7734.00    1.003780e-01
   7734.29    9.961628e-02
   7734.58    9.920604e-02
   7734.87    9.911467e-02
   7735.16    9.929848e-02
   7735.44    9.970512e-02
   7735.73    1.002751e-01
   7736.02    1.009458e-01
   7736.31    1.016385e-01
   7736.60    1.022846e-01
   7736.89    1.028271e-01
   7737.18    1.032207e-01
   7737.47    1.034355e-01
   7737.76    1.034555e-01
   7738.04    1.032732e-01
   7738.33    1.029338e-01
   7738.62    1.024744e-01
   7738.91    1.019387e-01
   7739.20    1.013721e-01
   7739.49    1.008165e-01
   7739.78    1.003136e-01
   7740.07    9.991850e-02
   7740.36    9.968292e-02
   7740.64    9.944734e-02
   7740.93    9.921176e-02
   7741.22    9.920824e-02
   7741.51    9.927434e-02
   7741.80    9.934044e-02
   7742.09    9.943698e-02
   7742.38    9.960199e-02
   7742.67    9.976701e-02
   7742.96    9.993202e-02
   7743.24    9.998080e-02
   7743.53    1.000084e-01
   7743.82    1.000361e-01
   7744.11    9.995860e-02
   7744.40    9.971291e-02
   7744.69    9.946722e-02
   7744.98    9.922153e-02
   7745.27    9.872233e-02
   7745.56    9.820200e-02
   7745.84    9.768167e-02
   7746.13    9.707717e-02
   7746.42    9.637448e-02
   7746.71    9.567178e-02
   7747.00    9.496909e-02
   7747.29    9.419981e-02
   7747.58    9.343053e-02
   7747.87    9.266125e-02
   7748.16    9.189857e-02
   7748.44    9.114154e-02
   7748.73    9.038452e-02
   7749.02    8.963196e-02
   7749.31    8.893298e-02
   7749.60    8.823400e-02
   7749.89    8.753502e-02
   7750.18    8.688626e-02
   7750.47    8.626888e-02
   7750.76    8.565151e-02
   7751.04    8.504668e-02
   7751.33    8.451084e-02
   7751.62    8.397500e-02
   7751.91    8.343916e-02
   7752.20    8.294616e-02
   7752.49    8.247220e-02
   7752.78    8.199825e-02
   7753.07    8.153206e-02
   7753.36    8.109178e-02
   7753.64    8.065150e-02
   7753.93    8.021121e-02
   7754.22    7.977668e-02
   7754.51    7.934387e-02
   7754.80    7.891106e-02
   7755.09    7.847509e-02
   7755.38    7.803200e-02
   7755.67    7.758891e-02
   7755.96    7.714581e-02
   7756.24    7.668889e-02
   7756.53    7.622945e-02
   7756.82    7.577001e-02
   7757.11    7.530758e-02
   7757.40    7.484037e-02
   7757.69    7.437315e-02
   7757.98    7.390593e-02
   7758.27    7.345815e-02
   7758.56    7.301200e-02
   7758.84    7.256585e-02
   7759.13    7.215295e-02
   7759.42    7.177883e-02
   7759.71    7.140472e-02
   7760.00    7.103060e-02
