 FDMNES
  energy    <xanes>
   7695.00    5.246693e-04
   7695.29    5.303648e-04
   7695.58    5.360603e-04
   7695.87    5.417558e-04
   7696.16    5.476673e-04
   7696.44    5.537638e-04
   7696.73    5.598604e-04
   7697.02    5.659911e-04
   7697.31    5.725312e-04
   7697.60    5.790713e-04
   7697.89    5.856115e-04
   7698.18    5.924544e-04
   7698.47    5.994867e-04
   7698.76    6.065189e-04
   7699.04    6.136355e-04
   7699.33    6.212157e-04
   7699.62    6.287959e-04
   7699.91    6.363761e-04
   7700.20    6.443803e-04
   7700.49    6.525730e-04
   7700.78    6.607656e-04
   7701.07    6.691168e-04
   7701.36    6.779967e-04
   7701.64    6.868766e-04
   7701.93    6.957565e-04
   7702.22    7.052321e-04
   7702.51    7.148865e-04
   7702.80    7.245409e-04
   7703.09    7.344652e-04
   7703.38    7.449966e-04
   7703.67    7.555280e-04
   7703.96    7.660595e-04
   7704.24    7.774354e-04
   7704.53    7.889650e-04
   7704.82    8.004945e-04
   7705.11    8.124634e-04
   7705.40    8.251351e-04
   7705.69    8.378069e-04
   7705.98    8.504786e-04
   7706.27    8.643642e-04
   7706.56    8.783510e-04
   7706.84    8.923377e-04
   7707.13    9.070279e-04
   7707.42    9.225386e-04
   7707.71    9.380493e-04
   7708.00    9.535600e-04
   7708.29    9.708497e-04
   7708.58    9.881394e-04
   7708.87    1.005429e-03
   7709.16    1.023846e-03
   7709.44    1.043229e-03
   7709.73    1.062612e-03
   7710.02    1.082187e-03
   7710.31    1.104056e-03
   7710.60    1.125925e-03
   7710.89    1.147794e-03
   7711.18    1.171497e-03
   7711.47    1.196347e-03
   7711.76    1.221197e-03
   7712.04    1.246604e-03
   7712.33    1.275070e-03
   7712.62    1.303537e-03
   7712.91    1.332004e-03
   7713.20    1.363547e-03
   7713.49    1.396458e-03
   7713.78    1.429369e-03
   7714.07    1.463559e-03
   7714.36    1.502014e-03
   7714.64    1.540468e-03
   7714.93    1.578923e-03
   7715.22    1.622791e-03
   7715.51    1.668284e-03
   7715.80    1.713776e-03
   7716.09    1.762075e-03
   7716.38    1.816690e-03
   7716.67    1.871304e-03
   7716.96    1.925918e-03
   7717.24    1.990792e-03
   7717.53    2.057532e-03
   7717.82    2.124272e-03
   7718.11    2.197409e-03
   7718.40    2.280783e-03
   7718.69    2.364157e-03
   7718.98    2.447531e-03
   7719.27    2.552844e-03
   7719.56    2.659985e-03
   7719.84    2.767126e-03
   7720.13    2.890834e-03
   7720.42    3.033870e-03
   7720.71    3.176907e-03
   7721.00    3.319943e-03
   7721.29    3.521785e-03
   7721.58    3.723627e-03
   7721.87    3.925469e-03
   7722.16    4.186604e-03
   7722.44    4.498562e-03
   7722.73    4.810520e-03
   7723.02    5.142982e-03
   7723.31    5.721490e-03
   7723.60    6.299998e-03
   7723.89    6.878506e-03
   7724.18    8.025835e-03
   7724.47    9.528677e-03
   7724.76    1.103152e-02
   7725.04    1.266610e-02
   7725.33    1.505363e-02
   7725.62    1.748449e-02
   7725.91    2.000521e-02
   7726.20    2.273828e-02
   7726.49    2.592007e-02
   7726.78    2.959269e-02
   7727.07    3.393735e-02
   7727.36    3.892336e-02
   7727.64    4.457183e-02
   7727.93    5.082874e-02
   7728.22    5.759292e-02
   7728.51    6.486573e-02
   7728.80    7.255961e-02
   7729.09    8.077634e-02
   7729.38    8.937438e-02
   7729.67    9.825169e-02
   7729.96    1.070903e-01
   7730.24    1.154178e-01
   7730.53    1.224503e-01
   7730.82    1.276212e-01
   7731.11    1.306358e-01
   7731.40    1.315552e-01
   7731.69    1.307559e-01
   7731.98    1.287463e-01
   7732.27    1.259698e-01
   7732.56    1.227859e-01
   7732.84    1.194261e-01
   7733.13    1.160149e-01
   7733.42    1.126570e-01
   7733.71    1.094525e-01
   7734.00    1.064909e-01
   7734.29    1.038842e-01
   7734.58    1.016420e-01
   7734.87    9.978268e-02
   7735.16    9.830462e-02
   7735.44    9.718801e-02
   7735.73    9.639804e-02
   7736.02    9.590292e-02
   7736.31    9.563284e-02
   7736.60    9.551193e-02
   7736.89    9.547792e-02
   7737.18    9.547281e-02
   7737.47    9.544750e-02
   7737.76    9.536442e-02
   7738.04    9.519565e-02
   7738.33    9.494701e-02
   7738.62    9.463155e-02
   7738.91    9.427237e-02
   7739.20    9.389844e-02
   7739.49    9.354047e-02
   7739.78    9.323313e-02
   7740.07    9.303279e-02
   7740.36    9.299822e-02
   7740.64    9.296364e-02
   7740.93    9.292906e-02
   7741.22    9.318708e-02
   7741.51    9.353287e-02
   7741.80    9.387867e-02
   7742.09    9.429875e-02
   7742.38    9.488597e-02
   7742.67    9.547320e-02
   7742.96    9.606042e-02
   7743.24    9.661455e-02
   7743.53    9.716267e-02
   7743.82    9.771078e-02
   7744.11    9.813385e-02
   7744.40    9.835687e-02
   7744.69    9.857989e-02
   7744.98    9.880290e-02
   7745.27    9.860168e-02
   7745.56    9.836510e-02
   7745.84    9.812852e-02
   7746.13    9.771165e-02
   7746.42    9.708445e-02
   7746.71    9.645725e-02
   7747.00    9.583005e-02
   7747.29    9.499947e-02
   7747.58    9.416889e-02
   7747.87    9.333831e-02
   7748.16    9.249449e-02
   7748.44    9.163932e-02
   7748.73    9.078415e-02
   7749.02    8.993525e-02
   7749.31    8.916150e-02
   7749.60    8.838775e-02
   7749.89    8.761399e-02
   7750.18    8.691155e-02
   7750.47    8.625368e-02
   7750.76    8.559580e-02
   7751.04    8.495381e-02
   7751.33    8.439920e-02
   7751.62    8.384458e-02
   7751.91    8.328996e-02
   7752.20    8.278223e-02
   7752.49    8.229535e-02
   7752.78    8.180846e-02
   7753.07    8.132775e-02
   7753.36    8.086763e-02
   7753.64    8.040751e-02
   7753.93    7.994739e-02
   7754.22    7.948026e-02
   7754.51    7.901103e-02
   7754.80    7.854180e-02
   7755.09    7.806225e-02
   7755.38    7.755946e-02
   7755.67    7.705667e-02
   7755.96    7.655389e-02
   7756.24    7.601619e-02
   7756.53    7.547215e-02
   7756.82    7.492811e-02
   7757.11    7.437404e-02
   7757.40    7.380392e-02
   7757.69    7.323381e-02
   7757.98    7.266369e-02
   7758.27    7.211051e-02
   7758.56    7.155874e-02
   7758.84    7.100697e-02
   7759.13    7.049615e-02
   7759.42    7.003310e-02
   7759.71    6.957005e-02
   7760.00    6.910700e-02
