 FDMNES
  energy    <xanes>
   7695.00    5.233184e-04
   7695.29    5.290510e-04
   7695.58    5.347837e-04
   7695.87    5.405164e-04
   7696.16    5.464684e-04
   7696.44    5.526083e-04
   7696.73    5.587483e-04
   7697.02    5.649229e-04
   7697.31    5.715135e-04
   7697.60    5.781041e-04
   7697.89    5.846947e-04
   7698.18    5.915933e-04
   7698.47    5.986843e-04
   7698.76    6.057754e-04
   7699.04    6.129522e-04
   7699.33    6.206009e-04
   7699.62    6.282496e-04
   7699.91    6.358983e-04
   7700.20    6.439788e-04
   7700.49    6.522513e-04
   7700.78    6.605238e-04
   7701.07    6.689579e-04
   7701.36    6.779310e-04
   7701.64    6.869040e-04
   7701.93    6.958770e-04
   7702.22    7.054579e-04
   7702.51    7.152212e-04
   7702.80    7.249845e-04
   7703.09    7.350234e-04
   7703.38    7.456823e-04
   7703.67    7.563413e-04
   7703.96    7.670002e-04
   7704.24    7.785225e-04
   7704.53    7.902018e-04
   7704.82    8.018810e-04
   7705.11    8.140098e-04
   7705.40    8.268579e-04
   7705.69    8.397059e-04
   7705.98    8.525540e-04
   7706.27    8.666455e-04
   7706.56    8.808406e-04
   7706.84    8.950356e-04
   7707.13    9.099520e-04
   7707.42    9.257099e-04
   7707.71    9.414677e-04
   7708.00    9.572256e-04
   7708.29    9.748098e-04
   7708.58    9.923940e-04
   7708.87    1.009978e-03
   7709.16    1.028721e-03
   7709.44    1.048457e-03
   7709.73    1.068193e-03
   7710.02    1.088125e-03
   7710.31    1.110419e-03
   7710.60    1.132713e-03
   7710.89    1.155007e-03
   7711.18    1.179191e-03
   7711.47    1.204557e-03
   7711.76    1.229922e-03
   7712.04    1.255862e-03
   7712.33    1.284958e-03
   7712.62    1.314055e-03
   7712.91    1.343151e-03
   7713.20    1.375426e-03
   7713.49    1.409113e-03
   7713.78    1.442800e-03
   7714.07    1.477810e-03
   7714.36    1.517231e-03
   7714.64    1.556652e-03
   7714.93    1.596073e-03
   7715.22    1.641100e-03
   7715.51    1.687809e-03
   7715.80    1.734518e-03
   7716.09    1.784136e-03
   7716.38    1.840302e-03
   7716.67    1.896467e-03
   7716.96    1.952633e-03
   7717.24    2.019446e-03
   7717.53    2.088195e-03
   7717.82    2.156945e-03
   7718.11    2.232338e-03
   7718.40    2.318361e-03
   7718.69    2.404385e-03
   7718.98    2.490408e-03
   7719.27    2.599221e-03
   7719.56    2.709933e-03
   7719.84    2.820645e-03
   7720.13    2.948557e-03
   7720.42    3.096534e-03
   7720.71    3.244512e-03
   7721.00    3.392489e-03
   7721.29    3.601399e-03
   7721.58    3.810309e-03
   7721.87    4.019219e-03
   7722.16    4.289304e-03
   7722.44    4.611825e-03
   7722.73    4.934345e-03
   7723.02    5.277853e-03
   7723.31    5.873210e-03
   7723.60    6.468567e-03
   7723.89    7.063924e-03
   7724.18    8.234742e-03
   7724.47    9.765224e-03
   7724.76    1.129571e-02
   7725.04    1.295822e-02
   7725.33    1.537947e-02
   7725.62    1.787132e-02
   7725.91    2.050454e-02
   7726.20    2.337900e-02
   7726.49    2.668360e-02
   7726.78    3.042837e-02
   7727.07    3.479715e-02
   7727.36    3.982889e-02
   7727.64    4.566368e-02
   7727.93    5.237495e-02
   7728.22    5.993975e-02
   7728.51    6.842340e-02
   7728.80    7.764026e-02
   7729.09    8.765302e-02
   7729.38    9.811469e-02
   7729.67    1.086670e-01
   7729.96    1.187350e-01
   7730.24    1.276227e-01
   7730.53    1.344221e-01
   7730.82    1.387393e-01
   7731.11    1.404810e-01
   7731.40    1.398630e-01
   7731.69    1.373429e-01
   7731.98    1.334771e-01
   7732.27    1.287892e-01
   7732.56    1.237823e-01
   7732.84    1.188235e-01
   7733.13    1.141345e-01
   7733.42    1.098628e-01
   7733.71    1.061020e-01
   7734.00    1.029032e-01
   7734.29    1.003509e-01
   7734.58    9.836312e-02
   7734.87    9.690869e-02
   7735.16    9.594214e-02
   7735.44    9.540488e-02
   7735.73    9.522614e-02
   7736.02    9.533690e-02
   7736.31    9.562921e-02
   7736.60    9.599750e-02
   7736.89    9.635500e-02
   7737.18    9.662761e-02
   7737.47    9.676070e-02
   7737.76    9.672079e-02
   7738.04    9.649053e-02
   7738.33    9.611162e-02
   7738.62    9.562355e-02
   7738.91    9.507394e-02
   7739.20    9.451128e-02
   7739.49    9.397902e-02
   7739.78    9.351912e-02
   7740.07    9.318460e-02
   7740.36    9.302381e-02
   7740.64    9.286302e-02
   7740.93    9.270223e-02
   7741.22    9.277671e-02
   7741.51    9.292177e-02
   7741.80    9.306683e-02
   7742.09    9.324506e-02
   7742.38    9.349790e-02
   7742.67    9.375075e-02
   7742.96    9.400359e-02
   7743.24    9.415244e-02
   7743.53    9.428237e-02
   7743.82    9.441230e-02
   7744.11    9.443090e-02
   7744.40    9.427137e-02
   7744.69    9.411184e-02
   7744.98    9.395232e-02
   7745.27    9.349794e-02
   7745.56    9.301899e-02
   7745.84    9.254004e-02
   7746.13    9.195791e-02
   7746.42    9.125539e-02
   7746.71    9.055287e-02
   7747.00    8.985034e-02
   7747.29    8.907051e-02
   7747.58    8.829067e-02
   7747.87    8.751083e-02
   7748.16    8.675516e-02
   7748.44    8.602020e-02
   7748.73    8.528524e-02
   7749.02    8.455876e-02
   7749.31    8.393397e-02
   7749.60    8.330919e-02
   7749.89    8.268441e-02
   7750.18    8.213431e-02
   7750.47    8.163087e-02
   7750.76    8.112744e-02
   7751.04    8.063882e-02
   7751.33    8.023165e-02
   7751.62    7.982448e-02
   7751.91    7.941731e-02
   7752.20    7.904791e-02
   7752.49    7.869529e-02
   7752.78    7.834267e-02
   7753.07    7.799261e-02
   7753.36    7.765107e-02
   7753.64    7.730952e-02
   7753.93    7.696798e-02
   7754.22    7.660726e-02
   7754.51    7.624080e-02
   7754.80    7.587434e-02
   7755.09    7.549336e-02
   7755.38    7.507972e-02
   7755.67    7.466609e-02
   7755.96    7.425245e-02
   7756.24    7.379602e-02
   7756.53    7.333180e-02
   7756.82    7.286758e-02
   7757.11    7.239150e-02
   7757.40    7.189644e-02
   7757.69    7.140137e-02
   7757.98    7.090631e-02
   7758.27    7.042471e-02
   7758.56    6.994423e-02
   7758.84    6.946376e-02
   7759.13    6.901968e-02
   7759.42    6.861807e-02
   7759.71    6.821646e-02
   7760.00    6.781485e-02
