 FDMNES
  energy    <xanes>
   7695.00    5.259068e-04
   7695.29    5.314901e-04
   7695.58    5.370734e-04
   7695.87    5.426568e-04
   7696.16    5.484485e-04
   7696.44    5.544187e-04
   7696.73    5.603890e-04
   7697.02    5.663922e-04
   7697.31    5.727899e-04
   7697.60    5.791877e-04
   7697.89    5.855854e-04
   7698.18    5.922747e-04
   7698.47    5.991461e-04
   7698.76    6.060176e-04
   7699.04    6.129701e-04
   7699.33    6.203684e-04
   7699.62    6.277668e-04
   7699.91    6.351651e-04
   7700.20    6.429705e-04
   7700.49    6.509569e-04
   7700.78    6.589433e-04
   7701.07    6.670818e-04
   7701.36    6.757272e-04
   7701.64    6.843727e-04
   7701.93    6.930182e-04
   7702.22    7.022343e-04
   7702.51    7.116215e-04
   7702.80    7.210088e-04
   7703.09    7.306542e-04
   7703.38    7.408803e-04
   7703.67    7.511063e-04
   7703.96    7.613324e-04
   7704.24    7.723651e-04
   7704.53    7.835445e-04
   7704.82    7.947239e-04
   7705.11    8.063222e-04
   7705.40    8.185909e-04
   7705.69    8.308596e-04
   7705.98    8.431283e-04
   7706.27    8.565529e-04
   7706.56    8.700739e-04
   7706.84    8.835948e-04
   7707.13    8.977845e-04
   7707.42    9.127545e-04
   7707.71    9.277244e-04
   7708.00    9.426944e-04
   7708.29    9.593531e-04
   7708.58    9.760119e-04
   7708.87    9.926706e-04
   7709.16    1.010398e-03
   7709.44    1.029041e-03
   7709.73    1.047684e-03
   7710.02    1.066508e-03
   7710.31    1.087503e-03
   7710.60    1.108498e-03
   7710.89    1.129493e-03
   7711.18    1.152221e-03
   7711.47    1.176032e-03
   7711.76    1.199844e-03
   7712.04    1.224180e-03
   7712.33    1.251402e-03
   7712.62    1.278624e-03
   7712.91    1.305847e-03
   7713.20    1.335966e-03
   7713.49    1.367374e-03
   7713.78    1.398781e-03
   7714.07    1.431391e-03
   7714.36    1.468011e-03
   7714.64    1.504631e-03
   7714.93    1.541251e-03
   7715.22    1.582954e-03
   7715.51    1.626181e-03
   7715.80    1.669409e-03
   7716.09    1.715269e-03
   7716.38    1.767052e-03
   7716.67    1.818835e-03
   7716.96    1.870618e-03
   7717.24    1.932016e-03
   7717.53    1.995163e-03
   7717.82    2.058309e-03
   7718.11    2.127450e-03
   7718.40    2.206182e-03
   7718.69    2.284913e-03
   7718.98    2.363645e-03
   7719.27    2.462949e-03
   7719.56    2.563966e-03
   7719.84    2.664983e-03
   7720.13    2.781570e-03
   7720.42    2.916322e-03
   7720.71    3.051073e-03
   7721.00    3.185824e-03
   7721.29    3.376109e-03
   7721.58    3.566394e-03
   7721.87    3.756678e-03
   7722.16    4.003488e-03
   7722.44    4.298749e-03
   7722.73    4.594010e-03
   7723.02    4.909165e-03
   7723.31    5.463052e-03
   7723.60    6.016939e-03
   7723.89    6.570825e-03
   7724.18    7.686584e-03
   7724.47    9.153512e-03
   7724.76    1.062044e-02
   7725.04    1.221382e-02
   7725.33    1.451542e-02
   7725.62    1.681100e-02
   7725.91    1.914447e-02
   7726.20    2.165137e-02
   7726.49    2.456180e-02
   7726.78    2.793384e-02
   7727.07    3.196983e-02
   7727.36    3.667382e-02
   7727.64    4.209324e-02
   7727.93    4.815471e-02
   7728.22    5.465120e-02
   7728.51    6.133466e-02
   7728.80    6.792722e-02
   7729.09    7.432652e-02
   7729.38    8.073096e-02
   7729.67    8.736073e-02
   7729.96    9.416244e-02
   7730.24    1.008043e-01
   7730.53    1.066448e-01
   7730.82    1.111675e-01
   7731.11    1.140890e-01
   7731.40    1.153922e-01
   7731.69    1.152831e-01
   7731.98    1.140862e-01
   7732.27    1.121339e-01
   7732.56    1.097877e-01
   7732.84    1.073543e-01
   7733.13    1.050329e-01
   7733.42    1.029623e-01
   7733.71    1.012276e-01
   7734.00    9.986887e-02
   7734.29    9.893274e-02
   7734.58    9.834805e-02
   7734.87    9.807633e-02
   7735.16    9.807189e-02
   7735.44    9.828502e-02
   7735.73    9.866388e-02
   7736.02    9.915949e-02
   7736.31    9.970916e-02
   7736.60    1.002560e-01
   7736.89    1.007517e-01
   7737.18    1.011532e-01
   7737.47    1.014260e-01
   7737.76    1.015440e-01
   7738.04    1.014836e-01
   7738.33    1.012684e-01
   7738.62    1.009187e-01
   7738.91    1.004642e-01
   7739.20    9.994067e-02
   7739.49    9.938499e-02
   7739.78    9.883452e-02
   7740.07    9.834542e-02
   7740.36    9.797304e-02
   7740.64    9.760067e-02
   7740.93    9.722830e-02
   7741.22    9.709858e-02
   7741.51    9.704165e-02
   7741.80    9.698472e-02
   7742.09    9.699978e-02
   7742.38    9.717681e-02
   7742.67    9.735384e-02
   7742.96    9.753088e-02
   7743.24    9.774579e-02
   7743.53    9.796759e-02
   7743.82    9.818939e-02
   7744.11    9.835183e-02
   7744.40    9.841930e-02
   7744.69    9.848677e-02
   7744.98    9.855424e-02
   7745.27    9.835907e-02
   7745.56    9.814200e-02
   7745.84    9.792494e-02
   7746.13    9.757113e-02
   7746.42    9.705777e-02
   7746.71    9.654441e-02
   7747.00    9.603105e-02
   7747.29    9.530385e-02
   7747.58    9.457665e-02
   7747.87    9.384945e-02
   7748.16    9.307064e-02
   7748.44    9.224761e-02
   7748.73    9.142458e-02
   7749.02    9.060226e-02
   7749.31    8.978857e-02
   7749.60    8.897489e-02
   7749.89    8.816120e-02
   7750.18    8.739467e-02
   7750.47    8.665761e-02
   7750.76    8.592056e-02
   7751.04    8.519923e-02
   7751.33    8.456441e-02
   7751.62    8.392958e-02
   7751.91    8.329476e-02
   7752.20    8.272641e-02
   7752.49    8.218759e-02
   7752.78    8.164878e-02
   7753.07    8.112667e-02
   7753.36    8.066024e-02
   7753.64    8.019380e-02
   7753.93    7.972737e-02
   7754.22    7.929415e-02
   7754.51    7.887090e-02
   7754.80    7.844765e-02
   7755.09    7.802952e-02
   7755.38    7.762290e-02
   7755.67    7.721628e-02
   7755.96    7.680966e-02
   7756.24    7.640237e-02
   7756.53    7.599497e-02
   7756.82    7.558756e-02
   7757.11    7.517914e-02
   7757.40    7.476911e-02
   7757.69    7.435909e-02
   7757.98    7.394906e-02
   7758.27    7.355567e-02
   7758.56    7.316367e-02
   7758.84    7.277167e-02
   7759.13    7.240825e-02
   7759.42    7.207818e-02
   7759.71    7.174811e-02
   7760.00    7.141803e-02
