 FDMNES
  energy    <xanes>
   7695.00    5.390611e-04
   7695.29    5.446783e-04
   7695.58    5.502955e-04
   7695.87    5.559127e-04
   7696.16    5.617372e-04
   7696.44    5.677394e-04
   7696.73    5.737417e-04
   7697.02    5.797767e-04
   7697.31    5.862041e-04
   7697.60    5.926315e-04
   7697.89    5.990589e-04
   7698.18    6.057761e-04
   7698.47    6.126744e-04
   7698.76    6.195727e-04
   7699.04    6.265516e-04
   7699.33    6.339733e-04
   7699.62    6.413950e-04
   7699.91    6.488167e-04
   7700.20    6.566427e-04
   7700.49    6.646484e-04
   7700.78    6.726541e-04
   7701.07    6.808108e-04
   7701.36    6.894705e-04
   7701.64    6.981303e-04
   7701.93    7.067901e-04
   7702.22    7.160159e-04
   7702.51    7.254116e-04
   7702.80    7.348073e-04
   7703.09    7.444588e-04
   7703.38    7.546862e-04
   7703.67    7.649135e-04
   7703.96    7.751409e-04
   7704.24    7.861676e-04
   7704.53    7.973398e-04
   7704.82    8.085119e-04
   7705.11    8.200992e-04
   7705.40    8.323505e-04
   7705.69    8.446018e-04
   7705.98    8.568532e-04
   7706.27    8.702493e-04
   7706.56    8.837408e-04
   7706.84    8.972323e-04
   7707.13    9.113860e-04
   7707.42    9.263122e-04
   7707.71    9.412383e-04
   7708.00    9.561644e-04
   7708.29    9.727623e-04
   7708.58    9.893602e-04
   7708.87    1.005958e-03
   7709.16    1.023613e-03
   7709.44    1.042175e-03
   7709.73    1.060737e-03
   7710.02    1.079478e-03
   7710.31    1.100368e-03
   7710.60    1.121258e-03
   7710.89    1.142148e-03
   7711.18    1.164753e-03
   7711.47    1.188431e-03
   7711.76    1.212109e-03
   7712.04    1.236307e-03
   7712.33    1.263362e-03
   7712.62    1.290418e-03
   7712.91    1.317474e-03
   7713.20    1.347400e-03
   7713.49    1.378603e-03
   7713.78    1.409805e-03
   7714.07    1.442201e-03
   7714.36    1.478572e-03
   7714.64    1.514944e-03
   7714.93    1.551316e-03
   7715.22    1.592735e-03
   7715.51    1.635668e-03
   7715.80    1.678600e-03
   7716.09    1.724151e-03
   7716.38    1.775593e-03
   7716.67    1.827034e-03
   7716.96    1.878476e-03
   7717.24    1.939502e-03
   7717.53    2.002270e-03
   7717.82    2.065039e-03
   7718.11    2.133801e-03
   7718.40    2.212152e-03
   7718.69    2.290502e-03
   7718.98    2.368853e-03
   7719.27    2.467854e-03
   7719.56    2.568574e-03
   7719.84    2.669295e-03
   7720.13    2.785728e-03
   7720.42    2.920492e-03
   7720.71    3.055256e-03
   7721.00    3.190020e-03
   7721.29    3.381236e-03
   7721.58    3.572452e-03
   7721.87    3.763668e-03
   7722.16    4.012950e-03
   7722.44    4.312001e-03
   7722.73    4.611052e-03
   7723.02    4.930874e-03
   7723.31    5.499943e-03
   7723.60    6.069012e-03
   7723.89    6.638081e-03
   7724.18    7.798438e-03
   7724.47    9.328351e-03
   7724.76    1.085826e-02
   7725.04    1.251270e-02
   7725.33    1.484573e-02
   7725.62    1.713401e-02
   7725.91    1.946782e-02
   7726.20    2.200493e-02
   7726.49    2.498114e-02
   7726.78    2.844433e-02
   7727.07    3.260789e-02
   7727.36    3.748846e-02
   7727.64    4.316294e-02
   7727.93    4.959661e-02
   7728.22    5.664205e-02
   7728.51    6.416105e-02
   7728.80    7.182688e-02
   7729.09    7.926183e-02
   7729.38    8.619564e-02
   7729.67    9.227187e-02
   7729.96    9.734894e-02
   7730.24    1.011356e-01
   7730.53    1.032478e-01
   7730.82    1.037902e-01
   7731.11    1.030755e-01
   7731.40    1.015513e-01
   7731.69    9.966491e-02
   7731.98    9.775419e-02
   7732.27    9.603461e-02
   7732.56    9.460829e-02
   7732.84    9.348078e-02
   7733.13    9.264729e-02
   7733.42    9.209258e-02
   7733.71    9.179828e-02
   7734.00    9.174641e-02
   7734.29    9.194482e-02
   7734.58    9.234853e-02
   7734.87    9.293960e-02
   7735.16    9.369774e-02
   7735.44    9.459927e-02
   7735.73    9.561632e-02
   7736.02    9.671933e-02
   7736.31    9.786349e-02
   7736.60    9.900296e-02
   7736.89    1.000945e-01
   7737.18    1.010964e-01
   7737.47    1.019725e-01
   7737.76    1.026929e-01
   7738.04    1.032291e-01
   7738.33    1.036014e-01
   7738.62    1.038275e-01
   7738.91    1.039361e-01
   7739.20    1.039622e-01
   7739.49    1.039423e-01
   7739.78    1.039106e-01
   7740.07    1.039088e-01
   7740.36    1.039693e-01
   7740.64    1.040298e-01
   7740.93    1.040903e-01
   7741.22    1.042280e-01
   7741.51    1.043888e-01
   7741.80    1.045496e-01
   7742.09    1.046812e-01
   7742.38    1.047469e-01
   7742.67    1.048126e-01
   7742.96    1.048783e-01
   7743.24    1.047006e-01
   7743.53    1.044786e-01
   7743.82    1.042566e-01
   7744.11    1.039031e-01
   7744.40    1.033393e-01
   7744.69    1.027755e-01
   7744.98    1.022117e-01
   7745.27    1.014108e-01
   7745.56    1.005902e-01
   7745.84    9.976955e-02
   7746.13    9.889652e-02
   7746.42    9.796238e-02
   7746.71    9.702824e-02
   7747.00    9.609410e-02
   7747.29    9.516763e-02
   7747.58    9.424115e-02
   7747.87    9.331468e-02
   7748.16    9.242931e-02
   7748.44    9.157918e-02
   7748.73    9.072904e-02
   7749.02    8.988715e-02
   7749.31    8.914433e-02
   7749.60    8.840151e-02
   7749.89    8.765869e-02
   7750.18    8.699119e-02
   7750.47    8.637075e-02
   7750.76    8.575031e-02
   7751.04    8.514914e-02
   7751.33    8.465388e-02
   7751.62    8.415862e-02
   7751.91    8.366336e-02
   7752.20    8.324368e-02
   7752.49    8.285758e-02
   7752.78    8.247148e-02
   7753.07    8.210394e-02
   7753.36    8.179825e-02
   7753.64    8.149257e-02
   7753.93    8.118688e-02
   7754.22    8.091775e-02
   7754.51    8.065959e-02
   7754.80    8.040143e-02
   7755.09    8.014816e-02
   7755.38    7.990590e-02
   7755.67    7.966364e-02
   7755.96    7.942139e-02
   7756.24    7.917086e-02
   7756.53    7.891882e-02
   7756.82    7.866679e-02
   7757.11    7.840601e-02
   7757.40    7.813125e-02
   7757.69    7.785648e-02
   7757.98    7.758172e-02
   7758.27    7.729589e-02
   7758.56    7.700915e-02
   7758.84    7.672240e-02
   7759.13    7.644940e-02
   7759.42    7.619244e-02
   7759.71    7.593548e-02
   7760.00    7.567851e-02
