 FDMNES
  energy    <xanes>
   7695.00    5.291863e-04
   7695.29    5.349768e-04
   7695.58    5.407673e-04
   7695.87    5.465578e-04
   7696.16    5.525709e-04
   7696.44    5.587749e-04
   7696.73    5.649789e-04
   7697.02    5.712181e-04
   7697.31    5.778801e-04
   7697.60    5.845421e-04
   7697.89    5.912041e-04
   7698.18    5.981794e-04
   7698.47    6.053506e-04
   7698.76    6.125217e-04
   7699.04    6.197802e-04
   7699.33    6.275194e-04
   7699.62    6.352585e-04
   7699.91    6.429976e-04
   7700.20    6.511772e-04
   7700.49    6.595526e-04
   7700.78    6.679279e-04
   7701.07    6.764683e-04
   7701.36    6.855592e-04
   7701.64    6.946501e-04
   7701.93    7.037409e-04
   7702.22    7.134537e-04
   7702.51    7.233531e-04
   7702.80    7.332525e-04
   7703.09    7.434343e-04
   7703.38    7.542517e-04
   7703.67    7.650690e-04
   7703.96    7.758864e-04
   7704.24    7.875906e-04
   7704.53    7.994559e-04
   7704.82    8.113212e-04
   7705.11    8.236494e-04
   7705.40    8.367181e-04
   7705.69    8.497867e-04
   7705.98    8.628554e-04
   7706.27    8.772076e-04
   7706.56    8.916668e-04
   7706.84    9.061260e-04
   7707.13    9.213320e-04
   7707.42    9.374093e-04
   7707.71    9.534867e-04
   7708.00    9.695640e-04
   7708.29    9.875391e-04
   7708.58    1.005514e-03
   7708.87    1.023489e-03
   7709.16    1.042673e-03
   7709.44    1.062893e-03
   7709.73    1.083113e-03
   7710.02    1.103539e-03
   7710.31    1.126440e-03
   7710.60    1.149341e-03
   7710.89    1.172243e-03
   7711.18    1.197136e-03
   7711.47    1.223275e-03
   7711.76    1.249413e-03
   7712.04    1.276161e-03
   7712.33    1.306257e-03
   7712.62    1.336353e-03
   7712.91    1.366450e-03
   7713.20    1.399943e-03
   7713.49    1.434947e-03
   7713.78    1.469951e-03
   7714.07    1.506382e-03
   7714.36    1.547571e-03
   7714.64    1.588761e-03
   7714.93    1.629951e-03
   7715.22    1.677257e-03
   7715.51    1.726398e-03
   7715.80    1.775539e-03
   7716.09    1.827898e-03
   7716.38    1.887501e-03
   7716.67    1.947103e-03
   7716.96    2.006706e-03
   7717.24    2.078293e-03
   7717.53    2.152060e-03
   7717.82    2.225826e-03
   7718.11    2.307239e-03
   7718.40    2.400887e-03
   7718.69    2.494535e-03
   7718.98    2.588182e-03
   7719.27    2.708832e-03
   7719.56    2.831732e-03
   7719.84    2.954631e-03
   7720.13    3.098724e-03
   7720.42    3.267541e-03
   7720.71    3.436358e-03
   7721.00    3.605175e-03
   7721.29    3.853254e-03
   7721.58    4.101333e-03
   7721.87    4.349412e-03
   7722.16    4.683411e-03
   7722.44    5.091057e-03
   7722.73    5.498702e-03
   7723.02    5.939092e-03
   7723.31    6.772405e-03
   7723.60    7.605717e-03
   7723.89    8.439030e-03
   7724.18    1.028272e-02
   7724.47    1.275788e-02
   7724.76    1.523305e-02
   7725.04    1.796496e-02
   7725.33    2.217218e-02
   7725.62    2.637383e-02
   7725.91    3.034437e-02
   7726.20    3.416415e-02
   7726.49    3.789646e-02
   7726.78    4.158439e-02
   7727.07    4.533590e-02
   7727.36    4.936795e-02
   7727.64    5.391951e-02
   7727.93    5.910434e-02
   7728.22    6.500666e-02
   7728.51    7.196707e-02
   7728.80    8.006206e-02
   7729.09    8.955032e-02
   7729.38    9.974529e-02
   7729.67    1.097069e-01
   7729.96    1.182174e-01
   7730.24    1.241428e-01
   7730.53    1.267135e-01
   7730.82    1.265222e-01
   7731.11    1.244527e-01
   7731.40    1.213582e-01
   7731.69    1.178870e-01
   7731.98    1.144501e-01
   7732.27    1.112958e-01
   7732.56    1.085431e-01
   7732.84    1.061887e-01
   7733.13    1.042089e-01
   7733.42    1.025586e-01
   7733.71    1.011867e-01
   7734.00    1.000473e-01
   7734.29    9.912480e-02
   7734.58    9.836732e-02
   7734.87    9.775285e-02
   7735.16    9.725959e-02
   7735.44    9.686405e-02
   7735.73    9.654057e-02
   7736.02    9.626366e-02
   7736.31    9.600348e-02
   7736.60    9.573726e-02
   7736.89    9.545089e-02
   7737.18    9.513825e-02
   7737.47    9.480148e-02
   7737.76    9.445005e-02
   7738.04    9.410122e-02
   7738.33    9.377443e-02
   7738.62    9.348744e-02
   7738.91    9.325541e-02
   7739.20    9.308944e-02
   7739.49    9.299569e-02
   7739.78    9.298087e-02
   7740.07    9.304714e-02
   7740.36    9.319320e-02
   7740.64    9.333927e-02
   7740.93    9.348533e-02
   7741.22    9.364330e-02
   7741.51    9.380483e-02
   7741.80    9.396637e-02
   7742.09    9.407792e-02
   7742.38    9.407700e-02
   7742.67    9.407607e-02
   7742.96    9.407515e-02
   7743.24    9.387729e-02
   7743.53    9.364363e-02
   7743.82    9.340997e-02
   7744.11    9.310750e-02
   7744.40    9.269493e-02
   7744.69    9.228236e-02
   7744.98    9.186979e-02
   7745.27    9.138936e-02
   7745.56    9.090328e-02
   7745.84    9.041719e-02
   7746.13    8.992978e-02
   7746.42    8.944082e-02
   7746.71    8.895187e-02
   7747.00    8.846291e-02
   7747.29    8.799231e-02
   7747.58    8.752172e-02
   7747.87    8.705112e-02
   7748.16    8.659023e-02
   7748.44    8.613767e-02
   7748.73    8.568511e-02
   7749.02    8.523405e-02
   7749.31    8.480106e-02
   7749.60    8.436807e-02
   7749.89    8.393508e-02
   7750.18    8.351754e-02
   7750.47    8.310964e-02
   7750.76    8.270175e-02
   7751.04    8.229774e-02
   7751.33    8.191507e-02
   7751.62    8.153240e-02
   7751.91    8.114972e-02
   7752.20    8.077725e-02
   7752.49    8.040930e-02
   7752.78    8.004136e-02
   7753.07    7.967263e-02
   7753.36    7.930129e-02
   7753.64    7.892996e-02
   7753.93    7.855862e-02
   7754.22    7.817025e-02
   7754.51    7.777676e-02
   7754.80    7.738328e-02
   7755.09    7.697921e-02
   7755.38    7.655135e-02
   7755.67    7.612348e-02
   7755.96    7.569561e-02
   7756.24    7.523861e-02
   7756.53    7.477631e-02
   7756.82    7.431402e-02
   7757.11    7.384489e-02
   7757.40    7.336484e-02
   7757.69    7.288479e-02
   7757.98    7.240474e-02
   7758.27    7.194320e-02
   7758.56    7.148321e-02
   7758.84    7.102322e-02
   7759.13    7.059864e-02
   7759.42    7.021538e-02
   7759.71    6.983211e-02
   7760.00    6.944885e-02
