 FDMNES
  energy    <xanes>
   7695.00    5.302420e-04
   7695.29    5.360164e-04
   7695.58    5.417907e-04
   7695.87    5.475651e-04
   7696.16    5.535606e-04
   7696.44    5.597456e-04
   7696.73    5.659305e-04
   7697.02    5.721505e-04
   7697.31    5.787902e-04
   7697.60    5.854298e-04
   7697.89    5.920695e-04
   7698.18    5.990200e-04
   7698.47    6.061648e-04
   7698.76    6.133096e-04
   7699.04    6.205410e-04
   7699.33    6.282490e-04
   7699.62    6.359570e-04
   7699.91    6.436650e-04
   7700.20    6.518094e-04
   7700.49    6.601478e-04
   7700.78    6.684862e-04
   7701.07    6.769881e-04
   7701.36    6.860350e-04
   7701.64    6.950819e-04
   7701.93    7.041289e-04
   7702.22    7.137911e-04
   7702.51    7.236379e-04
   7702.80    7.334848e-04
   7703.09    7.436108e-04
   7703.38    7.543651e-04
   7703.67    7.651193e-04
   7703.96    7.758736e-04
   7704.24    7.875034e-04
   7704.53    7.992924e-04
   7704.82    8.110815e-04
   7705.11    8.233269e-04
   7705.40    8.363027e-04
   7705.69    8.492784e-04
   7705.98    8.622542e-04
   7706.27    8.764940e-04
   7706.56    8.908391e-04
   7706.84    9.051843e-04
   7707.13    9.202638e-04
   7707.42    9.362000e-04
   7707.71    9.521362e-04
   7708.00    9.680724e-04
   7708.29    9.858709e-04
   7708.58    1.003669e-03
   7708.87    1.021468e-03
   7709.16    1.040450e-03
   7709.44    1.060447e-03
   7709.73    1.080443e-03
   7710.02    1.100641e-03
   7710.31    1.123256e-03
   7710.60    1.145871e-03
   7710.89    1.168487e-03
   7711.18    1.193041e-03
   7711.47    1.218808e-03
   7711.76    1.244574e-03
   7712.04    1.270931e-03
   7712.33    1.300536e-03
   7712.62    1.330140e-03
   7712.91    1.359744e-03
   7713.20    1.392628e-03
   7713.49    1.426969e-03
   7713.78    1.461310e-03
   7714.07    1.497020e-03
   7714.36    1.537297e-03
   7714.64    1.577574e-03
   7714.93    1.617851e-03
   7715.22    1.663955e-03
   7715.51    1.711807e-03
   7715.80    1.759658e-03
   7716.09    1.810548e-03
   7716.38    1.868274e-03
   7716.67    1.926000e-03
   7716.96    1.983727e-03
   7717.24    2.052631e-03
   7717.53    2.123567e-03
   7717.82    2.194503e-03
   7718.11    2.272460e-03
   7718.40    2.361648e-03
   7718.69    2.450837e-03
   7718.98    2.540025e-03
   7719.27    2.653483e-03
   7719.56    2.768963e-03
   7719.84    2.884443e-03
   7720.13    3.018422e-03
   7720.42    3.173982e-03
   7720.71    3.329542e-03
   7721.00    3.485102e-03
   7721.29    3.707059e-03
   7721.58    3.929016e-03
   7721.87    4.150972e-03
   7722.16    4.440857e-03
   7722.44    4.788966e-03
   7722.73    5.137074e-03
   7723.02    5.509200e-03
   7723.31    6.169534e-03
   7723.60    6.829869e-03
   7723.89    7.490203e-03
   7724.18    8.826828e-03
   7724.47    1.058614e-02
   7724.76    1.234544e-02
   7725.04    1.424826e-02
   7725.33    1.693190e-02
   7725.62    1.955029e-02
   7725.91    2.219856e-02
   7726.20    2.508231e-02
   7726.49    2.851898e-02
   7726.78    3.259521e-02
   7727.07    3.762064e-02
   7727.36    4.363987e-02
   7727.64    5.074770e-02
   7727.93    5.880981e-02
   7728.22    6.751370e-02
   7728.51    7.672876e-02
   7728.80    8.642542e-02
   7729.09    9.688840e-02
   7729.38    1.078807e-01
   7729.67    1.188690e-01
   7729.96    1.288904e-01
   7730.24    1.367618e-01
   7730.53    1.411926e-01
   7730.82    1.421119e-01
   7731.11    1.400462e-01
   7731.40    1.358491e-01
   7731.69    1.304137e-01
   7731.98    1.244724e-01
   7732.27    1.185659e-01
   7732.56    1.130662e-01
   7732.84    1.081340e-01
   7733.13    1.038485e-01
   7733.42    1.002316e-01
   7733.71    9.727028e-02
   7734.00    9.493071e-02
   7734.29    9.322755e-02
   7734.58    9.202831e-02
   7734.87    9.126575e-02
   7735.16    9.086805e-02
   7735.44    9.076128e-02
   7735.73    9.087126e-02
   7736.02    9.113033e-02
   7736.31    9.145833e-02
   7736.60    9.178929e-02
   7736.89    9.207475e-02
   7737.18    9.227955e-02
   7737.47    9.238344e-02
   7737.76    9.237973e-02
   7738.04    9.227173e-02
   7738.33    9.209276e-02
   7738.62    9.187135e-02
   7738.91    9.163784e-02
   7739.20    9.142059e-02
   7739.49    9.124305e-02
   7739.78    9.112768e-02
   7740.07    9.109984e-02
   7740.36    9.118107e-02
   7740.64    9.126229e-02
   7740.93    9.134352e-02
   7741.22    9.153738e-02
   7741.51    9.176504e-02
   7741.80    9.199269e-02
   7742.09    9.221749e-02
   7742.38    9.243584e-02
   7742.67    9.265420e-02
   7742.96    9.287255e-02
   7743.24    9.295849e-02
   7743.53    9.302034e-02
   7743.82    9.308220e-02
   7744.11    9.305237e-02
   7744.40    9.287583e-02
   7744.69    9.269930e-02
   7744.98    9.252276e-02
   7745.27    9.213619e-02
   7745.56    9.173212e-02
   7745.84    9.132805e-02
   7746.13    9.085559e-02
   7746.42    9.030334e-02
   7746.71    8.975109e-02
   7747.00    8.919884e-02
   7747.29    8.859079e-02
   7747.58    8.798275e-02
   7747.87    8.737471e-02
   7748.16    8.677421e-02
   7748.44    8.618018e-02
   7748.73    8.558615e-02
   7749.02    8.499620e-02
   7749.31    8.445524e-02
   7749.60    8.391428e-02
   7749.89    8.337332e-02
   7750.18    8.287189e-02
   7750.47    8.239517e-02
   7750.76    8.191844e-02
   7751.04    8.145017e-02
   7751.33    8.102838e-02
   7751.62    8.060660e-02
   7751.91    8.018481e-02
   7752.20    7.978711e-02
   7752.49    7.940012e-02
   7752.78    7.901312e-02
   7753.07    7.862908e-02
   7753.36    7.825490e-02
   7753.64    7.788073e-02
   7753.93    7.750655e-02
   7754.22    7.712913e-02
   7754.51    7.675073e-02
   7754.80    7.637232e-02
   7755.09    7.599019e-02
   7755.38    7.559967e-02
   7755.67    7.520915e-02
   7755.96    7.481864e-02
   7756.24    7.442041e-02
   7756.53    7.402077e-02
   7756.82    7.362114e-02
   7757.11    7.322344e-02
   7757.40    7.282882e-02
   7757.69    7.243421e-02
   7757.98    7.203960e-02
   7758.27    7.167382e-02
   7758.56    7.131045e-02
   7758.84    7.094708e-02
   7759.13    7.061485e-02
   7759.42    7.031895e-02
   7759.71    7.002306e-02
   7760.00    6.972717e-02
