 FDMNES
  energy    <xanes>
   7695.00    5.279100e-04
   7695.29    5.336209e-04
   7695.58    5.393319e-04
   7695.87    5.450428e-04
   7696.16    5.509703e-04
   7696.44    5.570832e-04
   7696.73    5.631962e-04
   7697.02    5.693434e-04
   7697.31    5.759011e-04
   7697.60    5.824588e-04
   7697.89    5.890165e-04
   7698.18    5.958779e-04
   7698.47    6.029292e-04
   7698.76    6.099804e-04
   7699.04    6.171162e-04
   7699.33    6.247171e-04
   7699.62    6.323181e-04
   7699.91    6.399190e-04
   7700.20    6.479454e-04
   7700.49    6.561608e-04
   7700.78    6.643763e-04
   7701.07    6.727509e-04
   7701.36    6.816563e-04
   7701.64    6.905616e-04
   7701.93    6.994669e-04
   7702.22    7.089706e-04
   7702.51    7.186537e-04
   7702.80    7.283369e-04
   7703.09    7.382912e-04
   7703.38    7.488555e-04
   7703.67    7.594199e-04
   7703.96    7.699843e-04
   7704.24    7.813978e-04
   7704.53    7.929656e-04
   7704.82    8.045335e-04
   7705.11    8.165434e-04
   7705.40    8.292604e-04
   7705.69    8.419775e-04
   7705.98    8.546945e-04
   7706.27    8.686339e-04
   7706.56    8.826751e-04
   7706.84    8.967163e-04
   7707.13    9.114665e-04
   7707.42    9.270438e-04
   7707.71    9.426211e-04
   7708.00    9.581984e-04
   7708.29    9.755710e-04
   7708.58    9.929436e-04
   7708.87    1.010316e-03
   7709.16    1.028828e-03
   7709.44    1.048316e-03
   7709.73    1.067804e-03
   7710.02    1.087486e-03
   7710.31    1.109491e-03
   7710.60    1.131495e-03
   7710.89    1.153500e-03
   7711.18    1.177366e-03
   7711.47    1.202394e-03
   7711.76    1.227423e-03
   7712.04    1.253018e-03
   7712.33    1.281724e-03
   7712.62    1.310431e-03
   7712.91    1.339138e-03
   7713.20    1.370983e-03
   7713.49    1.404223e-03
   7713.78    1.437464e-03
   7714.07    1.472015e-03
   7714.36    1.510933e-03
   7714.64    1.549851e-03
   7714.93    1.588769e-03
   7715.22    1.633258e-03
   7715.51    1.679419e-03
   7715.80    1.725580e-03
   7716.09    1.774648e-03
   7716.38    1.830257e-03
   7716.67    1.885866e-03
   7716.96    1.941475e-03
   7717.24    2.007799e-03
   7717.53    2.076071e-03
   7717.82    2.144344e-03
   7718.11    2.219373e-03
   7718.40    2.305213e-03
   7718.69    2.391053e-03
   7718.98    2.476894e-03
   7719.27    2.586267e-03
   7719.56    2.697603e-03
   7719.84    2.808938e-03
   7720.13    2.938446e-03
   7720.42    3.089157e-03
   7720.71    3.239867e-03
   7721.00    3.390578e-03
   7721.29    3.608005e-03
   7721.58    3.825432e-03
   7721.87    4.042859e-03
   7722.16    4.331215e-03
   7722.44    4.680368e-03
   7722.73    5.029520e-03
   7723.02    5.405343e-03
   7723.31    6.101215e-03
   7723.60    6.797087e-03
   7723.89    7.492959e-03
   7724.18    8.997184e-03
   7724.47    1.100663e-02
   7724.76    1.301608e-02
   7725.04    1.520911e-02
   7725.33    1.841420e-02
   7725.62    2.151696e-02
   7725.91    2.438130e-02
   7726.20    2.699885e-02
   7726.49    2.942437e-02
   7726.78    3.200954e-02
   7727.07    3.521203e-02
   7727.36    3.924215e-02
   7727.64    4.429794e-02
   7727.93    5.043018e-02
   7728.22    5.753102e-02
   7728.51    6.551464e-02
   7728.80    7.398860e-02
   7729.09    8.266626e-02
   7729.38    9.117057e-02
   7729.67    9.909051e-02
   7729.96    1.061781e-01
   7730.24    1.121751e-01
   7730.53    1.167725e-01
   7730.82    1.199246e-01
   7731.11    1.215968e-01
   7731.40    1.218398e-01
   7731.69    1.208492e-01
   7731.98    1.189532e-01
   7732.27    1.165338e-01
   7732.56    1.139780e-01
   7732.84    1.115301e-01
   7733.13    1.092951e-01
   7733.42    1.073036e-01
   7733.71    1.055489e-01
   7734.00    1.040111e-01
   7734.29    1.026923e-01
   7734.58    1.015555e-01
   7734.87    1.005947e-01
   7735.16    9.980511e-02
   7735.44    9.917824e-02
   7735.73    9.869938e-02
   7736.02    9.835326e-02
   7736.31    9.810481e-02
   7736.60    9.791531e-02
   7736.89    9.775250e-02
   7737.18    9.758779e-02
   7737.47    9.739940e-02
   7737.76    9.717386e-02
   7738.04    9.690589e-02
   7738.33    9.660838e-02
   7738.62    9.629723e-02
   7738.91    9.599263e-02
   7739.20    9.571613e-02
   7739.49    9.548808e-02
   7739.78    9.533206e-02
   7740.07    9.528324e-02
   7740.36    9.537718e-02
   7740.64    9.547112e-02
   7740.93    9.556505e-02
   7741.22    9.584352e-02
   7741.51    9.617735e-02
   7741.80    9.651118e-02
   7742.09    9.685796e-02
   7742.38    9.723387e-02
   7742.67    9.760977e-02
   7742.96    9.798568e-02
   7743.24    9.819837e-02
   7743.53    9.838138e-02
   7743.82    9.856439e-02
   7744.11    9.862392e-02
   7744.40    9.848588e-02
   7744.69    9.834783e-02
   7744.98    9.820979e-02
   7745.27    9.779694e-02
   7745.56    9.736119e-02
   7745.84    9.692544e-02
   7746.13    9.639585e-02
   7746.42    9.575677e-02
   7746.71    9.511770e-02
   7747.00    9.447862e-02
   7747.29    9.373464e-02
   7747.58    9.299065e-02
   7747.87    9.224667e-02
   7748.16    9.149294e-02
   7748.44    9.073087e-02
   7748.73    8.996879e-02
   7749.02    8.921059e-02
   7749.31    8.849882e-02
   7749.60    8.778705e-02
   7749.89    8.707528e-02
   7750.18    8.641764e-02
   7750.47    8.579383e-02
   7750.76    8.517002e-02
   7751.04    8.456014e-02
   7751.33    8.402690e-02
   7751.62    8.349366e-02
   7751.91    8.296042e-02
   7752.20    8.247387e-02
   7752.49    8.200808e-02
   7752.78    8.154230e-02
   7753.07    8.108425e-02
   7753.36    8.065201e-02
   7753.64    8.021977e-02
   7753.93    7.978753e-02
   7754.22    7.935591e-02
   7754.51    7.892449e-02
   7754.80    7.849306e-02
   7755.09    7.805450e-02
   7755.38    7.759991e-02
   7755.67    7.714531e-02
   7755.96    7.669071e-02
   7756.24    7.620835e-02
   7756.53    7.572095e-02
   7756.82    7.523355e-02
   7757.11    7.473751e-02
   7757.40    7.422764e-02
   7757.69    7.371778e-02
   7757.98    7.320791e-02
   7758.27    7.271136e-02
   7758.56    7.221591e-02
   7758.84    7.172046e-02
   7759.13    7.126065e-02
   7759.42    7.084239e-02
   7759.71    7.042414e-02
   7760.00    7.000589e-02
