 FDMNES
  energy    <xanes>
   7695.00    5.202866e-04
   7695.29    5.258826e-04
   7695.58    5.314786e-04
   7695.87    5.370746e-04
   7696.16    5.428815e-04
   7696.44    5.488692e-04
   7696.73    5.548569e-04
   7697.02    5.608779e-04
   7697.31    5.672986e-04
   7697.60    5.737193e-04
   7697.89    5.801401e-04
   7698.18    5.868563e-04
   7698.47    5.937573e-04
   7698.76    6.006582e-04
   7699.04    6.076414e-04
   7699.33    6.150769e-04
   7699.62    6.225124e-04
   7699.91    6.299479e-04
   7700.20    6.377968e-04
   7700.49    6.458294e-04
   7700.78    6.538620e-04
   7701.07    6.620492e-04
   7701.36    6.707516e-04
   7701.64    6.794540e-04
   7701.93    6.881564e-04
   7702.22    6.974392e-04
   7702.51    7.068962e-04
   7702.80    7.163531e-04
   7703.09    7.260728e-04
   7703.38    7.363837e-04
   7703.67    7.466946e-04
   7703.96    7.570055e-04
   7704.24    7.681384e-04
   7704.53    7.794208e-04
   7704.82    7.907032e-04
   7705.11    8.024129e-04
   7705.40    8.148064e-04
   7705.69    8.271999e-04
   7705.98    8.395935e-04
   7706.27    8.531673e-04
   7706.56    8.668395e-04
   7706.84    8.805116e-04
   7707.13    8.948674e-04
   7707.42    9.100207e-04
   7707.71    9.251740e-04
   7708.00    9.403274e-04
   7708.29    9.572088e-04
   7708.58    9.740903e-04
   7708.87    9.909718e-04
   7709.16    1.008948e-03
   7709.44    1.027862e-03
   7709.73    1.046776e-03
   7710.02    1.065876e-03
   7710.31    1.087202e-03
   7710.60    1.108529e-03
   7710.89    1.129856e-03
   7711.18    1.152962e-03
   7711.47    1.177181e-03
   7711.76    1.201399e-03
   7712.04    1.226157e-03
   7712.33    1.253883e-03
   7712.62    1.281608e-03
   7712.91    1.309334e-03
   7713.20    1.340042e-03
   7713.49    1.372075e-03
   7713.78    1.404108e-03
   7714.07    1.437381e-03
   7714.36    1.474786e-03
   7714.64    1.512192e-03
   7714.93    1.549597e-03
   7715.22    1.592246e-03
   7715.51    1.636469e-03
   7715.80    1.680692e-03
   7716.09    1.727633e-03
   7716.38    1.780691e-03
   7716.67    1.833748e-03
   7716.96    1.886806e-03
   7717.24    1.949800e-03
   7717.53    2.014601e-03
   7717.82    2.079402e-03
   7718.11    2.150399e-03
   7718.40    2.231309e-03
   7718.69    2.312220e-03
   7718.98    2.393131e-03
   7719.27    2.495292e-03
   7719.56    2.599224e-03
   7719.84    2.703155e-03
   7720.13    2.823137e-03
   7720.42    2.961842e-03
   7720.71    3.100548e-03
   7721.00    3.239253e-03
   7721.29    3.434926e-03
   7721.58    3.630598e-03
   7721.87    3.826271e-03
   7722.16    4.079350e-03
   7722.44    4.381634e-03
   7722.73    4.683918e-03
   7723.02    5.006029e-03
   7723.31    5.566057e-03
   7723.60    6.126086e-03
   7723.89    6.686115e-03
   7724.18    7.789565e-03
   7724.47    9.232653e-03
   7724.76    1.067574e-02
   7725.04    1.223718e-02
   7725.33    1.446685e-02
   7725.62    1.674307e-02
   7725.91    1.919009e-02
   7726.20    2.194218e-02
   7726.49    2.523127e-02
   7726.78    2.905801e-02
   7727.07    3.362379e-02
   7727.36    3.893859e-02
   7727.64    4.506262e-02
   7727.93    5.184808e-02
   7728.22    5.890253e-02
   7728.51    6.580498e-02
   7728.80    7.245902e-02
   7729.09    7.917776e-02
   7729.38    8.630945e-02
   7729.67    9.394301e-02
   7729.96    1.016391e-01
   7730.24    1.087567e-01
   7730.53    1.145040e-01
   7730.82    1.185393e-01
   7731.11    1.207947e-01
   7731.40    1.213891e-01
   7731.69    1.205658e-01
   7731.98    1.186332e-01
   7732.27    1.159063e-01
   7732.56    1.127533e-01
   7732.84    1.095013e-01
   7733.13    1.063675e-01
   7733.42    1.035051e-01
   7733.71    1.010120e-01
   7734.00    9.894192e-02
   7734.29    9.736845e-02
   7734.58    9.623162e-02
   7734.87    9.550581e-02
   7735.16    9.515187e-02
   7735.44    9.511931e-02
   7735.73    9.534822e-02
   7736.02    9.577943e-02
   7736.31    9.632742e-02
   7736.60    9.691248e-02
   7736.89    9.747108e-02
   7737.18    9.795154e-02
   7737.47    9.831813e-02
   7737.76    9.855093e-02
   7738.04    9.864113e-02
   7738.33    9.862180e-02
   7738.62    9.852236e-02
   7738.91    9.837729e-02
   7739.20    9.822149e-02
   7739.49    9.808632e-02
   7739.78    9.800205e-02
   7740.07    9.800452e-02
   7740.36    9.812360e-02
   7740.64    9.824268e-02
   7740.93    9.836176e-02
   7741.22    9.860249e-02
   7741.51    9.887970e-02
   7741.80    9.915692e-02
   7742.09    9.941530e-02
   7742.38    9.963126e-02
   7742.67    9.984722e-02
   7742.96    1.000632e-01
   7743.24    1.000511e-01
   7743.53    9.999756e-02
   7743.82    9.994402e-02
   7744.11    9.975042e-02
   7744.40    9.933273e-02
   7744.69    9.891504e-02
   7744.98    9.849735e-02
   7745.27    9.777723e-02
   7745.56    9.703191e-02
   7745.84    9.628660e-02
   7746.13    9.544742e-02
   7746.42    9.449873e-02
   7746.71    9.355005e-02
   7747.00    9.260137e-02
   7747.29    9.160253e-02
   7747.58    9.060369e-02
   7747.87    8.960485e-02
   7748.16    8.864901e-02
   7748.44    8.773004e-02
   7748.73    8.681107e-02
   7749.02    8.590323e-02
   7749.31    8.512907e-02
   7749.60    8.435491e-02
   7749.89    8.358075e-02
   7750.18    8.290173e-02
   7750.47    8.228218e-02
   7750.76    8.166263e-02
   7751.04    8.106343e-02
   7751.33    8.057617e-02
   7751.62    8.008892e-02
   7751.91    7.960166e-02
   7752.20    7.917944e-02
   7752.49    7.878612e-02
   7752.78    7.839280e-02
   7753.07    7.801124e-02
   7753.36    7.766887e-02
   7753.64    7.732650e-02
   7753.93    7.698414e-02
   7754.22    7.665028e-02
   7754.51    7.631898e-02
   7754.80    7.598767e-02
   7755.09    7.565035e-02
   7755.38    7.529949e-02
   7755.67    7.494863e-02
   7755.96    7.459776e-02
   7756.24    7.421747e-02
   7756.53    7.383181e-02
   7756.82    7.344616e-02
   7757.11    7.304959e-02
   7757.40    7.263553e-02
   7757.69    7.222148e-02
   7757.98    7.180743e-02
   7758.27    7.139770e-02
   7758.56    7.098834e-02
   7758.84    7.057898e-02
   7759.13    7.019775e-02
   7759.42    6.984936e-02
   7759.71    6.950097e-02
   7760.00    6.915258e-02
