 FDMNES
  energy    <xanes>
   7695.00    4.971376e-04
   7695.29    5.027074e-04
   7695.58    5.082771e-04
   7695.87    5.138469e-04
   7696.16    5.196319e-04
   7696.44    5.256014e-04
   7696.73    5.315709e-04
   7697.02    5.375745e-04
   7697.31    5.439866e-04
   7697.60    5.503988e-04
   7697.89    5.568109e-04
   7698.18    5.635257e-04
   7698.47    5.704296e-04
   7698.76    5.773335e-04
   7699.04    5.843218e-04
   7699.33    5.917741e-04
   7699.62    5.992264e-04
   7699.91    6.066787e-04
   7700.20    6.145558e-04
   7700.49    6.226219e-04
   7700.78    6.306879e-04
   7701.07    6.389131e-04
   7701.36    6.476689e-04
   7701.64    6.564247e-04
   7701.93    6.651806e-04
   7702.22    6.745354e-04
   7702.51    6.840699e-04
   7702.80    6.936044e-04
   7703.09    7.034107e-04
   7703.38    7.138285e-04
   7703.67    7.242463e-04
   7703.96    7.346640e-04
   7704.24    7.459340e-04
   7704.53    7.573589e-04
   7704.82    7.687837e-04
   7705.11    7.806527e-04
   7705.40    7.932324e-04
   7705.69    8.058120e-04
   7705.98    8.183917e-04
   7706.27    8.322012e-04
   7706.56    8.461131e-04
   7706.84    8.600251e-04
   7707.13    8.746514e-04
   7707.42    8.901110e-04
   7707.71    9.055705e-04
   7708.00    9.210301e-04
   7708.29    9.383009e-04
   7708.58    9.555717e-04
   7708.87    9.728424e-04
   7709.16    9.912640e-04
   7709.44    1.010672e-03
   7709.73    1.030080e-03
   7710.02    1.049684e-03
   7710.31    1.071637e-03
   7710.60    1.093591e-03
   7710.89    1.115545e-03
   7711.18    1.139383e-03
   7711.47    1.164400e-03
   7711.76    1.189417e-03
   7712.04    1.215008e-03
   7712.33    1.243756e-03
   7712.62    1.272504e-03
   7712.91    1.301251e-03
   7713.20    1.333187e-03
   7713.49    1.366539e-03
   7713.78    1.399891e-03
   7714.07    1.434575e-03
   7714.36    1.473701e-03
   7714.64    1.512826e-03
   7714.93    1.551951e-03
   7715.22    1.596746e-03
   7715.51    1.643243e-03
   7715.80    1.689740e-03
   7716.09    1.739196e-03
   7716.38    1.795313e-03
   7716.67    1.851431e-03
   7716.96    1.907548e-03
   7717.24    1.974576e-03
   7717.53    2.043588e-03
   7717.82    2.112599e-03
   7718.11    2.188484e-03
   7718.40    2.275364e-03
   7718.69    2.362243e-03
   7718.98    2.449123e-03
   7719.27    2.559868e-03
   7719.56    2.672601e-03
   7719.84    2.785334e-03
   7720.13    2.916380e-03
   7720.42    3.068792e-03
   7720.71    3.221203e-03
   7721.00    3.373615e-03
   7721.29    3.592427e-03
   7721.58    3.811239e-03
   7721.87    4.030051e-03
   7722.16    4.317780e-03
   7722.44    4.664583e-03
   7722.73    5.011385e-03
   7723.02    5.382963e-03
   7723.31    6.051856e-03
   7723.60    6.720750e-03
   7723.89    7.389644e-03
   7724.18    8.775230e-03
   7724.47    1.060875e-02
   7724.76    1.244227e-02
   7725.04    1.444853e-02
   7725.33    1.745399e-02
   7725.62    2.053165e-02
   7725.91    2.362582e-02
   7726.20    2.675044e-02
   7726.49    2.999908e-02
   7726.78    3.348597e-02
   7727.07    3.747882e-02
   7727.36    4.217124e-02
   7727.64    4.787802e-02
   7727.93    5.481666e-02
   7728.22    6.301475e-02
   7728.51    7.253047e-02
   7728.80    8.294160e-02
   7729.09    9.387723e-02
   7729.38    1.044495e-01
   7729.67    1.133597e-01
   7729.96    1.197732e-01
   7730.24    1.232458e-01
   7730.53    1.239744e-01
   7730.82    1.230020e-01
   7731.11    1.210644e-01
   7731.40    1.185878e-01
   7731.69    1.157945e-01
   7731.98    1.128149e-01
   7732.27    1.097573e-01
   7732.56    1.067445e-01
   7732.84    1.038858e-01
   7733.13    1.012773e-01
   7733.42    9.899491e-02
   7733.71    9.708618e-02
   7734.00    9.557106e-02
   7734.29    9.448998e-02
   7734.58    9.377048e-02
   7734.87    9.337458e-02
   7735.16    9.325452e-02
   7735.44    9.335487e-02
   7735.73    9.361473e-02
   7736.02    9.397288e-02
   7736.31    9.435765e-02
   7736.60    9.471226e-02
   7736.89    9.499752e-02
   7737.18    9.519108e-02
   7737.47    9.528904e-02
   7737.76    9.530387e-02
   7738.04    9.526253e-02
   7738.33    9.520970e-02
   7738.62    9.518297e-02
   7738.91    9.521631e-02
   7739.20    9.533681e-02
   7739.49    9.556293e-02
   7739.78    9.591362e-02
   7740.07    9.640441e-02
   7740.36    9.704469e-02
   7740.64    9.768497e-02
   7740.93    9.832525e-02
   7741.22    9.902667e-02
   7741.51    9.974644e-02
   7741.80    1.004662e-01
   7742.09    1.011050e-01
   7742.38    1.015615e-01
   7742.67    1.020180e-01
   7742.96    1.024745e-01
   7743.24    1.025071e-01
   7743.53    1.024627e-01
   7743.82    1.024183e-01
   7744.11    1.021732e-01
   7744.40    1.016071e-01
   7744.69    1.010411e-01
   7744.98    1.004750e-01
   7745.27    9.957746e-02
   7745.56    9.865226e-02
   7745.84    9.772707e-02
   7746.13    9.673421e-02
   7746.42    9.566242e-02
   7746.71    9.459062e-02
   7747.00    9.351883e-02
   7747.29    9.246119e-02
   7747.58    9.140355e-02
   7747.87    9.034592e-02
   7748.16    8.934053e-02
   7748.44    8.837994e-02
   7748.73    8.741934e-02
   7749.02    8.646795e-02
   7749.31    8.562710e-02
   7749.60    8.478625e-02
   7749.89    8.394540e-02
   7750.18    8.317061e-02
   7750.47    8.243711e-02
   7750.76    8.170360e-02
   7751.04    8.098203e-02
   7751.33    8.032609e-02
   7751.62    7.967014e-02
   7751.91    7.901419e-02
   7752.20    7.838692e-02
   7752.49    7.777240e-02
   7752.78    7.715788e-02
   7753.07    7.654482e-02
   7753.36    7.593665e-02
   7753.64    7.532848e-02
   7753.93    7.472031e-02
   7754.22    7.409516e-02
   7754.51    7.346492e-02
   7754.80    7.283467e-02
   7755.09    7.219279e-02
   7755.38    7.152472e-02
   7755.67    7.085665e-02
   7755.96    7.018858e-02
   7756.24    6.949203e-02
   7756.53    6.879029e-02
   7756.82    6.808855e-02
   7757.11    6.738552e-02
   7757.40    6.668040e-02
   7757.69    6.597528e-02
   7757.98    6.527017e-02
   7758.27    6.461460e-02
   7758.56    6.396316e-02
   7758.84    6.331171e-02
   7759.13    6.271751e-02
   7759.42    6.219008e-02
   7759.71    6.166264e-02
   7760.00    6.113521e-02
