 FDMNES
  energy    <xanes>
   7695.00    5.337555e-04
   7695.29    5.393674e-04
   7695.58    5.449792e-04
   7695.87    5.505911e-04
   7696.16    5.564102e-04
   7696.44    5.624071e-04
   7696.73    5.684040e-04
   7697.02    5.744336e-04
   7697.31    5.808554e-04
   7697.60    5.872772e-04
   7697.89    5.936989e-04
   7698.18    6.004102e-04
   7698.47    6.073025e-04
   7698.76    6.141947e-04
   7699.04    6.211673e-04
   7699.33    6.285821e-04
   7699.62    6.359970e-04
   7699.91    6.434118e-04
   7700.20    6.512300e-04
   7700.49    6.592275e-04
   7700.78    6.672250e-04
   7701.07    6.753731e-04
   7701.36    6.840228e-04
   7701.64    6.926725e-04
   7701.93    7.013222e-04
   7702.22    7.105359e-04
   7702.51    7.199188e-04
   7702.80    7.293017e-04
   7703.09    7.389393e-04
   7703.38    7.491500e-04
   7703.67    7.593607e-04
   7703.96    7.695714e-04
   7704.24    7.805770e-04
   7704.53    7.917272e-04
   7704.82    8.028773e-04
   7705.11    8.144397e-04
   7705.40    8.266617e-04
   7705.69    8.388836e-04
   7705.98    8.511056e-04
   7706.27    8.644629e-04
   7706.56    8.779148e-04
   7706.84    8.913668e-04
   7707.13    9.054744e-04
   7707.42    9.203470e-04
   7707.71    9.352196e-04
   7708.00    9.500922e-04
   7708.29    9.666173e-04
   7708.58    9.831424e-04
   7708.87    9.996676e-04
   7709.16    1.017236e-03
   7709.44    1.035699e-03
   7709.73    1.054161e-03
   7710.02    1.072800e-03
   7710.31    1.093554e-03
   7710.60    1.114309e-03
   7710.89    1.135063e-03
   7711.18    1.157502e-03
   7711.47    1.180994e-03
   7711.76    1.204485e-03
   7712.04    1.228486e-03
   7712.33    1.255284e-03
   7712.62    1.282083e-03
   7712.91    1.308881e-03
   7713.20    1.338481e-03
   7713.49    1.369326e-03
   7713.78    1.400171e-03
   7714.07    1.432176e-03
   7714.36    1.468047e-03
   7714.64    1.503918e-03
   7714.93    1.539789e-03
   7715.22    1.580547e-03
   7715.51    1.622771e-03
   7715.80    1.664995e-03
   7716.09    1.709743e-03
   7716.38    1.760170e-03
   7716.67    1.810596e-03
   7716.96    1.861023e-03
   7717.24    1.920644e-03
   7717.53    1.981938e-03
   7717.82    2.043231e-03
   7718.11    2.110246e-03
   7718.40    2.186416e-03
   7718.69    2.262585e-03
   7718.98    2.338755e-03
   7719.27    2.434548e-03
   7719.56    2.531976e-03
   7719.84    2.629405e-03
   7720.13    2.741716e-03
   7720.42    2.871391e-03
   7720.71    3.001067e-03
   7721.00    3.130742e-03
   7721.29    3.313895e-03
   7721.58    3.497049e-03
   7721.87    3.680203e-03
   7722.16    3.918758e-03
   7722.44    4.204801e-03
   7722.73    4.490843e-03
   7723.02    4.797087e-03
   7723.31    5.345737e-03
   7723.60    5.894387e-03
   7723.89    6.443038e-03
   7724.18    7.588056e-03
   7724.47    9.105805e-03
   7724.76    1.062355e-02
   7725.04    1.227676e-02
   7725.33    1.468117e-02
   7725.62    1.703155e-02
   7725.91    1.928478e-02
   7726.20    2.152075e-02
   7726.49    2.385448e-02
   7726.78    2.636688e-02
   7727.07    2.918855e-02
   7727.36    3.236312e-02
   7727.64    3.597463e-02
   7727.93    4.006950e-02
   7728.22    4.464984e-02
   7728.51    4.978355e-02
   7728.80    5.539313e-02
   7729.09    6.159507e-02
   7729.38    6.827112e-02
   7729.67    7.545624e-02
   7729.96    8.298818e-02
   7730.24    9.066170e-02
   7730.53    9.809395e-02
   7730.82    1.048301e-01
   7731.11    1.104367e-01
   7731.40    1.145736e-01
   7731.69    1.170859e-01
   7731.98    1.180397e-01
   7732.27    1.176429e-01
   7732.56    1.163012e-01
   7732.84    1.144657e-01
   7733.13    1.124354e-01
   7733.42    1.104243e-01
   7733.71    1.085707e-01
   7734.00    1.069551e-01
   7734.29    1.056529e-01
   7734.58    1.046446e-01
   7734.87    1.039272e-01
   7735.16    1.034875e-01
   7735.44    1.033030e-01
   7735.73    1.033421e-01
   7736.02    1.035742e-01
   7736.31    1.039415e-01
   7736.60    1.043828e-01
   7736.89    1.048445e-01
   7737.18    1.052757e-01
   7737.47    1.056313e-01
   7737.76    1.058730e-01
   7738.04    1.059640e-01
   7738.33    1.059092e-01
   7738.62    1.057149e-01
   7738.91    1.053981e-01
   7739.20    1.049838e-01
   7739.49    1.045013e-01
   7739.78    1.039806e-01
   7740.07    1.034710e-01
   7740.36    1.030223e-01
   7740.64    1.025736e-01
   7740.93    1.021249e-01
   7741.22    1.018713e-01
   7741.51    1.016761e-01
   7741.80    1.014810e-01
   7742.09    1.013548e-01
   7742.38    1.013839e-01
   7742.67    1.014129e-01
   7742.96    1.014420e-01
   7743.24    1.015097e-01
   7743.53    1.015845e-01
   7743.82    1.016593e-01
   7744.11    1.016719e-01
   7744.40    1.015850e-01
   7744.69    1.014980e-01
   7744.98    1.014111e-01
   7745.27    1.010564e-01
   7745.56    1.006795e-01
   7745.84    1.003025e-01
   7746.13    9.979388e-02
   7746.42    9.913171e-02
   7746.71    9.846954e-02
   7747.00    9.780737e-02
   7747.29    9.696732e-02
   7747.58    9.612728e-02
   7747.87    9.528723e-02
   7748.16    9.442326e-02
   7748.44    9.353878e-02
   7748.73    9.265430e-02
   7749.02    9.177419e-02
   7749.31    9.094650e-02
   7749.60    9.011881e-02
   7749.89    8.929112e-02
   7750.18    8.853018e-02
   7750.47    8.781096e-02
   7750.76    8.709173e-02
   7751.04    8.639080e-02
   7751.33    8.579044e-02
   7751.62    8.519007e-02
   7751.91    8.458971e-02
   7752.20    8.406069e-02
   7752.49    8.356336e-02
   7752.78    8.306604e-02
   7753.07    8.258588e-02
   7753.36    8.216292e-02
   7753.64    8.173997e-02
   7753.93    8.131702e-02
   7754.22    8.092626e-02
   7754.51    8.054517e-02
   7754.80    8.016408e-02
   7755.09    7.978653e-02
   7755.38    7.941698e-02
   7755.67    7.904743e-02
   7755.96    7.867788e-02
   7756.24    7.829918e-02
   7756.53    7.791881e-02
   7756.82    7.753845e-02
   7757.11    7.715138e-02
   7757.40    7.675359e-02
   7757.69    7.635579e-02
   7757.98    7.595799e-02
   7758.27    7.556229e-02
   7758.56    7.516675e-02
   7758.84    7.477122e-02
   7759.13    7.440021e-02
   7759.42    7.405781e-02
   7759.71    7.371541e-02
   7760.00    7.337301e-02
