 FDMNES
  energy    <xanes>
   7695.00    5.331695e-04
   7695.29    5.389169e-04
   7695.58    5.446643e-04
   7695.87    5.504117e-04
   7696.16    5.563772e-04
   7696.44    5.625297e-04
   7696.73    5.686823e-04
   7697.02    5.748692e-04
   7697.31    5.814700e-04
   7697.60    5.880708e-04
   7697.89    5.946715e-04
   7698.18    6.015785e-04
   7698.47    6.086768e-04
   7698.76    6.157751e-04
   7699.04    6.229588e-04
   7699.33    6.306115e-04
   7699.62    6.382642e-04
   7699.91    6.459169e-04
   7700.20    6.539988e-04
   7700.49    6.622715e-04
   7700.78    6.705442e-04
   7701.07    6.789775e-04
   7701.36    6.879464e-04
   7701.64    6.969152e-04
   7701.93    7.058841e-04
   7702.22    7.154570e-04
   7702.51    7.252110e-04
   7702.80    7.349651e-04
   7703.09    7.449930e-04
   7703.38    7.556370e-04
   7703.67    7.662810e-04
   7703.96    7.769250e-04
   7704.24    7.884267e-04
   7704.53    8.000844e-04
   7704.82    8.117421e-04
   7705.11    8.238465e-04
   7705.40    8.366655e-04
   7705.69    8.494846e-04
   7705.98    8.623036e-04
   7706.27    8.763582e-04
   7706.56    8.905158e-04
   7706.84    9.046734e-04
   7707.13    9.195480e-04
   7707.42    9.352588e-04
   7707.71    9.509697e-04
   7708.00    9.666806e-04
   7708.29    9.842074e-04
   7708.58    1.001734e-03
   7708.87    1.019261e-03
   7709.16    1.037940e-03
   7709.44    1.057607e-03
   7709.73    1.077274e-03
   7710.02    1.097137e-03
   7710.31    1.119351e-03
   7710.60    1.141564e-03
   7710.89    1.163777e-03
   7711.18    1.187873e-03
   7711.47    1.213146e-03
   7711.76    1.238419e-03
   7712.04    1.264264e-03
   7712.33    1.293257e-03
   7712.62    1.322250e-03
   7712.91    1.351244e-03
   7713.20    1.383410e-03
   7713.49    1.416987e-03
   7713.78    1.450564e-03
   7714.07    1.485464e-03
   7714.36    1.524776e-03
   7714.64    1.564088e-03
   7714.93    1.603399e-03
   7715.22    1.648330e-03
   7715.51    1.694946e-03
   7715.80    1.741562e-03
   7716.09    1.791102e-03
   7716.38    1.847222e-03
   7716.67    1.903341e-03
   7716.96    1.959461e-03
   7717.24    2.026317e-03
   7717.53    2.095125e-03
   7717.82    2.163933e-03
   7718.11    2.239469e-03
   7718.40    2.325769e-03
   7718.69    2.412070e-03
   7718.98    2.498371e-03
   7719.27    2.607872e-03
   7719.56    2.719307e-03
   7719.84    2.830742e-03
   7720.13    2.959806e-03
   7720.42    3.109436e-03
   7720.71    3.259066e-03
   7721.00    3.408696e-03
   7721.29    3.621295e-03
   7721.58    3.833894e-03
   7721.87    4.046494e-03
   7722.16    4.322913e-03
   7722.44    4.654034e-03
   7722.73    4.985156e-03
   7723.02    5.338358e-03
   7723.31    5.956533e-03
   7723.60    6.574707e-03
   7723.89    7.192881e-03
   7724.18    8.419223e-03
   7724.47    1.002567e-02
   7724.76    1.163212e-02
   7725.04    1.337964e-02
   7725.33    1.594185e-02
   7725.62    1.859278e-02
   7725.91    2.142140e-02
   7726.20    2.456315e-02
   7726.49    2.830737e-02
   7726.78    3.269985e-02
   7727.07    3.799847e-02
   7727.36    4.417398e-02
   7727.64    5.118797e-02
   7727.93    5.874574e-02
   7728.22    6.641050e-02
   7728.51    7.394363e-02
   7728.80    8.145705e-02
   7729.09    8.915548e-02
   7729.38    9.694188e-02
   7729.67    1.044646e-01
   7729.96    1.113460e-01
   7730.24    1.172181e-01
   7730.53    1.216734e-01
   7730.82    1.246045e-01
   7731.11    1.259652e-01
   7731.40    1.258209e-01
   7731.69    1.243709e-01
   7731.98    1.219136e-01
   7732.27    1.187703e-01
   7732.56    1.152982e-01
   7732.84    1.117968e-01
   7733.13    1.084662e-01
   7733.42    1.054522e-01
   7733.71    1.028533e-01
   7734.00    1.007252e-01
   7734.29    9.914213e-02
   7734.58    9.802606e-02
   7734.87    9.733564e-02
   7735.16    9.701577e-02
   7735.44    9.700123e-02
   7735.73    9.721859e-02
   7736.02    9.759260e-02
   7736.31    9.802549e-02
   7736.60    9.842984e-02
   7736.89    9.873433e-02
   7737.18    9.888284e-02
   7737.47    9.883967e-02
   7737.76    9.858891e-02
   7738.04    9.812761e-02
   7738.33    9.750930e-02
   7738.62    9.677720e-02
   7738.91    9.597865e-02
   7739.20    9.515939e-02
   7739.49    9.435931e-02
   7739.78    9.361600e-02
   7740.07    9.297912e-02
   7740.36    9.249643e-02
   7740.64    9.201375e-02
   7740.93    9.153106e-02
   7741.22    9.129199e-02
   7741.51    9.112601e-02
   7741.80    9.096003e-02
   7742.09    9.085809e-02
   7742.38    9.090026e-02
   7742.67    9.094242e-02
   7742.96    9.098459e-02
   7743.24    9.108368e-02
   7743.53    9.119312e-02
   7743.82    9.130256e-02
   7744.11    9.138995e-02
   7744.40    9.144204e-02
   7744.69    9.149414e-02
   7744.98    9.154623e-02
   7745.27    9.146708e-02
   7745.56    9.137699e-02
   7745.84    9.128690e-02
   7746.13    9.111874e-02
   7746.42    9.085949e-02
   7746.71    9.060025e-02
   7747.00    9.034100e-02
   7747.29    8.994292e-02
   7747.58    8.954484e-02
   7747.87    8.914675e-02
   7748.16    8.870814e-02
   7748.44    8.823479e-02
   7748.73    8.776143e-02
   7749.02    8.728690e-02
   7749.31    8.679819e-02
   7749.60    8.630947e-02
   7749.89    8.582076e-02
   7750.18    8.534275e-02
   7750.47    8.487143e-02
   7750.76    8.440011e-02
   7751.04    8.393235e-02
   7751.33    8.348420e-02
   7751.62    8.303605e-02
   7751.91    8.258790e-02
   7752.20    8.214943e-02
   7752.49    8.171528e-02
   7752.78    8.128112e-02
   7753.07    8.084732e-02
   7753.36    8.041468e-02
   7753.64    7.998205e-02
   7753.93    7.954942e-02
   7754.22    7.911169e-02
   7754.51    7.867244e-02
   7754.80    7.823318e-02
   7755.09    7.779203e-02
   7755.38    7.734660e-02
   7755.67    7.690117e-02
   7755.96    7.645574e-02
   7756.24    7.601404e-02
   7756.53    7.557300e-02
   7756.82    7.513197e-02
   7757.11    7.470017e-02
   7757.40    7.428314e-02
   7757.69    7.386612e-02
   7757.98    7.344909e-02
   7758.27    7.307837e-02
   7758.56    7.271149e-02
   7758.84    7.234462e-02
   7759.13    7.201381e-02
   7759.42    7.172506e-02
   7759.71    7.143631e-02
   7760.00    7.114756e-02
