 FDMNES
  energy    <xanes>
   7695.00    5.163823e-04
   7695.29    5.219020e-04
   7695.58    5.274216e-04
   7695.87    5.329413e-04
   7696.16    5.386669e-04
   7696.44    5.445692e-04
   7696.73    5.504715e-04
   7697.02    5.564062e-04
   7697.31    5.627311e-04
   7697.60    5.690559e-04
   7697.89    5.753807e-04
   7698.18    5.819937e-04
   7698.47    5.887867e-04
   7698.76    5.955797e-04
   7699.04    6.024527e-04
   7699.33    6.097662e-04
   7699.62    6.170797e-04
   7699.91    6.243932e-04
   7700.20    6.321087e-04
   7700.49    6.400029e-04
   7700.78    6.478972e-04
   7701.07    6.559416e-04
   7701.36    6.644864e-04
   7701.64    6.730313e-04
   7701.93    6.815761e-04
   7702.22    6.906840e-04
   7702.51    6.999608e-04
   7702.80    7.092376e-04
   7703.09    7.187690e-04
   7703.38    7.288730e-04
   7703.67    7.389771e-04
   7703.96    7.490812e-04
   7704.24    7.599803e-04
   7704.53    7.710241e-04
   7704.82    7.820678e-04
   7705.11    7.935243e-04
   7705.40    8.056411e-04
   7705.69    8.177580e-04
   7705.98    8.298749e-04
   7706.27    8.431297e-04
   7706.56    8.564794e-04
   7706.84    8.698291e-04
   7707.13    8.838367e-04
   7707.42    8.986120e-04
   7707.71    9.133872e-04
   7708.00    9.281624e-04
   7708.29    9.445978e-04
   7708.58    9.610332e-04
   7708.87    9.774686e-04
   7709.16    9.949534e-04
   7709.44    1.013338e-03
   7709.73    1.031722e-03
   7710.02    1.050284e-03
   7710.31    1.070976e-03
   7710.60    1.091669e-03
   7710.89    1.112361e-03
   7711.18    1.134753e-03
   7711.47    1.158206e-03
   7711.76    1.181660e-03
   7712.04    1.205627e-03
   7712.33    1.232421e-03
   7712.62    1.259215e-03
   7712.91    1.286009e-03
   7713.20    1.315636e-03
   7713.49    1.346524e-03
   7713.78    1.377411e-03
   7714.07    1.409473e-03
   7714.36    1.445453e-03
   7714.64    1.481432e-03
   7714.93    1.517411e-03
   7715.22    1.558350e-03
   7715.51    1.600775e-03
   7715.80    1.643201e-03
   7716.09    1.688191e-03
   7716.38    1.738951e-03
   7716.67    1.789710e-03
   7716.96    1.840469e-03
   7717.24    1.900580e-03
   7717.53    1.962391e-03
   7717.82    2.024202e-03
   7718.11    2.091833e-03
   7718.40    2.168776e-03
   7718.69    2.245718e-03
   7718.98    2.322661e-03
   7719.27    2.419542e-03
   7719.56    2.518084e-03
   7719.84    2.616625e-03
   7720.13    2.730230e-03
   7720.42    2.861409e-03
   7720.71    2.992588e-03
   7721.00    3.123767e-03
   7721.29    3.308590e-03
   7721.58    3.493414e-03
   7721.87    3.678238e-03
   7722.16    3.917628e-03
   7722.44    4.203789e-03
   7722.73    4.489950e-03
   7723.02    4.795351e-03
   7723.31    5.331632e-03
   7723.60    5.867912e-03
   7723.89    6.404193e-03
   7724.18    7.485595e-03
   7724.47    8.907699e-03
   7724.76    1.032980e-02
   7725.04    1.187271e-02
   7725.33    1.408393e-02
   7725.62    1.626092e-02
   7725.91    1.844714e-02
   7726.20    2.078761e-02
   7726.49    2.349988e-02
   7726.78    2.663029e-02
   7727.07    3.035361e-02
   7727.36    3.468025e-02
   7727.64    3.969743e-02
   7727.93    4.543541e-02
   7728.22    5.184493e-02
   7728.51    5.890067e-02
   7728.80    6.632664e-02
   7729.09    7.389112e-02
   7729.38    8.133715e-02
   7729.67    8.844931e-02
   7729.96    9.500952e-02
   7730.24    1.005571e-01
   7730.53    1.043950e-01
   7730.82    1.063794e-01
   7731.11    1.067810e-01
   7731.40    1.061447e-01
   7731.69    1.050450e-01
   7731.98    1.038921e-01
   7732.27    1.028961e-01
   7732.56    1.021004e-01
   7732.84    1.014577e-01
   7733.13    1.009280e-01
   7733.42    1.004878e-01
   7733.71    1.001326e-01
   7734.00    9.987101e-02
   7734.29    9.973273e-02
   7734.58    9.972230e-02
   7734.87    9.985279e-02
   7735.16    1.001310e-01
   7735.44    1.005542e-01
   7735.73    1.011068e-01
   7736.02    1.017623e-01
   7736.31    1.024660e-01
   7736.60    1.031554e-01
   7736.89    1.037702e-01
   7737.18    1.042550e-01
   7737.47    1.045677e-01
   7737.76    1.046815e-01
   7738.04    1.045809e-01
   7738.33    1.043110e-01
   7738.62    1.039119e-01
   7738.91    1.034324e-01
   7739.20    1.029234e-01
   7739.49    1.024320e-01
   7739.78    1.020048e-01
   7740.07    1.017045e-01
   7740.36    1.015897e-01
   7740.64    1.014750e-01
   7740.93    1.013603e-01
   7741.22    1.015184e-01
   7741.51    1.017582e-01
   7741.80    1.019981e-01
   7742.09    1.022754e-01
   7742.38    1.026368e-01
   7742.67    1.029982e-01
   7742.96    1.033596e-01
   7743.24    1.035629e-01
   7743.53    1.037376e-01
   7743.82    1.039122e-01
   7744.11    1.039327e-01
   7744.40    1.037064e-01
   7744.69    1.034802e-01
   7744.98    1.032539e-01
   7745.27    1.026331e-01
   7745.56    1.019794e-01
   7745.84    1.013257e-01
   7746.13    1.005387e-01
   7746.42    9.959602e-02
   7746.71    9.865337e-02
   7747.00    9.771072e-02
   7747.29    9.667400e-02
   7747.58    9.563729e-02
   7747.87    9.460057e-02
   7748.16    9.358614e-02
   7748.44    9.259081e-02
   7748.73    9.159547e-02
   7749.02    9.060838e-02
   7749.31    8.972029e-02
   7749.60    8.883219e-02
   7749.89    8.794409e-02
   7750.18    8.713477e-02
   7750.47    8.637468e-02
   7750.76    8.561459e-02
   7751.04    8.487282e-02
   7751.33    8.423178e-02
   7751.62    8.359074e-02
   7751.91    8.294970e-02
   7752.20    8.237258e-02
   7752.49    8.182388e-02
   7752.78    8.127517e-02
   7753.07    8.073976e-02
   7753.36    8.024864e-02
   7753.64    7.975752e-02
   7753.93    7.926641e-02
   7754.22    7.879229e-02
   7754.51    7.832328e-02
   7754.80    7.785426e-02
   7755.09    7.738282e-02
   7755.38    7.690592e-02
   7755.67    7.642902e-02
   7755.96    7.595213e-02
   7756.24    7.545362e-02
   7756.53    7.495120e-02
   7756.82    7.444877e-02
   7757.11    7.393776e-02
   7757.40    7.341302e-02
   7757.69    7.288828e-02
   7757.98    7.236354e-02
   7758.27    7.184933e-02
   7758.56    7.133600e-02
   7758.84    7.082267e-02
   7759.13    7.034466e-02
   7759.42    6.990788e-02
   7759.71    6.947110e-02
   7760.00    6.903431e-02
