 FDMNES
  energy    <xanes>
   7695.00    5.202001e-04
   7695.29    5.257725e-04
   7695.58    5.313450e-04
   7695.87    5.369174e-04
   7696.16    5.426985e-04
   7696.44    5.486586e-04
   7696.73    5.546187e-04
   7697.02    5.606116e-04
   7697.31    5.669999e-04
   7697.60    5.733882e-04
   7697.89    5.797765e-04
   7698.18    5.864569e-04
   7698.47    5.933198e-04
   7698.76    6.001827e-04
   7699.04    6.071269e-04
   7699.33    6.145176e-04
   7699.62    6.219084e-04
   7699.91    6.292992e-04
   7700.20    6.370980e-04
   7700.49    6.450781e-04
   7700.78    6.530581e-04
   7701.07    6.611906e-04
   7701.36    6.698311e-04
   7701.64    6.784716e-04
   7701.93    6.871121e-04
   7702.22    6.963244e-04
   7702.51    7.057083e-04
   7702.80    7.150921e-04
   7703.09    7.247346e-04
   7703.38    7.349591e-04
   7703.67    7.451835e-04
   7703.96    7.554080e-04
   7704.24    7.664408e-04
   7704.53    7.776205e-04
   7704.82    7.888002e-04
   7705.11    8.003998e-04
   7705.40    8.126712e-04
   7705.69    8.249426e-04
   7705.98    8.372139e-04
   7706.27    8.506436e-04
   7706.56    8.641698e-04
   7706.84    8.776959e-04
   7707.13    8.918922e-04
   7707.42    9.068703e-04
   7707.71    9.218484e-04
   7708.00    9.368264e-04
   7708.29    9.534966e-04
   7708.58    9.701667e-04
   7708.87    9.868368e-04
   7709.16    1.004577e-03
   7709.44    1.023235e-03
   7709.73    1.041893e-03
   7710.02    1.060732e-03
   7710.31    1.081746e-03
   7710.60    1.102760e-03
   7710.89    1.123774e-03
   7711.18    1.146524e-03
   7711.47    1.170358e-03
   7711.76    1.194193e-03
   7712.04    1.218553e-03
   7712.33    1.245803e-03
   7712.62    1.273053e-03
   7712.91    1.300303e-03
   7713.20    1.330454e-03
   7713.49    1.361894e-03
   7713.78    1.393333e-03
   7714.07    1.425977e-03
   7714.36    1.462634e-03
   7714.64    1.499292e-03
   7714.93    1.535949e-03
   7715.22    1.577692e-03
   7715.51    1.620962e-03
   7715.80    1.664232e-03
   7716.09    1.710135e-03
   7716.38    1.761965e-03
   7716.67    1.813794e-03
   7716.96    1.865623e-03
   7717.24    1.927071e-03
   7717.53    1.990268e-03
   7717.82    2.053465e-03
   7718.11    2.122659e-03
   7718.40    2.201449e-03
   7718.69    2.280238e-03
   7718.98    2.359027e-03
   7719.27    2.458405e-03
   7719.56    2.559500e-03
   7719.84    2.660594e-03
   7720.13    2.777290e-03
   7720.42    2.912188e-03
   7720.71    3.047086e-03
   7721.00    3.181984e-03
   7721.29    3.372696e-03
   7721.58    3.563408e-03
   7721.87    3.754120e-03
   7722.16    4.002040e-03
   7722.44    4.298995e-03
   7722.73    4.595951e-03
   7723.02    4.913360e-03
   7723.31    5.476213e-03
   7723.60    6.039066e-03
   7723.89    6.601920e-03
   7724.18    7.753407e-03
   7724.47    9.272791e-03
   7724.76    1.079217e-02
   7725.04    1.244011e-02
   7725.33    1.478835e-02
   7725.62    1.705643e-02
   7725.91    1.926229e-02
   7726.20    2.155688e-02
   7726.49    2.415377e-02
   7726.78    2.713547e-02
   7727.07    3.070980e-02
   7727.36    3.492795e-02
   7727.64    3.991989e-02
   7727.93    4.573749e-02
   7728.22    5.232286e-02
   7728.51    5.965449e-02
   7728.80    6.747736e-02
   7729.09    7.570924e-02
   7729.38    8.409089e-02
   7729.67    9.227953e-02
   7729.96    9.974408e-02
   7730.24    1.057893e-01
   7730.53    1.096997e-01
   7730.82    1.115842e-01
   7731.11    1.119136e-01
   7731.40    1.112877e-01
   7731.69    1.102230e-01
   7731.98    1.090450e-01
   7732.27    1.079040e-01
   7732.56    1.068317e-01
   7732.84    1.058062e-01
   7733.13    1.048125e-01
   7733.42    1.038554e-01
   7733.71    1.029609e-01
   7734.00    1.021668e-01
   7734.29    1.015288e-01
   7734.58    1.010530e-01
   7734.87    1.007417e-01
   7735.16    1.005825e-01
   7735.44    1.005518e-01
   7735.73    1.006183e-01
   7736.02    1.007488e-01
   7736.31    1.009026e-01
   7736.60    1.010462e-01
   7736.89    1.011559e-01
   7737.18    1.012162e-01
   7737.47    1.012212e-01
   7737.76    1.011735e-01
   7738.04    1.010835e-01
   7738.33    1.009748e-01
   7738.62    1.008685e-01
   7738.91    1.007851e-01
   7739.20    1.007426e-01
   7739.49    1.007545e-01
   7739.78    1.008347e-01
   7740.07    1.009958e-01
   7740.36    1.012459e-01
   7740.64    1.014960e-01
   7740.93    1.017461e-01
   7741.22    1.020342e-01
   7741.51    1.023336e-01
   7741.80    1.026331e-01
   7742.09    1.028804e-01
   7742.38    1.030107e-01
   7742.67    1.031409e-01
   7742.96    1.032711e-01
   7743.24    1.031213e-01
   7743.53    1.029206e-01
   7743.82    1.027199e-01
   7744.11    1.023782e-01
   7744.40    1.018109e-01
   7744.69    1.012437e-01
   7744.98    1.006764e-01
   7745.27    9.984783e-02
   7745.56    9.899749e-02
   7745.84    9.814715e-02
   7746.13    9.723773e-02
   7746.42    9.625938e-02
   7746.71    9.528102e-02
   7747.00    9.430266e-02
   7747.29    9.335661e-02
   7747.58    9.241056e-02
   7747.87    9.146450e-02
   7748.16    9.058523e-02
   7748.44    8.976321e-02
   7748.73    8.894118e-02
   7749.02    8.813059e-02
   7749.31    8.745721e-02
   7749.60    8.678384e-02
   7749.89    8.611046e-02
   7750.18    8.551864e-02
   7750.47    8.497778e-02
   7750.76    8.443692e-02
   7751.04    8.391067e-02
   7751.33    8.346470e-02
   7751.62    8.301874e-02
   7751.91    8.257278e-02
   7752.20    8.216154e-02
   7752.49    8.176574e-02
   7752.78    8.136994e-02
   7753.07    8.097606e-02
   7753.36    8.058858e-02
   7753.64    8.020109e-02
   7753.93    7.981361e-02
   7754.22    7.940738e-02
   7754.51    7.899552e-02
   7754.80    7.858366e-02
   7755.09    7.815813e-02
   7755.38    7.770182e-02
   7755.67    7.724551e-02
   7755.96    7.678920e-02
   7756.24    7.629128e-02
   7756.53    7.578578e-02
   7756.82    7.528029e-02
   7757.11    7.476168e-02
   7757.40    7.422211e-02
   7757.69    7.368254e-02
   7757.98    7.314297e-02
   7758.27    7.261129e-02
   7758.56    7.208027e-02
   7758.84    7.154925e-02
   7759.13    7.105501e-02
   7759.42    7.060368e-02
   7759.71    7.015235e-02
   7760.00    6.970102e-02
