 FDMNES
  energy    <xanes>
   7695.00    5.326947e-04
   7695.29    5.382459e-04
   7695.58    5.437972e-04
   7695.87    5.493484e-04
   7696.16    5.551038e-04
   7696.44    5.610341e-04
   7696.73    5.669643e-04
   7697.02    5.729268e-04
   7697.31    5.792753e-04
   7697.60    5.856238e-04
   7697.89    5.919722e-04
   7698.18    5.986056e-04
   7698.47    6.054170e-04
   7698.76    6.122284e-04
   7699.04    6.191190e-04
   7699.33    6.264446e-04
   7699.62    6.337702e-04
   7699.91    6.410958e-04
   7700.20    6.488183e-04
   7700.49    6.567172e-04
   7700.78    6.646160e-04
   7701.07    6.726629e-04
   7701.36    6.812034e-04
   7701.64    6.897439e-04
   7701.93    6.982843e-04
   7702.22    7.073795e-04
   7702.51    7.166411e-04
   7702.80    7.259027e-04
   7703.09    7.354149e-04
   7703.38    7.454908e-04
   7703.67    7.555667e-04
   7703.96    7.656426e-04
   7704.24    7.765004e-04
   7704.53    7.875004e-04
   7704.82    7.985003e-04
   7705.11    8.099058e-04
   7705.40    8.219601e-04
   7705.69    8.340144e-04
   7705.98    8.460687e-04
   7706.27    8.592400e-04
   7706.56    8.725044e-04
   7706.84    8.857688e-04
   7707.13    8.996784e-04
   7707.42    9.143408e-04
   7707.71    9.290031e-04
   7708.00    9.436655e-04
   7708.29    9.599544e-04
   7708.58    9.762434e-04
   7708.87    9.925323e-04
   7709.16    1.009849e-03
   7709.44    1.028045e-03
   7709.73    1.046242e-03
   7710.02    1.064612e-03
   7710.31    1.085067e-03
   7710.60    1.105521e-03
   7710.89    1.125975e-03
   7711.18    1.148090e-03
   7711.47    1.171243e-03
   7711.76    1.194396e-03
   7712.04    1.218051e-03
   7712.33    1.244466e-03
   7712.62    1.270881e-03
   7712.91    1.297297e-03
   7713.20    1.326478e-03
   7713.49    1.356890e-03
   7713.78    1.387301e-03
   7714.07    1.418859e-03
   7714.36    1.454240e-03
   7714.64    1.489621e-03
   7714.93    1.525002e-03
   7715.22    1.565223e-03
   7715.51    1.606895e-03
   7715.80    1.648568e-03
   7716.09    1.692744e-03
   7716.38    1.742554e-03
   7716.67    1.792364e-03
   7716.96    1.842174e-03
   7717.24    1.901127e-03
   7717.53    1.961742e-03
   7717.82    2.022358e-03
   7718.11    2.088678e-03
   7718.40    2.164125e-03
   7718.69    2.239573e-03
   7718.98    2.315020e-03
   7719.27    2.410095e-03
   7719.56    2.506805e-03
   7719.84    2.603516e-03
   7720.13    2.715168e-03
   7720.42    2.844253e-03
   7720.71    2.973337e-03
   7721.00    3.102422e-03
   7721.29    3.285422e-03
   7721.58    3.468421e-03
   7721.87    3.651421e-03
   7722.16    3.890537e-03
   7722.44    4.177751e-03
   7722.73    4.464965e-03
   7723.02    4.772754e-03
   7723.31    5.327430e-03
   7723.60    5.882106e-03
   7723.89    6.436783e-03
   7724.18    7.597537e-03
   7724.47    9.137090e-03
   7724.76    1.067664e-02
   7725.04    1.234716e-02
   7725.33    1.472885e-02
   7725.62    1.703035e-02
   7725.91    1.927274e-02
   7726.20    2.157968e-02
   7726.49    2.409325e-02
   7726.78    2.684180e-02
   7727.07    2.989671e-02
   7727.36    3.324419e-02
   7727.64    3.697066e-02
   7727.93    4.122166e-02
   7728.22    4.614462e-02
   7728.51    5.195856e-02
   7728.80    5.855580e-02
   7729.09    6.596130e-02
   7729.38    7.375037e-02
   7729.67    8.154642e-02
   7729.96    8.888928e-02
   7730.24    9.529395e-02
   7730.53    1.001831e-01
   7730.82    1.033915e-01
   7731.11    1.049717e-01
   7731.40    1.051829e-01
   7731.69    1.044248e-01
   7731.98    1.031230e-01
   7732.27    1.016385e-01
   7732.56    1.002387e-01
   7732.84    9.904914e-02
   7733.13    9.811711e-02
   7733.42    9.744808e-02
   7733.71    9.702837e-02
   7734.00    9.683963e-02
   7734.29    9.689019e-02
   7734.58    9.714304e-02
   7734.87    9.759077e-02
   7735.16    9.822501e-02
   7735.44    9.903225e-02
   7735.73    9.999005e-02
   7736.02    1.010690e-01
   7736.31    1.022113e-01
   7736.60    1.033502e-01
   7736.89    1.044175e-01
   7737.18    1.053446e-01
   7737.47    1.060704e-01
   7737.76    1.065440e-01
   7738.04    1.067177e-01
   7738.33    1.066243e-01
   7738.62    1.062928e-01
   7738.91    1.057684e-01
   7739.20    1.051057e-01
   7739.49    1.043604e-01
   7739.78    1.035846e-01
   7740.07    1.028502e-01
   7740.36    1.022245e-01
   7740.64    1.015989e-01
   7740.93    1.009732e-01
   7741.22    1.006180e-01
   7741.51    1.003438e-01
   7741.80    1.000697e-01
   7742.09    9.989229e-02
   7742.38    9.993250e-02
   7742.67    9.997272e-02
   7742.96    1.000129e-01
   7743.24    1.001794e-01
   7743.53    1.003688e-01
   7743.82    1.005583e-01
   7744.11    1.007253e-01
   7744.40    1.008567e-01
   7744.69    1.009880e-01
   7744.98    1.011193e-01
   7745.27    1.010323e-01
   7745.56    1.009270e-01
   7745.84    1.008218e-01
   7746.13    1.005694e-01
   7746.42    1.001454e-01
   7746.71    9.972139e-02
   7747.00    9.929738e-02
   7747.29    9.859340e-02
   7747.58    9.788943e-02
   7747.87    9.718545e-02
   7748.16    9.640092e-02
   7748.44    9.554736e-02
   7748.73    9.469379e-02
   7749.02    9.384035e-02
   7749.31    9.298845e-02
   7749.60    9.213655e-02
   7749.89    9.128465e-02
   7750.18    9.048933e-02
   7750.47    8.972938e-02
   7750.76    8.896942e-02
   7751.04    8.822767e-02
   7751.33    8.758599e-02
   7751.62    8.694432e-02
   7751.91    8.630264e-02
   7752.20    8.573515e-02
   7752.49    8.520064e-02
   7752.78    8.466612e-02
   7753.07    8.414965e-02
   7753.36    8.369336e-02
   7753.64    8.323707e-02
   7753.93    8.278078e-02
   7754.22    8.235908e-02
   7754.51    8.194775e-02
   7754.80    8.153643e-02
   7755.09    8.112999e-02
   7755.38    8.073452e-02
   7755.67    8.033906e-02
   7755.96    7.994360e-02
   7756.24    7.954539e-02
   7756.53    7.914668e-02
   7756.82    7.874797e-02
   7757.11    7.834667e-02
   7757.40    7.794122e-02
   7757.69    7.753578e-02
   7757.98    7.713033e-02
   7758.27    7.673667e-02
   7758.56    7.634400e-02
   7758.84    7.595133e-02
   7759.13    7.558565e-02
   7759.42    7.525144e-02
   7759.71    7.491723e-02
   7760.00    7.458303e-02
