 FDMNES
  energy    <xanes>
   7695.00    5.407391e-04
   7695.29    5.464320e-04
   7695.58    5.521250e-04
   7695.87    5.578179e-04
   7696.16    5.637226e-04
   7696.44    5.698089e-04
   7696.73    5.758952e-04
   7697.02    5.820149e-04
   7697.31    5.885356e-04
   7697.60    5.950564e-04
   7697.89    6.015772e-04
   7698.18    6.083944e-04
   7698.47    6.153967e-04
   7698.76    6.223991e-04
   7699.04    6.294839e-04
   7699.33    6.370219e-04
   7699.62    6.445600e-04
   7699.91    6.520980e-04
   7700.20    6.600500e-04
   7700.49    6.681861e-04
   7700.78    6.763221e-04
   7701.07    6.846128e-04
   7701.36    6.934192e-04
   7701.64    7.022255e-04
   7701.93    7.110319e-04
   7702.22    7.204188e-04
   7702.51    7.299798e-04
   7702.80    7.395408e-04
   7703.09    7.493645e-04
   7703.38    7.597792e-04
   7703.67    7.701939e-04
   7703.96    7.806086e-04
   7704.24    7.918445e-04
   7704.53    8.032297e-04
   7704.82    8.146149e-04
   7705.11    8.264269e-04
   7705.40    8.389216e-04
   7705.69    8.514164e-04
   7705.98    8.639112e-04
   7706.27    8.775841e-04
   7706.56    8.913552e-04
   7706.84    9.051263e-04
   7707.13    9.195795e-04
   7707.42    9.348285e-04
   7707.71    9.500774e-04
   7708.00    9.653264e-04
   7708.29    9.822994e-04
   7708.58    9.992723e-04
   7708.87    1.016245e-03
   7709.16    1.034310e-03
   7709.44    1.053311e-03
   7709.73    1.072311e-03
   7710.02    1.091497e-03
   7710.31    1.112904e-03
   7710.60    1.134311e-03
   7710.89    1.155719e-03
   7711.18    1.178902e-03
   7711.47    1.203195e-03
   7711.76    1.227489e-03
   7712.04    1.252321e-03
   7712.33    1.280116e-03
   7712.62    1.307911e-03
   7712.91    1.335706e-03
   7713.20    1.366483e-03
   7713.49    1.398585e-03
   7713.78    1.430687e-03
   7714.07    1.464030e-03
   7714.36    1.501511e-03
   7714.64    1.538993e-03
   7714.93    1.576474e-03
   7715.22    1.619220e-03
   7715.51    1.663545e-03
   7715.80    1.707870e-03
   7716.09    1.754935e-03
   7716.38    1.808161e-03
   7716.67    1.861388e-03
   7716.96    1.914615e-03
   7717.24    1.977906e-03
   7717.53    2.043027e-03
   7717.82    2.108149e-03
   7718.11    2.179595e-03
   7718.40    2.261160e-03
   7718.69    2.342726e-03
   7718.98    2.424291e-03
   7719.27    2.527801e-03
   7719.56    2.633139e-03
   7719.84    2.738477e-03
   7720.13    2.860684e-03
   7720.42    3.002570e-03
   7720.71    3.144455e-03
   7721.00    3.286341e-03
   7721.29    3.489772e-03
   7721.58    3.693203e-03
   7721.87    3.896633e-03
   7722.16    4.164846e-03
   7722.44    4.488585e-03
   7722.73    4.812325e-03
   7723.02    5.159938e-03
   7723.31    5.794027e-03
   7723.60    6.428115e-03
   7723.89    7.062204e-03
   7724.18    8.413676e-03
   7724.47    1.021351e-02
   7724.76    1.201335e-02
   7725.04    1.399933e-02
   7725.33    1.708559e-02
   7725.62    2.027973e-02
   7725.91    2.333563e-02
   7726.20    2.607318e-02
   7726.49    2.841217e-02
   7726.78    3.070658e-02
   7727.07    3.335365e-02
   7727.36    3.654714e-02
   7727.64    4.041442e-02
   7727.93    4.501064e-02
   7728.22    5.038246e-02
   7728.51    5.675046e-02
   7728.80    6.406519e-02
   7729.09    7.253169e-02
   7729.38    8.171600e-02
   7729.67    9.118730e-02
   7729.96    1.002073e-01
   7730.24    1.079608e-01
   7730.53    1.135081e-01
   7730.82    1.166279e-01
   7731.11    1.175479e-01
   7731.40    1.168308e-01
   7731.69    1.151501e-01
   7731.98    1.130614e-01
   7732.27    1.109095e-01
   7732.56    1.088524e-01
   7732.84    1.069171e-01
   7733.13    1.051031e-01
   7733.42    1.034139e-01
   7733.71    1.018668e-01
   7734.00    1.004909e-01
   7734.29    9.934583e-02
   7734.58    9.843295e-02
   7734.87    9.776072e-02
   7735.16    9.732199e-02
   7735.44    9.709490e-02
   7735.73    9.704500e-02
   7736.02    9.713348e-02
   7736.31    9.729940e-02
   7736.60    9.748341e-02
   7736.89    9.763617e-02
   7737.18    9.771679e-02
   7737.47    9.769713e-02
   7737.76    9.756248e-02
   7738.04    9.730852e-02
   7738.33    9.696650e-02
   7738.62    9.656447e-02
   7738.91    9.613466e-02
   7739.20    9.570959e-02
   7739.49    9.531908e-02
   7739.78    9.499501e-02
   7740.07    9.478768e-02
   7740.36    9.475047e-02
   7740.64    9.471326e-02
   7740.93    9.467605e-02
   7741.22    9.493077e-02
   7741.51    9.527306e-02
   7741.80    9.561535e-02
   7742.09    9.604419e-02
   7742.38    9.666775e-02
   7742.67    9.729131e-02
   7742.96    9.791487e-02
   7743.24    9.859720e-02
   7743.53    9.929021e-02
   7743.82    9.998322e-02
   7744.11    1.005978e-01
   7744.40    1.010868e-01
   7744.69    1.015757e-01
   7744.98    1.020647e-01
   7745.27    1.021387e-01
   7745.56    1.021780e-01
   7745.84    1.022174e-01
   7746.13    1.020153e-01
   7746.42    1.015316e-01
   7746.71    1.010479e-01
   7747.00    1.005641e-01
   7747.29    9.971775e-02
   7747.58    9.887135e-02
   7747.87    9.802496e-02
   7748.16    9.711742e-02
   7748.44    9.615749e-02
   7748.73    9.519755e-02
   7749.02    9.424319e-02
   7749.31    9.335581e-02
   7749.60    9.246843e-02
   7749.89    9.158104e-02
   7750.18    9.078708e-02
   7750.47    9.005151e-02
   7750.76    8.931594e-02
   7751.04    8.860380e-02
   7751.33    8.802053e-02
   7751.62    8.743725e-02
   7751.91    8.685398e-02
   7752.20    8.634970e-02
   7752.49    8.588053e-02
   7752.78    8.541135e-02
   7753.07    8.495711e-02
   7753.36    8.455262e-02
   7753.64    8.414812e-02
   7753.93    8.374363e-02
   7754.22    8.335446e-02
   7754.51    8.296989e-02
   7754.80    8.258532e-02
   7755.09    8.219706e-02
   7755.38    8.180051e-02
   7755.67    8.140396e-02
   7755.96    8.100741e-02
   7756.24    8.058850e-02
   7756.53    8.016553e-02
   7756.82    7.974256e-02
   7757.11    7.931203e-02
   7757.40    7.886942e-02
   7757.69    7.842680e-02
   7757.98    7.798419e-02
   7758.27    7.755280e-02
   7758.56    7.712234e-02
   7758.84    7.669188e-02
   7759.13    7.629231e-02
   7759.42    7.592878e-02
   7759.71    7.556524e-02
   7760.00    7.520170e-02
