 FDMNES
  energy    <xanes>
   7695.00    5.476156e-04
   7695.29    5.534456e-04
   7695.58    5.592756e-04
   7695.87    5.651056e-04
   7696.16    5.711552e-04
   7696.44    5.773931e-04
   7696.73    5.836310e-04
   7697.02    5.899035e-04
   7697.31    5.965924e-04
   7697.60    6.032813e-04
   7697.89    6.099703e-04
   7698.18    6.169671e-04
   7698.47    6.241565e-04
   7698.76    6.313459e-04
   7699.04    6.386210e-04
   7699.33    6.463677e-04
   7699.62    6.541143e-04
   7699.91    6.618610e-04
   7700.20    6.700388e-04
   7700.49    6.784084e-04
   7700.78    6.867779e-04
   7701.07    6.953087e-04
   7701.36    7.043773e-04
   7701.64    7.134459e-04
   7701.93    7.225145e-04
   7702.22    7.321892e-04
   7702.51    7.420458e-04
   7702.80    7.519024e-04
   7703.09    7.620335e-04
   7703.38    7.727826e-04
   7703.67    7.835316e-04
   7703.96    7.942806e-04
   7704.24    8.058893e-04
   7704.53    8.176543e-04
   7704.82    8.294193e-04
   7705.11    8.416317e-04
   7705.40    8.545597e-04
   7705.69    8.674877e-04
   7705.98    8.804157e-04
   7706.27    8.945802e-04
   7706.56    9.088477e-04
   7706.84    9.231152e-04
   7707.13    9.380995e-04
   7707.42    9.539201e-04
   7707.71    9.697406e-04
   7708.00    9.855612e-04
   7708.29    1.003196e-03
   7708.58    1.020830e-03
   7708.87    1.038464e-03
   7709.16    1.057249e-03
   7709.44    1.077019e-03
   7709.73    1.096789e-03
   7710.02    1.116755e-03
   7710.31    1.139063e-03
   7710.60    1.161371e-03
   7710.89    1.183679e-03
   7711.18    1.207861e-03
   7711.47    1.233215e-03
   7711.76    1.258569e-03
   7712.04    1.284492e-03
   7712.33    1.313544e-03
   7712.62    1.342596e-03
   7712.91    1.371647e-03
   7713.20    1.403848e-03
   7713.49    1.437449e-03
   7713.78    1.471050e-03
   7714.07    1.505961e-03
   7714.36    1.545242e-03
   7714.64    1.584523e-03
   7714.93    1.623804e-03
   7715.22    1.668637e-03
   7715.51    1.715136e-03
   7715.80    1.761636e-03
   7716.09    1.811018e-03
   7716.38    1.866884e-03
   7716.67    1.922751e-03
   7716.96    1.978618e-03
   7717.24    2.045035e-03
   7717.53    2.113370e-03
   7717.82    2.181705e-03
   7718.11    2.256627e-03
   7718.40    2.342088e-03
   7718.69    2.427549e-03
   7718.98    2.513010e-03
   7719.27    2.621089e-03
   7719.56    2.731052e-03
   7719.84    2.841016e-03
   7720.13    2.968079e-03
   7720.42    3.115091e-03
   7720.71    3.262104e-03
   7721.00    3.409117e-03
   7721.29    3.616879e-03
   7721.58    3.824642e-03
   7721.87    4.032405e-03
   7722.16    4.301423e-03
   7722.44    4.622947e-03
   7722.73    4.944471e-03
   7723.02    5.287128e-03
   7723.31    5.883387e-03
   7723.60    6.479646e-03
   7723.89    7.075905e-03
   7724.18    8.256897e-03
   7724.47    9.803345e-03
   7724.76    1.134979e-02
   7725.04    1.303527e-02
   7725.33    1.553203e-02
   7725.62    1.813401e-02
   7725.91    2.087798e-02
   7726.20    2.381587e-02
   7726.49    2.707728e-02
   7726.78    3.068226e-02
   7727.07    3.482424e-02
   7727.36    3.958696e-02
   7727.64    4.512320e-02
   7727.93    5.146789e-02
   7728.22    5.851938e-02
   7728.51    6.625128e-02
   7728.80    7.453827e-02
   7729.09    8.364445e-02
   7729.38    9.352760e-02
   7729.67    1.041609e-01
   7729.96    1.149119e-01
   7730.24    1.248477e-01
   7730.53    1.327157e-01
   7730.82    1.379392e-01
   7731.11    1.404517e-01
   7731.40    1.405339e-01
   7731.69    1.386275e-01
   7731.98    1.351968e-01
   7732.27    1.306613e-01
   7732.56    1.255010e-01
   7732.84    1.201598e-01
   7733.13    1.149460e-01
   7733.42    1.100891e-01
   7733.71    1.057381e-01
   7734.00    1.019712e-01
   7734.29    9.888673e-02
   7734.58    9.639995e-02
   7734.87    9.447791e-02
   7735.16    9.307457e-02
   7735.44    9.213417e-02
   7735.73    9.159330e-02
   7736.02    9.139980e-02
   7736.31    9.146351e-02
   7736.60    9.169369e-02
   7736.89    9.201877e-02
   7737.18    9.237392e-02
   7737.47    9.270468e-02
   7737.76    9.296824e-02
   7738.04    9.312911e-02
   7738.33    9.318738e-02
   7738.62    9.314835e-02
   7738.91    9.302690e-02
   7739.20    9.284392e-02
   7739.49    9.262275e-02
   7739.78    9.238658e-02
   7740.07    9.216966e-02
   7740.36    9.200455e-02
   7740.64    9.183944e-02
   7740.93    9.167433e-02
   7741.22    9.163559e-02
   7741.51    9.163477e-02
   7741.80    9.163394e-02
   7742.09    9.167077e-02
   7742.38    9.179231e-02
   7742.67    9.191386e-02
   7742.96    9.203541e-02
   7743.24    9.216388e-02
   7743.53    9.229361e-02
   7743.82    9.242334e-02
   7744.11    9.251172e-02
   7744.40    9.253395e-02
   7744.69    9.255618e-02
   7744.98    9.257841e-02
   7745.27    9.244711e-02
   7745.56    9.230302e-02
   7745.84    9.215892e-02
   7746.13    9.194651e-02
   7746.42    9.165438e-02
   7746.71    9.136226e-02
   7747.00    9.107013e-02
   7747.29    9.068468e-02
   7747.58    9.029922e-02
   7747.87    8.991377e-02
   7748.16    8.950814e-02
   7748.44    8.908522e-02
   7748.73    8.866231e-02
   7749.02    8.824053e-02
   7749.31    8.783236e-02
   7749.60    8.742419e-02
   7749.89    8.701602e-02
   7750.18    8.664118e-02
   7750.47    8.628718e-02
   7750.76    8.593317e-02
   7751.04    8.558937e-02
   7751.33    8.530165e-02
   7751.62    8.501394e-02
   7751.91    8.472622e-02
   7752.20    8.447339e-02
   7752.49    8.423606e-02
   7752.78    8.399874e-02
   7753.07    8.376556e-02
   7753.36    8.354619e-02
   7753.64    8.332682e-02
   7753.93    8.310745e-02
   7754.22    8.287401e-02
   7754.51    8.263635e-02
   7754.80    8.239869e-02
   7755.09    8.214601e-02
   7755.38    8.185953e-02
   7755.67    8.157304e-02
   7755.96    8.128656e-02
   7756.24    8.094422e-02
   7756.53    8.059173e-02
   7756.82    8.023923e-02
   7757.11    7.986331e-02
   7757.40    7.944991e-02
   7757.69    7.903650e-02
   7757.98    7.862310e-02
   7758.27    7.818903e-02
   7758.56    7.775324e-02
   7758.84    7.731745e-02
   7759.13    7.690547e-02
   7759.42    7.652128e-02
   7759.71    7.613709e-02
   7760.00    7.575289e-02
