 FDMNES
  energy    <xanes>
   7695.00    5.398845e-04
   7695.29    5.456821e-04
   7695.58    5.514796e-04
   7695.87    5.572772e-04
   7696.16    5.632939e-04
   7696.44    5.694985e-04
   7696.73    5.757031e-04
   7697.02    5.819423e-04
   7697.31    5.885971e-04
   7697.60    5.952520e-04
   7697.89    6.019068e-04
   7698.18    6.088691e-04
   7698.47    6.160236e-04
   7698.76    6.231781e-04
   7699.04    6.304182e-04
   7699.33    6.381292e-04
   7699.62    6.458402e-04
   7699.91    6.535512e-04
   7700.20    6.616930e-04
   7700.49    6.700261e-04
   7700.78    6.783593e-04
   7701.07    6.868536e-04
   7701.36    6.958852e-04
   7701.64    7.049167e-04
   7701.93    7.139483e-04
   7702.22    7.235857e-04
   7702.51    7.334048e-04
   7702.80    7.432239e-04
   7703.09    7.533175e-04
   7703.38    7.640288e-04
   7703.67    7.747401e-04
   7703.96    7.854515e-04
   7704.24    7.970226e-04
   7704.53    8.087500e-04
   7704.82    8.204774e-04
   7705.11    8.326525e-04
   7705.40    8.455436e-04
   7705.69    8.584348e-04
   7705.98    8.713260e-04
   7706.27    8.854551e-04
   7706.56    8.996874e-04
   7706.84    9.139197e-04
   7707.13    9.288701e-04
   7707.42    9.446583e-04
   7707.71    9.604465e-04
   7708.00    9.762348e-04
   7708.29    9.938418e-04
   7708.58    1.011449e-03
   7708.87    1.029056e-03
   7709.16    1.047817e-03
   7709.44    1.067568e-03
   7709.73    1.087319e-03
   7710.02    1.107266e-03
   7710.31    1.129567e-03
   7710.60    1.151869e-03
   7710.89    1.174170e-03
   7711.18    1.198358e-03
   7711.47    1.223725e-03
   7711.76    1.249092e-03
   7712.04    1.275033e-03
   7712.33    1.304130e-03
   7712.62    1.333227e-03
   7712.91    1.362324e-03
   7713.20    1.394605e-03
   7713.49    1.428301e-03
   7713.78    1.461997e-03
   7714.07    1.497023e-03
   7714.36    1.536480e-03
   7714.64    1.575937e-03
   7714.93    1.615394e-03
   7715.22    1.660505e-03
   7715.51    1.707313e-03
   7715.80    1.754121e-03
   7716.09    1.803879e-03
   7716.38    1.860276e-03
   7716.67    1.916672e-03
   7716.96    1.973069e-03
   7717.24    2.040337e-03
   7717.53    2.109583e-03
   7717.82    2.178828e-03
   7718.11    2.254922e-03
   7718.40    2.341974e-03
   7718.69    2.429026e-03
   7718.98    2.516078e-03
   7719.27    2.626926e-03
   7719.56    2.739756e-03
   7719.84    2.852587e-03
   7720.13    2.983695e-03
   7720.42    3.136127e-03
   7720.71    3.288559e-03
   7721.00    3.440991e-03
   7721.29    3.659750e-03
   7721.58    3.878510e-03
   7721.87    4.097269e-03
   7722.16    4.384788e-03
   7722.44    4.731243e-03
   7722.73    5.077698e-03
   7723.02    5.448640e-03
   7723.31    6.113420e-03
   7723.60    6.778200e-03
   7723.89    7.442980e-03
   7724.18    8.806899e-03
   7724.47    1.060778e-02
   7724.76    1.240866e-02
   7725.04    1.438700e-02
   7725.33    1.742803e-02
   7725.62    2.068871e-02
   7725.91    2.421289e-02
   7726.20    2.801841e-02
   7726.49    3.216221e-02
   7726.78    3.652839e-02
   7727.07    4.112957e-02
   7727.36    4.599656e-02
   7727.64    5.128081e-02
   7727.93    5.712772e-02
   7728.22    6.358111e-02
   7728.51    7.062678e-02
   7728.80    7.795000e-02
   7729.09    8.517671e-02
   7729.38    9.197443e-02
   7729.67    9.797704e-02
   7729.96    1.030929e-01
   7730.24    1.071927e-01
   7730.53    1.101091e-01
   7730.82    1.119434e-01
   7731.11    1.128437e-01
   7731.40    1.130118e-01
   7731.69    1.126759e-01
   7731.98    1.120484e-01
   7732.27    1.112989e-01
   7732.56    1.105530e-01
   7732.84    1.098640e-01
   7733.13    1.092297e-01
   7733.42    1.086185e-01
   7733.71    1.079939e-01
   7734.00    1.073317e-01
   7734.29    1.066185e-01
   7734.58    1.058701e-01
   7734.87    1.051084e-01
   7735.16    1.043612e-01
   7735.44    1.036561e-01
   7735.73    1.030154e-01
   7736.02    1.024575e-01
   7736.31    1.019826e-01
   7736.60    1.015771e-01
   7736.89    1.012249e-01
   7737.18    1.009060e-01
   7737.47    1.006009e-01
   7737.76    1.002924e-01
   7738.04    9.996734e-02
   7738.33    9.962294e-02
   7738.62    9.926212e-02
   7738.91    9.889274e-02
   7739.20    9.852604e-02
   7739.49    9.817481e-02
   7739.78    9.785513e-02
   7740.07    9.759603e-02
   7740.36    9.742954e-02
   7740.64    9.726305e-02
   7740.93    9.709657e-02
   7741.22    9.709400e-02
   7741.51    9.714060e-02
   7741.80    9.718721e-02
   7742.09    9.727167e-02
   7742.38    9.744130e-02
   7742.67    9.761093e-02
   7742.96    9.778056e-02
   7743.24    9.789807e-02
   7743.53    9.800611e-02
   7743.82    9.811415e-02
   7744.11    9.812874e-02
   7744.40    9.799381e-02
   7744.69    9.785888e-02
   7744.98    9.772395e-02
   7745.27    9.729546e-02
   7745.56    9.684251e-02
   7745.84    9.638956e-02
   7746.13    9.581690e-02
   7746.42    9.510456e-02
   7746.71    9.439223e-02
   7747.00    9.367989e-02
   7747.29    9.284094e-02
   7747.58    9.200198e-02
   7747.87    9.116303e-02
   7748.16    9.032618e-02
   7748.44    8.949114e-02
   7748.73    8.865610e-02
   7749.02    8.782820e-02
   7749.31    8.708588e-02
   7749.60    8.634356e-02
   7749.89    8.560124e-02
   7750.18    8.494197e-02
   7750.47    8.433460e-02
   7750.76    8.372723e-02
   7751.04    8.314127e-02
   7751.33    8.267305e-02
   7751.62    8.220484e-02
   7751.91    8.173662e-02
   7752.20    8.134830e-02
   7752.49    8.099549e-02
   7752.78    8.064269e-02
   7753.07    8.030699e-02
   7753.36    8.002833e-02
   7753.64    7.974967e-02
   7753.93    7.947101e-02
   7754.22    7.921241e-02
   7754.51    7.895983e-02
   7754.80    7.870725e-02
   7755.09    7.844908e-02
   7755.38    7.817835e-02
   7755.67    7.790762e-02
   7755.96    7.763689e-02
   7756.24    7.732562e-02
   7756.53    7.700698e-02
   7756.82    7.668834e-02
   7757.11    7.634954e-02
   7757.40    7.597847e-02
   7757.69    7.560739e-02
   7757.98    7.523632e-02
   7758.27    7.484523e-02
   7758.56    7.445247e-02
   7758.84    7.405971e-02
   7759.13    7.368735e-02
   7759.42    7.333881e-02
   7759.71    7.299027e-02
   7760.00    7.264173e-02
