 FDMNES
  energy    <xanes>
   7695.00    5.250518e-04
   7695.29    5.308418e-04
   7695.58    5.366318e-04
   7695.87    5.424219e-04
   7696.16    5.484350e-04
   7696.44    5.546393e-04
   7696.73    5.608437e-04
   7697.02    5.670833e-04
   7697.31    5.737466e-04
   7697.60    5.804098e-04
   7697.89    5.870731e-04
   7698.18    5.940502e-04
   7698.47    6.012234e-04
   7698.76    6.083967e-04
   7699.04    6.156574e-04
   7699.33    6.233995e-04
   7699.62    6.311415e-04
   7699.91    6.388836e-04
   7700.20    6.470665e-04
   7700.49    6.554454e-04
   7700.78    6.638243e-04
   7701.07    6.723684e-04
   7701.36    6.814633e-04
   7701.64    6.905582e-04
   7701.93    6.996531e-04
   7702.22    7.093700e-04
   7702.51    7.192735e-04
   7702.80    7.291769e-04
   7703.09    7.393627e-04
   7703.38    7.501838e-04
   7703.67    7.610048e-04
   7703.96    7.718258e-04
   7704.24    7.835325e-04
   7704.53    7.954001e-04
   7704.82    8.072678e-04
   7705.11    8.195973e-04
   7705.40    8.326657e-04
   7705.69    8.457341e-04
   7705.98    8.588025e-04
   7706.27    8.731504e-04
   7706.56    8.876048e-04
   7706.84    9.020593e-04
   7707.13    9.172572e-04
   7707.42    9.333226e-04
   7707.71    9.493879e-04
   7708.00    9.654533e-04
   7708.29    9.834050e-04
   7708.58    1.001357e-03
   7708.87    1.019308e-03
   7709.16    1.038459e-03
   7709.44    1.058638e-03
   7709.73    1.078817e-03
   7710.02    1.099200e-03
   7710.31    1.122034e-03
   7710.60    1.144867e-03
   7710.89    1.167700e-03
   7711.18    1.192501e-03
   7711.47    1.218530e-03
   7711.76    1.244560e-03
   7712.04    1.271189e-03
   7712.33    1.301114e-03
   7712.62    1.331038e-03
   7712.91    1.360963e-03
   7713.20    1.394217e-03
   7713.49    1.428952e-03
   7713.78    1.463686e-03
   7714.07    1.499813e-03
   7714.36    1.540582e-03
   7714.64    1.581350e-03
   7714.93    1.622119e-03
   7715.22    1.668816e-03
   7715.51    1.717292e-03
   7715.80    1.765769e-03
   7716.09    1.817341e-03
   7716.38    1.875880e-03
   7716.67    1.934419e-03
   7716.96    1.992958e-03
   7717.24    2.062910e-03
   7717.53    2.134937e-03
   7717.82    2.206964e-03
   7718.11    2.286178e-03
   7718.40    2.376890e-03
   7718.69    2.467603e-03
   7718.98    2.558316e-03
   7719.27    2.673964e-03
   7719.56    2.791690e-03
   7719.84    2.909416e-03
   7720.13    3.046242e-03
   7720.42    3.205352e-03
   7720.71    3.364462e-03
   7721.00    3.523572e-03
   7721.29    3.751680e-03
   7721.58    3.979788e-03
   7721.87    4.207896e-03
   7722.16    4.507064e-03
   7722.44    4.867141e-03
   7722.73    5.227218e-03
   7723.02    5.612419e-03
   7723.31    6.299098e-03
   7723.60    6.985778e-03
   7723.89    7.672457e-03
   7724.18    9.070669e-03
   7724.47    1.091359e-02
   7724.76    1.275651e-02
   7725.04    1.477506e-02
   7725.33    1.783352e-02
   7725.62    2.107295e-02
   7725.91    2.454182e-02
   7726.20    2.828471e-02
   7726.49    3.241258e-02
   7726.78    3.685289e-02
   7727.07    4.165585e-02
   7727.36    4.680726e-02
   7727.64    5.238865e-02
   7727.93    5.847741e-02
   7728.22    6.512774e-02
   7728.51    7.252689e-02
   7728.80    8.070270e-02
   7729.09    8.991624e-02
   7729.38    9.978898e-02
   7729.67    1.098054e-01
   7729.96    1.191223e-01
   7730.24    1.268855e-01
   7730.53    1.322992e-01
   7730.82    1.353471e-01
   7731.11    1.362629e-01
   7731.40    1.354402e-01
   7731.69    1.333548e-01
   7731.98    1.304625e-01
   7732.27    1.271214e-01
   7732.56    1.236072e-01
   7732.84    1.200888e-01
   7733.13    1.166603e-01
   7733.42    1.133943e-01
   7733.71    1.103530e-01
   7734.00    1.075882e-01
   7734.29    1.051745e-01
   7734.58    1.030883e-01
   7734.87    1.013216e-01
   7735.16    9.985121e-02
   7735.44    9.864125e-02
   7735.73    9.764680e-02
   7736.02    9.682441e-02
   7736.31    9.611047e-02
   7736.60    9.544727e-02
   7736.89    9.479270e-02
   7737.18    9.411622e-02
   7737.47    9.340135e-02
   7737.76    9.264596e-02
   7738.04    9.186219e-02
   7738.33    9.107807e-02
   7738.62    9.032233e-02
   7738.91    8.962434e-02
   7739.20    8.901076e-02
   7739.49    8.850301e-02
   7739.78    8.812677e-02
   7740.07    8.791969e-02
   7740.36    8.792179e-02
   7740.64    8.792389e-02
   7740.93    8.792600e-02
   7741.22    8.818387e-02
   7741.51    8.851848e-02
   7741.80    8.885309e-02
   7742.09    8.922542e-02
   7742.38    8.968260e-02
   7742.67    9.013978e-02
   7742.96    9.059697e-02
   7743.24    9.097580e-02
   7743.53    9.134038e-02
   7743.82    9.170496e-02
   7744.11    9.197604e-02
   7744.40    9.209753e-02
   7744.69    9.221903e-02
   7744.98    9.234052e-02
   7745.27    9.218992e-02
   7745.56    9.201665e-02
   7745.84    9.184337e-02
   7746.13    9.155131e-02
   7746.42    9.112065e-02
   7746.71    9.069000e-02
   7747.00    9.025934e-02
   7747.29    8.966965e-02
   7747.58    8.907997e-02
   7747.87    8.849028e-02
   7748.16    8.787858e-02
   7748.44    8.724801e-02
   7748.73    8.661744e-02
   7749.02    8.599065e-02
   7749.31    8.540923e-02
   7749.60    8.482780e-02
   7749.89    8.424637e-02
   7750.18    8.371662e-02
   7750.47    8.321916e-02
   7750.76    8.272170e-02
   7751.04    8.223498e-02
   7751.33    8.180735e-02
   7751.62    8.137971e-02
   7751.91    8.095208e-02
   7752.20    8.054530e-02
   7752.49    8.014780e-02
   7752.78    7.975030e-02
   7753.07    7.934984e-02
   7753.36    7.893955e-02
   7753.64    7.852925e-02
   7753.93    7.811895e-02
   7754.22    7.767475e-02
   7754.51    7.722037e-02
   7754.80    7.676600e-02
   7755.09    7.629465e-02
   7755.38    7.578511e-02
   7755.67    7.527557e-02
   7755.96    7.476603e-02
   7756.24    7.422039e-02
   7756.53    7.366818e-02
   7756.82    7.311597e-02
   7757.11    7.256073e-02
   7757.40    7.200065e-02
   7757.69    7.144057e-02
   7757.98    7.088049e-02
   7758.27    7.036118e-02
   7758.56    6.984526e-02
   7758.84    6.932935e-02
   7759.13    6.886013e-02
   7759.42    6.844539e-02
   7759.71    6.803065e-02
   7760.00    6.761591e-02
