 FDMNES
  energy    <xanes>
   7695.00    5.280710e-04
   7695.29    5.335459e-04
   7695.58    5.390208e-04
   7695.87    5.444957e-04
   7696.16    5.501712e-04
   7696.44    5.560188e-04
   7696.73    5.618663e-04
   7697.02    5.677455e-04
   7697.31    5.740042e-04
   7697.60    5.802629e-04
   7697.89    5.865216e-04
   7698.18    5.930603e-04
   7698.47    5.997740e-04
   7698.76    6.064877e-04
   7699.04    6.132791e-04
   7699.33    6.204982e-04
   7699.62    6.277172e-04
   7699.91    6.349362e-04
   7700.20    6.425452e-04
   7700.49    6.503275e-04
   7700.78    6.581098e-04
   7701.07    6.660375e-04
   7701.36    6.744500e-04
   7701.64    6.828626e-04
   7701.93    6.912751e-04
   7702.22    7.002325e-04
   7702.51    7.093534e-04
   7702.80    7.184742e-04
   7703.09    7.278411e-04
   7703.38    7.377615e-04
   7703.67    7.476820e-04
   7703.96    7.576024e-04
   7704.24    7.682905e-04
   7704.53    7.791181e-04
   7704.82    7.899457e-04
   7705.11    8.011713e-04
   7705.40    8.130338e-04
   7705.69    8.248962e-04
   7705.98    8.367587e-04
   7706.27    8.497172e-04
   7706.56    8.627671e-04
   7706.84    8.758170e-04
   7707.13    8.894998e-04
   7707.42    9.039210e-04
   7707.71    9.183423e-04
   7708.00    9.327636e-04
   7708.29    9.487800e-04
   7708.58    9.647965e-04
   7708.87    9.808130e-04
   7709.16    9.978365e-04
   7709.44    1.015723e-03
   7709.73    1.033610e-03
   7710.02    1.051667e-03
   7710.31    1.071767e-03
   7710.60    1.091866e-03
   7710.89    1.111965e-03
   7711.18    1.133691e-03
   7711.47    1.156434e-03
   7711.76    1.179177e-03
   7712.04    1.202411e-03
   7712.33    1.228348e-03
   7712.62    1.254286e-03
   7712.91    1.280223e-03
   7713.20    1.308867e-03
   7713.49    1.338714e-03
   7713.78    1.368562e-03
   7714.07    1.399530e-03
   7714.36    1.434237e-03
   7714.64    1.468944e-03
   7714.93    1.503650e-03
   7715.22    1.543085e-03
   7715.51    1.583938e-03
   7715.80    1.624791e-03
   7716.09    1.668087e-03
   7716.38    1.716880e-03
   7716.67    1.765673e-03
   7716.96    1.814466e-03
   7717.24    1.872166e-03
   7717.53    1.931487e-03
   7717.82    1.990807e-03
   7718.11    2.055673e-03
   7718.40    2.129413e-03
   7718.69    2.203153e-03
   7718.98    2.276893e-03
   7719.27    2.369663e-03
   7719.56    2.464018e-03
   7719.84    2.558374e-03
   7720.13    2.667162e-03
   7720.42    2.792789e-03
   7720.71    2.918416e-03
   7721.00    3.044043e-03
   7721.29    3.221502e-03
   7721.58    3.398961e-03
   7721.87    3.576419e-03
   7722.16    3.807546e-03
   7722.44    4.084673e-03
   7722.73    4.361801e-03
   7723.02    4.658564e-03
   7723.31    5.190960e-03
   7723.60    5.723356e-03
   7723.89    6.255752e-03
   7724.18    7.364572e-03
   7724.47    8.833658e-03
   7724.76    1.030274e-02
   7725.04    1.188841e-02
   7725.33    1.408094e-02
   7725.62    1.611922e-02
   7725.91    1.802642e-02
   7726.20    1.995291e-02
   7726.49    2.207469e-02
   7726.78    2.449065e-02
   7727.07    2.740083e-02
   7727.36    3.087745e-02
   7727.64    3.506651e-02
   7727.93    4.006201e-02
   7728.22    4.588223e-02
   7728.51    5.261838e-02
   7728.80    6.004572e-02
   7729.09    6.804413e-02
   7729.38    7.615289e-02
   7729.67    8.391586e-02
   7729.96    9.097447e-02
   7730.24    9.700279e-02
   7730.53    1.016248e-01
   7730.82    1.047589e-01
   7731.11    1.064025e-01
   7731.40    1.066829e-01
   7731.69    1.058545e-01
   7731.98    1.042335e-01
   7732.27    1.021235e-01
   7732.56    9.982345e-02
   7732.84    9.756004e-02
   7733.13    9.547724e-02
   7733.42    9.367163e-02
   7733.71    9.219840e-02
   7734.00    9.107894e-02
   7734.29    9.035055e-02
   7734.58    8.995328e-02
   7734.87    8.986636e-02
   7735.16    9.006886e-02
   7735.44    9.054032e-02
   7735.73    9.125991e-02
   7736.02    9.221718e-02
   7736.31    9.337224e-02
   7736.60    9.467080e-02
   7736.89    9.605832e-02
   7737.18    9.747088e-02
   7737.47    9.884039e-02
   7737.76    1.000991e-01
   7738.04    1.011749e-01
   7738.33    1.020503e-01
   7738.62    1.027170e-01
   7738.91    1.031865e-01
   7739.20    1.034853e-01
   7739.49    1.036491e-01
   7739.78    1.037104e-01
   7740.07    1.037129e-01
   7740.36    1.036909e-01
   7740.64    1.036689e-01
   7740.93    1.036469e-01
   7741.22    1.036677e-01
   7741.51    1.037013e-01
   7741.80    1.037349e-01
   7742.09    1.037706e-01
   7742.38    1.038113e-01
   7742.67    1.038520e-01
   7742.96    1.038927e-01
   7743.24    1.038266e-01
   7743.53    1.037411e-01
   7743.82    1.036557e-01
   7744.11    1.034847e-01
   7744.40    1.031769e-01
   7744.69    1.028691e-01
   7744.98    1.025613e-01
   7745.27    1.020328e-01
   7745.56    1.014860e-01
   7745.84    1.009391e-01
   7746.13    1.003029e-01
   7746.42    9.956249e-02
   7746.71    9.882208e-02
   7747.00    9.808167e-02
   7747.29    9.722147e-02
   7747.58    9.636127e-02
   7747.87    9.550107e-02
   7748.16    9.462004e-02
   7748.44    9.372117e-02
   7748.73    9.282229e-02
   7749.02    9.192633e-02
   7749.31    9.106538e-02
   7749.60    9.020443e-02
   7749.89    8.934348e-02
   7750.18    8.854105e-02
   7750.47    8.777520e-02
   7750.76    8.700935e-02
   7751.04    8.626210e-02
   7751.33    8.561712e-02
   7751.62    8.497215e-02
   7751.91    8.432717e-02
   7752.20    8.376263e-02
   7752.49    8.323384e-02
   7752.78    8.270505e-02
   7753.07    8.219749e-02
   7753.36    8.176071e-02
   7753.64    8.132393e-02
   7753.93    8.088715e-02
   7754.22    8.049725e-02
   7754.51    8.012140e-02
   7754.80    7.974555e-02
   7755.09    7.937979e-02
   7755.38    7.903672e-02
   7755.67    7.869366e-02
   7755.96    7.835059e-02
   7756.24    7.801929e-02
   7756.53    7.769013e-02
   7756.82    7.736096e-02
   7757.11    7.703554e-02
   7757.40    7.671610e-02
   7757.69    7.639665e-02
   7757.98    7.607721e-02
   7758.27    7.577948e-02
   7758.56    7.548356e-02
   7758.84    7.518764e-02
   7759.13    7.491571e-02
   7759.42    7.467177e-02
   7759.71    7.442782e-02
   7760.00    7.418388e-02
