 FDMNES
  energy    <xanes>
   7695.00    5.216743e-04
   7695.29    5.274140e-04
   7695.58    5.331538e-04
   7695.87    5.388935e-04
   7696.16    5.448538e-04
   7696.44    5.510033e-04
   7696.73    5.571527e-04
   7697.02    5.633370e-04
   7697.31    5.699401e-04
   7697.60    5.765432e-04
   7697.89    5.831463e-04
   7698.18    5.900595e-04
   7698.47    5.971666e-04
   7698.76    6.042737e-04
   7699.04    6.114672e-04
   7699.33    6.191362e-04
   7699.62    6.268052e-04
   7699.91    6.344743e-04
   7700.20    6.425787e-04
   7700.49    6.508766e-04
   7700.78    6.591745e-04
   7701.07    6.676356e-04
   7701.36    6.766403e-04
   7701.64    6.856450e-04
   7701.93    6.946498e-04
   7702.22    7.042682e-04
   7702.51    7.140708e-04
   7702.80    7.238734e-04
   7703.09    7.339544e-04
   7703.38    7.446619e-04
   7703.67    7.553694e-04
   7703.96    7.660770e-04
   7704.24    7.776574e-04
   7704.53    7.893966e-04
   7704.82    8.011358e-04
   7705.11    8.133300e-04
   7705.40    8.262520e-04
   7705.69    8.391741e-04
   7705.98    8.520961e-04
   7706.27    8.662777e-04
   7706.56    8.805642e-04
   7706.84    8.948508e-04
   7707.13    9.098687e-04
   7707.42    9.257398e-04
   7707.71    9.416110e-04
   7708.00    9.574822e-04
   7708.29    9.752072e-04
   7708.58    9.929323e-04
   7708.87    1.010657e-03
   7709.16    1.029560e-03
   7709.44    1.049472e-03
   7709.73    1.069384e-03
   7710.02    1.089496e-03
   7710.31    1.112011e-03
   7710.60    1.134526e-03
   7710.89    1.157041e-03
   7711.18    1.181483e-03
   7711.47    1.207129e-03
   7711.76    1.232775e-03
   7712.04    1.259006e-03
   7712.33    1.288461e-03
   7712.62    1.317915e-03
   7712.91    1.347369e-03
   7713.20    1.380074e-03
   7713.49    1.414223e-03
   7713.78    1.448373e-03
   7714.07    1.483878e-03
   7714.36    1.523904e-03
   7714.64    1.563929e-03
   7714.93    1.603955e-03
   7715.22    1.649740e-03
   7715.51    1.697252e-03
   7715.80    1.744765e-03
   7716.09    1.795275e-03
   7716.38    1.852529e-03
   7716.67    1.909784e-03
   7716.96    1.967039e-03
   7717.24    2.035299e-03
   7717.53    2.105559e-03
   7717.82    2.175820e-03
   7718.11    2.252977e-03
   7718.40    2.341166e-03
   7718.69    2.429355e-03
   7718.98    2.517544e-03
   7719.27    2.629508e-03
   7719.56    2.743454e-03
   7719.84    2.857399e-03
   7720.13    2.989415e-03
   7720.42    3.142513e-03
   7720.71    3.295611e-03
   7721.00    3.448709e-03
   7721.29    3.666477e-03
   7721.58    3.884245e-03
   7721.87    4.102014e-03
   7722.16    4.385747e-03
   7722.44    4.726023e-03
   7722.73    5.066298e-03
   7723.02    5.429803e-03
   7723.31    6.072061e-03
   7723.60    6.714319e-03
   7723.89    7.356577e-03
   7724.18    8.653826e-03
   7724.47    1.036044e-02
   7724.76    1.206706e-02
   7725.04    1.392212e-02
   7725.33    1.662142e-02
   7725.62    1.936748e-02
   7725.91    2.220122e-02
   7726.20    2.518372e-02
   7726.49    2.841574e-02
   7726.78    3.192523e-02
   7727.07    3.591729e-02
   7727.36    4.053220e-02
   7727.64    4.601056e-02
   7727.93    5.250369e-02
   7728.22    6.004916e-02
   7728.51    6.885298e-02
   7728.80    7.882272e-02
   7729.09    9.028319e-02
   7729.38    1.027699e-01
   7729.67    1.157351e-01
   7729.96    1.279823e-01
   7730.24    1.380622e-01
   7730.53    1.444064e-01
   7730.82    1.468468e-01
   7731.11    1.459243e-01
   7731.40    1.425475e-01
   7731.69    1.376731e-01
   7731.98    1.320920e-01
   7732.27    1.263841e-01
   7732.56    1.209536e-01
   7732.84    1.159884e-01
   7733.13    1.115799e-01
   7733.42    1.077589e-01
   7733.71    1.045196e-01
   7734.00    1.018331e-01
   7734.29    9.970762e-02
   7734.58    9.802081e-02
   7734.87    9.671030e-02
   7735.16    9.571157e-02
   7735.44    9.495939e-02
   7735.73    9.438909e-02
   7736.02    9.394221e-02
   7736.31    9.355146e-02
   7736.60    9.316372e-02
   7736.89    9.274305e-02
   7737.18    9.226752e-02
   7737.47    9.173031e-02
   7737.76    9.113849e-02
   7738.04    9.051250e-02
   7738.33    8.988706e-02
   7738.62    8.929426e-02
   7738.91    8.876492e-02
   7739.20    8.832562e-02
   7739.49    8.799684e-02
   7739.78    8.780297e-02
   7740.07    8.777918e-02
   7740.36    8.796264e-02
   7740.64    8.814609e-02
   7740.93    8.832954e-02
   7741.22    8.875385e-02
   7741.51    8.925041e-02
   7741.80    8.974697e-02
   7742.09    9.026555e-02
   7742.38    9.083370e-02
   7742.67    9.140185e-02
   7742.96    9.196999e-02
   7743.24    9.238078e-02
   7743.53    9.276297e-02
   7743.82    9.314515e-02
   7744.11    9.339701e-02
   7744.40    9.344036e-02
   7744.69    9.348371e-02
   7744.98    9.352705e-02
   7745.27    9.324840e-02
   7745.56    9.294291e-02
   7745.84    9.263743e-02
   7746.13    9.221561e-02
   7746.42    9.165808e-02
   7746.71    9.110054e-02
   7747.00    9.054300e-02
   7747.29    8.986673e-02
   7747.58    8.919045e-02
   7747.87    8.851418e-02
   7748.16    8.783467e-02
   7748.44    8.715238e-02
   7748.73    8.647010e-02
   7749.02    8.579239e-02
   7749.31    8.516951e-02
   7749.60    8.454663e-02
   7749.89    8.392376e-02
   7750.18    8.334808e-02
   7750.47    8.280189e-02
   7750.76    8.225571e-02
   7751.04    8.171895e-02
   7751.33    8.123402e-02
   7751.62    8.074908e-02
   7751.91    8.026415e-02
   7752.20    7.980112e-02
   7752.49    7.934782e-02
   7752.78    7.889452e-02
   7753.07    7.844157e-02
   7753.36    7.798982e-02
   7753.64    7.753806e-02
   7753.93    7.708631e-02
   7754.22    7.661871e-02
   7754.51    7.614635e-02
   7754.80    7.567399e-02
   7755.09    7.519264e-02
   7755.38    7.469105e-02
   7755.67    7.418946e-02
   7755.96    7.368787e-02
   7756.24    7.316893e-02
   7756.53    7.264683e-02
   7756.82    7.212473e-02
   7757.11    7.160516e-02
   7757.40    7.108963e-02
   7757.69    7.057410e-02
   7757.98    7.005857e-02
   7758.27    6.958789e-02
   7758.56    6.912094e-02
   7758.84    6.865399e-02
   7759.13    6.823072e-02
   7759.42    6.785841e-02
   7759.71    6.748609e-02
   7760.00    6.711378e-02
