 FDMNES
  energy    <xanes>
   7695.00    5.457900e-04
   7695.29    5.514587e-04
   7695.58    5.571274e-04
   7695.87    5.627961e-04
   7696.16    5.686745e-04
   7696.44    5.747326e-04
   7696.73    5.807907e-04
   7697.02    5.868819e-04
   7697.31    5.933701e-04
   7697.60    5.998583e-04
   7697.89    6.063465e-04
   7698.18    6.131280e-04
   7698.47    6.200929e-04
   7698.76    6.270578e-04
   7699.04    6.341042e-04
   7699.33    6.415992e-04
   7699.62    6.490942e-04
   7699.91    6.565892e-04
   7700.20    6.644940e-04
   7700.49    6.725808e-04
   7700.78    6.806677e-04
   7701.07    6.889076e-04
   7701.36    6.976579e-04
   7701.64    7.064081e-04
   7701.93    7.151584e-04
   7702.22    7.244832e-04
   7702.51    7.339804e-04
   7702.80    7.434777e-04
   7703.09    7.532349e-04
   7703.38    7.635770e-04
   7703.67    7.739192e-04
   7703.96    7.842614e-04
   7704.24    7.954166e-04
   7704.53    8.067197e-04
   7704.82    8.180227e-04
   7705.11    8.297483e-04
   7705.40    8.421501e-04
   7705.69    8.545519e-04
   7705.98    8.669537e-04
   7706.27    8.805225e-04
   7706.56    8.941885e-04
   7706.84    9.078545e-04
   7707.13    9.221965e-04
   7707.42    9.373270e-04
   7707.71    9.524576e-04
   7708.00    9.675882e-04
   7708.29    9.844280e-04
   7708.58    1.001268e-03
   7708.87    1.018108e-03
   7709.16    1.036031e-03
   7709.44    1.054882e-03
   7709.73    1.073734e-03
   7710.02    1.092769e-03
   7710.31    1.114010e-03
   7710.60    1.135252e-03
   7710.89    1.156493e-03
   7711.18    1.179499e-03
   7711.47    1.203609e-03
   7711.76    1.227719e-03
   7712.04    1.252365e-03
   7712.33    1.279960e-03
   7712.62    1.307555e-03
   7712.91    1.335151e-03
   7713.20    1.365718e-03
   7713.49    1.397606e-03
   7713.78    1.429493e-03
   7714.07    1.462621e-03
   7714.36    1.499882e-03
   7714.64    1.537143e-03
   7714.93    1.574403e-03
   7715.22    1.616936e-03
   7715.51    1.661049e-03
   7715.80    1.705163e-03
   7716.09    1.752028e-03
   7716.38    1.805083e-03
   7716.67    1.858138e-03
   7716.96    1.911193e-03
   7717.24    1.974401e-03
   7717.53    2.039455e-03
   7717.82    2.104509e-03
   7718.11    2.175978e-03
   7718.40    2.257714e-03
   7718.69    2.339450e-03
   7718.98    2.421186e-03
   7719.27    2.525359e-03
   7719.56    2.631402e-03
   7719.84    2.737445e-03
   7720.13    2.860936e-03
   7720.42    3.004782e-03
   7720.71    3.148629e-03
   7721.00    3.292475e-03
   7721.29    3.501150e-03
   7721.58    3.709825e-03
   7721.87    3.918500e-03
   7722.16    4.197579e-03
   7722.44    4.537006e-03
   7722.73    4.876433e-03
   7723.02    5.243339e-03
   7723.31    5.939994e-03
   7723.60    6.636648e-03
   7723.89    7.333303e-03
   7724.18    8.895261e-03
   7724.47    1.099803e-02
   7724.76    1.310081e-02
   7725.04    1.538762e-02
   7725.33    1.860722e-02
   7725.62    2.139621e-02
   7725.91    2.356984e-02
   7726.20    2.542533e-02
   7726.49    2.732924e-02
   7726.78    2.961765e-02
   7727.07    3.265730e-02
   7727.36    3.655909e-02
   7727.64    4.148141e-02
   7727.93    4.743820e-02
   7728.22    5.425724e-02
   7728.51    6.170801e-02
   7728.80    6.928274e-02
   7729.09    7.647469e-02
   7729.38    8.309796e-02
   7729.67    8.907486e-02
   7729.96    9.463655e-02
   7730.24    9.988943e-02
   7730.53    1.046804e-01
   7730.82    1.086849e-01
   7731.11    1.115209e-01
   7731.40    1.129315e-01
   7731.69    1.129062e-01
   7731.98    1.116729e-01
   7732.27    1.095768e-01
   7732.56    1.070467e-01
   7732.84    1.044315e-01
   7733.13    1.019296e-01
   7733.42    9.965443e-02
   7733.71    9.766107e-02
   7734.00    9.597227e-02
   7734.29    9.462986e-02
   7734.58    9.358831e-02
   7734.87    9.283051e-02
   7735.16    9.233389e-02
   7735.44    9.207187e-02
   7735.73    9.201416e-02
   7736.02    9.213553e-02
   7736.31    9.238899e-02
   7736.60    9.272448e-02
   7736.89    9.309934e-02
   7737.18    9.347267e-02
   7737.47    9.380861e-02
   7737.76    9.407815e-02
   7738.04    9.425713e-02
   7738.33    9.435156e-02
   7738.62    9.437179e-02
   7738.91    9.433728e-02
   7739.20    9.427339e-02
   7739.49    9.420784e-02
   7739.78    9.417134e-02
   7740.07    9.421219e-02
   7740.36    9.437877e-02
   7740.64    9.454535e-02
   7740.93    9.471193e-02
   7741.22    9.509947e-02
   7741.51    9.555330e-02
   7741.80    9.600713e-02
   7742.09    9.650825e-02
   7742.38    9.711580e-02
   7742.67    9.772335e-02
   7742.96    9.833090e-02
   7743.24    9.886658e-02
   7743.53    9.938918e-02
   7743.82    9.991179e-02
   7744.11    1.003140e-01
   7744.40    1.005235e-01
   7744.69    1.007331e-01
   7744.98    1.009426e-01
   7745.27    1.007509e-01
   7745.56    1.005257e-01
   7745.84    1.003005e-01
   7746.13    9.989337e-02
   7746.42    9.927407e-02
   7746.71    9.865477e-02
   7747.00    9.803547e-02
   7747.29    9.719605e-02
   7747.58    9.635663e-02
   7747.87    9.551722e-02
   7748.16    9.466646e-02
   7748.44    9.380598e-02
   7748.73    9.294550e-02
   7749.02    9.209335e-02
   7749.31    9.134118e-02
   7749.60    9.058901e-02
   7749.89    8.983684e-02
   7750.18    8.917735e-02
   7750.47    8.857578e-02
   7750.76    8.797421e-02
   7751.04    8.739384e-02
   7751.33    8.693005e-02
   7751.62    8.646627e-02
   7751.91    8.600249e-02
   7752.20    8.560921e-02
   7752.49    8.524728e-02
   7752.78    8.488534e-02
   7753.07    8.453762e-02
   7753.36    8.423728e-02
   7753.64    8.393693e-02
   7753.93    8.363659e-02
   7754.22    8.335667e-02
   7754.51    8.308288e-02
   7754.80    8.280909e-02
   7755.09    8.253508e-02
   7755.38    8.226058e-02
   7755.67    8.198607e-02
   7755.96    8.171157e-02
   7756.24    8.142450e-02
   7756.53    8.113515e-02
   7756.82    8.084579e-02
   7757.11    8.055174e-02
   7757.40    8.025018e-02
   7757.69    7.994861e-02
   7757.98    7.964705e-02
   7758.27    7.935329e-02
   7758.56    7.906018e-02
   7758.84    7.876708e-02
   7759.13    7.849489e-02
   7759.42    7.824711e-02
   7759.71    7.799933e-02
   7760.00    7.775155e-02
