 FDMNES
  energy    <xanes>
   7695.00    5.110989e-04
   7695.29    5.166289e-04
   7695.58    5.221589e-04
   7695.87    5.276889e-04
   7696.16    5.334272e-04
   7696.44    5.393441e-04
   7696.73    5.452610e-04
   7697.02    5.512108e-04
   7697.31    5.575553e-04
   7697.60    5.638997e-04
   7697.89    5.702441e-04
   7698.18    5.768803e-04
   7698.47    5.836987e-04
   7698.76    5.905171e-04
   7699.04    5.974167e-04
   7699.33    6.047625e-04
   7699.62    6.121083e-04
   7699.91    6.194540e-04
   7700.20    6.272075e-04
   7700.49    6.351421e-04
   7700.78    6.430767e-04
   7701.07    6.511636e-04
   7701.36    6.597583e-04
   7701.64    6.683531e-04
   7701.93    6.769478e-04
   7702.22    6.861143e-04
   7702.51    6.954522e-04
   7702.80    7.047902e-04
   7703.09    7.143868e-04
   7703.38    7.245654e-04
   7703.67    7.347440e-04
   7703.96    7.449226e-04
   7704.24    7.559098e-04
   7704.53    7.670440e-04
   7704.82    7.781782e-04
   7705.11    7.897324e-04
   7705.40    8.019588e-04
   7705.69    8.141853e-04
   7705.98    8.264117e-04
   7706.27    8.397973e-04
   7706.56    8.532794e-04
   7706.84    8.667616e-04
   7707.13    8.809145e-04
   7707.42    8.958500e-04
   7707.71    9.107854e-04
   7708.00    9.257208e-04
   7708.29    9.423501e-04
   7708.58    9.589794e-04
   7708.87    9.756088e-04
   7709.16    9.933097e-04
   7709.44    1.011929e-03
   7709.73    1.030548e-03
   7710.02    1.049349e-03
   7710.31    1.070328e-03
   7710.60    1.091306e-03
   7710.89    1.112284e-03
   7711.18    1.135000e-03
   7711.47    1.158803e-03
   7711.76    1.182605e-03
   7712.04    1.206933e-03
   7712.33    1.234155e-03
   7712.62    1.261376e-03
   7712.91    1.288597e-03
   7713.20    1.318721e-03
   7713.49    1.350135e-03
   7713.78    1.381549e-03
   7714.07    1.414168e-03
   7714.36    1.450800e-03
   7714.64    1.487433e-03
   7714.93    1.524066e-03
   7715.22    1.565782e-03
   7715.51    1.609024e-03
   7715.80    1.652266e-03
   7716.09    1.698137e-03
   7716.38    1.749924e-03
   7716.67    1.801710e-03
   7716.96    1.853497e-03
   7717.24    1.914868e-03
   7717.53    1.977983e-03
   7717.82    2.041097e-03
   7718.11    2.110170e-03
   7718.40    2.188778e-03
   7718.69    2.267386e-03
   7718.98    2.345994e-03
   7719.27    2.444969e-03
   7719.56    2.545640e-03
   7719.84    2.646312e-03
   7720.13    2.762302e-03
   7720.42    2.896163e-03
   7720.71    3.030023e-03
   7721.00    3.163884e-03
   7721.29    3.351817e-03
   7721.58    3.539750e-03
   7721.87    3.727683e-03
   7722.16    3.969643e-03
   7722.44    4.257914e-03
   7722.73    4.546184e-03
   7723.02    4.852809e-03
   7723.31    5.379687e-03
   7723.60    5.906566e-03
   7723.89    6.433444e-03
   7724.18    7.458768e-03
   7724.47    8.795620e-03
   7724.76    1.013247e-02
   7725.04    1.158902e-02
   7725.33    1.375191e-02
   7725.62    1.603999e-02
   7725.91    1.852236e-02
   7726.20    2.127032e-02
   7726.49    2.445408e-02
   7726.78    2.805452e-02
   7727.07    3.219849e-02
   7727.36    3.687434e-02
   7727.64    4.214382e-02
   7727.93    4.800467e-02
   7728.22    5.438024e-02
   7728.51    6.123839e-02
   7728.80    6.842059e-02
   7729.09    7.591510e-02
   7729.38    8.359746e-02
   7729.67    9.131701e-02
   7729.96    9.869927e-02
   7730.24    1.051441e-01
   7730.53    1.098140e-01
   7730.82    1.124137e-01
   7731.11    1.130685e-01
   7731.40    1.122450e-01
   7731.69    1.105608e-01
   7731.98    1.085784e-01
   7732.27    1.067156e-01
   7732.56    1.052153e-01
   7732.84    1.041242e-01
   7733.13    1.034248e-01
   7733.42    1.030629e-01
   7733.71    1.029720e-01
   7734.00    1.030872e-01
   7734.29    1.033659e-01
   7734.58    1.037430e-01
   7734.87    1.041817e-01
   7735.16    1.046456e-01
   7735.44    1.050961e-01
   7735.73    1.054928e-01
   7736.02    1.057867e-01
   7736.31    1.059382e-01
   7736.60    1.059256e-01
   7736.89    1.057334e-01
   7737.18    1.053599e-01
   7737.47    1.048177e-01
   7737.76    1.041316e-01
   7738.04    1.033362e-01
   7738.33    1.024913e-01
   7738.62    1.016434e-01
   7738.91    1.008359e-01
   7739.20    1.001051e-01
   7739.49    9.947824e-02
   7739.78    9.898399e-02
   7740.07    9.865965e-02
   7740.36    9.854294e-02
   7740.64    9.842624e-02
   7740.93    9.830953e-02
   7741.22    9.843270e-02
   7741.51    9.862782e-02
   7741.80    9.882295e-02
   7742.09    9.904243e-02
   7742.38    9.931670e-02
   7742.67    9.959097e-02
   7742.96    9.986525e-02
   7743.24    1.000067e-01
   7743.53    1.001241e-01
   7743.82    1.002414e-01
   7744.11    1.002340e-01
   7744.40    1.000272e-01
   7744.69    9.982040e-02
   7744.98    9.961358e-02
   7745.27    9.905902e-02
   7745.56    9.847549e-02
   7745.84    9.789196e-02
   7746.13    9.717093e-02
   7746.42    9.628948e-02
   7746.71    9.540803e-02
   7747.00    9.452658e-02
   7747.29    9.351506e-02
   7747.58    9.250354e-02
   7747.87    9.149203e-02
   7748.16    9.049476e-02
   7748.44    8.950971e-02
   7748.73    8.852466e-02
   7749.02    8.754876e-02
   7749.31    8.668274e-02
   7749.60    8.581673e-02
   7749.89    8.495071e-02
   7750.18    8.417483e-02
   7750.47    8.345527e-02
   7750.76    8.273572e-02
   7751.04    8.203614e-02
   7751.33    8.144639e-02
   7751.62    8.085665e-02
   7751.91    8.026691e-02
   7752.20    7.974094e-02
   7752.49    7.924332e-02
   7752.78    7.874570e-02
   7753.07    7.825935e-02
   7753.36    7.781059e-02
   7753.64    7.736183e-02
   7753.93    7.691307e-02
   7754.22    7.647120e-02
   7754.51    7.603139e-02
   7754.80    7.559157e-02
   7755.09    7.514519e-02
   7755.38    7.468399e-02
   7755.67    7.422280e-02
   7755.96    7.376161e-02
   7756.24    7.327000e-02
   7756.53    7.277287e-02
   7756.82    7.227573e-02
   7757.11    7.176798e-02
   7757.40    7.124326e-02
   7757.69    7.071853e-02
   7757.98    7.019381e-02
   7758.27    6.967957e-02
   7758.56    6.916621e-02
   7758.84    6.865285e-02
   7759.13    6.817577e-02
   7759.42    6.774103e-02
   7759.71    6.730628e-02
   7760.00    6.687154e-02
