 FDMNES
  energy    <xanes>
   7695.00    5.233972e-04
   7695.29    5.291257e-04
   7695.58    5.348543e-04
   7695.87    5.405829e-04
   7696.16    5.465307e-04
   7696.44    5.526664e-04
   7696.73    5.588021e-04
   7697.02    5.649725e-04
   7697.31    5.715588e-04
   7697.60    5.781451e-04
   7697.89    5.847314e-04
   7698.18    5.916257e-04
   7698.47    5.987125e-04
   7698.76    6.057992e-04
   7699.04    6.129718e-04
   7699.33    6.206163e-04
   7699.62    6.282609e-04
   7699.91    6.359054e-04
   7700.20    6.439819e-04
   7700.49    6.522504e-04
   7700.78    6.605189e-04
   7701.07    6.689492e-04
   7701.36    6.779187e-04
   7701.64    6.868881e-04
   7701.93    6.958576e-04
   7702.22    7.054355e-04
   7702.51    7.151958e-04
   7702.80    7.249562e-04
   7703.09    7.349925e-04
   7703.38    7.456495e-04
   7703.67    7.563065e-04
   7703.96    7.669635e-04
   7704.24    7.784851e-04
   7704.53    7.901638e-04
   7704.82    8.018426e-04
   7705.11    8.139717e-04
   7705.40    8.268213e-04
   7705.69    8.396709e-04
   7705.98    8.525205e-04
   7706.27    8.666162e-04
   7706.56    8.808157e-04
   7706.84    8.950153e-04
   7707.13    9.099380e-04
   7707.42    9.257044e-04
   7707.71    9.414708e-04
   7708.00    9.572372e-04
   7708.29    9.748358e-04
   7708.58    9.924344e-04
   7708.87    1.010033e-03
   7709.16    1.028795e-03
   7709.44    1.048553e-03
   7709.73    1.068311e-03
   7710.02    1.088268e-03
   7710.31    1.110596e-03
   7710.60    1.132924e-03
   7710.89    1.155252e-03
   7711.18    1.179480e-03
   7711.47    1.204896e-03
   7711.76    1.230312e-03
   7712.04    1.256306e-03
   7712.33    1.285477e-03
   7712.62    1.314649e-03
   7712.91    1.343820e-03
   7713.20    1.376193e-03
   7713.49    1.409990e-03
   7713.78    1.443787e-03
   7714.07    1.478919e-03
   7714.36    1.518502e-03
   7714.64    1.558084e-03
   7714.93    1.597667e-03
   7715.22    1.642917e-03
   7715.51    1.689867e-03
   7715.80    1.736818e-03
   7716.09    1.786716e-03
   7716.38    1.843247e-03
   7716.67    1.899779e-03
   7716.96    1.956310e-03
   7717.24    2.023659e-03
   7717.53    2.092975e-03
   7717.82    2.162291e-03
   7718.11    2.238382e-03
   7718.40    2.325312e-03
   7718.69    2.412243e-03
   7718.98    2.499173e-03
   7719.27    2.609454e-03
   7719.56    2.721682e-03
   7719.84    2.833909e-03
   7720.13    2.963879e-03
   7720.42    3.114549e-03
   7720.71    3.265220e-03
   7721.00    3.415891e-03
   7721.29    3.630057e-03
   7721.58    3.844223e-03
   7721.87    4.058390e-03
   7722.16    4.337356e-03
   7722.44    4.671865e-03
   7722.73    5.006375e-03
   7723.02    5.363768e-03
   7723.31    5.995770e-03
   7723.60    6.627772e-03
   7723.89    7.259774e-03
   7724.18    8.535047e-03
   7724.47    1.021236e-02
   7724.76    1.188968e-02
   7725.04    1.370293e-02
   7725.33    1.626076e-02
   7725.62    1.878357e-02
   7725.91    2.137108e-02
   7726.20    2.418619e-02
   7726.49    2.747686e-02
   7726.78    3.129228e-02
   7727.07    3.586899e-02
   7727.36    4.124081e-02
   7727.64    4.753536e-02
   7727.93    5.478382e-02
   7728.22    6.288124e-02
   7728.51    7.172915e-02
   7728.80    8.097272e-02
   7729.09    9.041305e-02
   7729.38    9.984667e-02
   7729.67    1.090925e-01
   7729.96    1.178770e-01
   7730.24    1.256622e-01
   7730.53    1.315094e-01
   7730.82    1.348639e-01
   7731.11    1.355813e-01
   7731.40    1.339967e-01
   7731.69    1.307812e-01
   7731.98    1.266739e-01
   7732.27    1.222920e-01
   7732.56    1.180795e-01
   7732.84    1.142385e-01
   7733.13    1.108503e-01
   7733.42    1.079327e-01
   7733.71    1.054694e-01
   7734.00    1.034287e-01
   7734.29    1.018124e-01
   7734.58    1.005266e-01
   7734.87    9.952302e-02
   7735.16    9.875064e-02
   7735.44    9.815710e-02
   7735.73    9.769007e-02
   7736.02    9.730111e-02
   7736.31    9.693748e-02
   7736.60    9.655993e-02
   7736.89    9.614335e-02
   7737.18    9.567483e-02
   7737.47    9.515380e-02
   7737.76    9.459050e-02
   7738.04    9.400550e-02
   7738.33    9.342838e-02
   7738.62    9.288564e-02
   7738.91    9.240191e-02
   7739.20    9.199785e-02
   7739.49    9.168890e-02
   7739.78    9.149398e-02
   7740.07    9.144066e-02
   7740.36    9.155851e-02
   7740.64    9.167637e-02
   7740.93    9.179423e-02
   7741.22    9.210675e-02
   7741.51    9.247768e-02
   7741.80    9.284861e-02
   7742.09    9.323323e-02
   7742.38    9.364865e-02
   7742.67    9.406407e-02
   7742.96    9.447948e-02
   7743.24    9.473844e-02
   7743.53    9.496894e-02
   7743.82    9.519945e-02
   7744.11    9.530153e-02
   7744.40    9.519812e-02
   7744.69    9.509472e-02
   7744.98    9.499132e-02
   7745.27    9.457476e-02
   7745.56    9.413211e-02
   7745.84    9.368946e-02
   7746.13    9.313708e-02
   7746.42    9.245667e-02
   7746.71    9.177627e-02
   7747.00    9.109587e-02
   7747.29    9.030658e-02
   7747.58    8.951730e-02
   7747.87    8.872802e-02
   7748.16    8.793791e-02
   7748.44    8.714710e-02
   7748.73    8.635628e-02
   7749.02    8.557059e-02
   7749.31    8.484636e-02
   7749.60    8.412214e-02
   7749.89    8.339792e-02
   7750.18    8.273176e-02
   7750.47    8.210188e-02
   7750.76    8.147200e-02
   7751.04    8.085613e-02
   7751.33    8.031735e-02
   7751.62    7.977857e-02
   7751.91    7.923979e-02
   7752.20    7.874940e-02
   7752.49    7.828051e-02
   7752.78    7.781162e-02
   7753.07    7.735245e-02
   7753.36    7.692567e-02
   7753.64    7.649889e-02
   7753.93    7.607211e-02
   7754.22    7.565766e-02
   7754.51    7.524690e-02
   7754.80    7.483613e-02
   7755.09    7.442461e-02
   7755.38    7.401137e-02
   7755.67    7.359812e-02
   7755.96    7.318488e-02
   7756.24    7.276371e-02
   7756.53    7.234110e-02
   7756.82    7.191848e-02
   7757.11    7.149526e-02
   7757.40    7.107105e-02
   7757.69    7.064684e-02
   7757.98    7.022263e-02
   7758.27    6.982108e-02
   7758.56    6.942143e-02
   7758.84    6.902178e-02
   7759.13    6.865350e-02
   7759.42    6.832184e-02
   7759.71    6.799017e-02
   7760.00    6.765851e-02
