 FDMNES
  energy    <xanes>
   7695.00    5.337596e-04
   7695.29    5.396058e-04
   7695.58    5.454521e-04
   7695.87    5.512983e-04
   7696.16    5.573698e-04
   7696.44    5.636345e-04
   7696.73    5.698992e-04
   7697.02    5.761996e-04
   7697.31    5.829279e-04
   7697.60    5.896563e-04
   7697.89    5.963847e-04
   7698.18    6.034302e-04
   7698.47    6.106741e-04
   7698.76    6.179179e-04
   7699.04    6.252502e-04
   7699.33    6.330692e-04
   7699.62    6.408882e-04
   7699.91    6.487072e-04
   7700.20    6.569722e-04
   7700.49    6.654355e-04
   7700.78    6.738988e-04
   7701.07    6.825293e-04
   7701.36    6.917173e-04
   7701.64    7.009053e-04
   7701.93    7.100932e-04
   7702.22    7.199111e-04
   7702.51    7.299180e-04
   7702.80    7.399249e-04
   7703.09    7.502178e-04
   7703.38    7.611545e-04
   7703.67    7.720912e-04
   7703.96    7.830279e-04
   7704.24    7.948626e-04
   7704.53    8.068607e-04
   7704.82    8.188587e-04
   7705.11    8.313254e-04
   7705.40    8.445419e-04
   7705.69    8.577584e-04
   7705.98    8.709750e-04
   7706.27    8.854909e-04
   7706.56    9.001151e-04
   7706.84    9.147393e-04
   7707.13    9.301192e-04
   7707.42    9.463809e-04
   7707.71    9.626425e-04
   7708.00    9.789042e-04
   7708.29    9.970850e-04
   7708.58    1.015266e-03
   7708.87    1.033447e-03
   7709.16    1.052849e-03
   7709.44    1.073298e-03
   7709.73    1.093748e-03
   7710.02    1.114405e-03
   7710.31    1.137561e-03
   7710.60    1.160716e-03
   7710.89    1.183872e-03
   7711.18    1.209035e-03
   7711.47    1.235454e-03
   7711.76    1.261872e-03
   7712.04    1.288903e-03
   7712.33    1.319301e-03
   7712.62    1.349700e-03
   7712.91    1.380099e-03
   7713.20    1.413905e-03
   7713.49    1.449226e-03
   7713.78    1.484547e-03
   7714.07    1.521295e-03
   7714.36    1.562798e-03
   7714.64    1.604301e-03
   7714.93    1.645804e-03
   7715.22    1.693390e-03
   7715.51    1.742800e-03
   7715.80    1.792211e-03
   7716.09    1.844801e-03
   7716.38    1.904547e-03
   7716.67    1.964292e-03
   7716.96    2.024038e-03
   7717.24    2.095515e-03
   7717.53    2.169126e-03
   7717.82    2.242737e-03
   7718.11    2.323738e-03
   7718.40    2.416564e-03
   7718.69    2.509391e-03
   7718.98    2.602217e-03
   7719.27    2.720674e-03
   7719.56    2.841266e-03
   7719.84    2.961858e-03
   7720.13    3.102040e-03
   7720.42    3.265077e-03
   7720.71    3.428114e-03
   7721.00    3.591151e-03
   7721.29    3.824588e-03
   7721.58    4.058024e-03
   7721.87    4.291460e-03
   7722.16    4.596613e-03
   7722.44    4.963239e-03
   7722.73    5.329864e-03
   7723.02    5.721317e-03
   7723.31    6.410701e-03
   7723.60    7.100086e-03
   7723.89    7.789470e-03
   7724.18    9.163077e-03
   7724.47    1.096432e-02
   7724.76    1.276557e-02
   7725.04    1.473588e-02
   7725.33    1.771973e-02
   7725.62    2.094300e-02
   7725.91    2.452573e-02
   7726.20    2.851928e-02
   7726.49    3.300409e-02
   7726.78    3.778447e-02
   7727.07    4.286651e-02
   7727.36    4.834187e-02
   7727.64    5.446063e-02
   7727.93    6.141519e-02
   7728.22    6.936778e-02
   7728.51    7.876306e-02
   7728.80    8.959781e-02
   7729.09    1.019276e-01
   7729.38    1.146821e-01
   7729.67    1.265476e-01
   7729.96    1.363520e-01
   7730.24    1.431365e-01
   7730.53    1.461832e-01
   7730.82    1.459184e-01
   7731.11    1.429949e-01
   7731.40    1.382061e-01
   7731.69    1.323606e-01
   7731.98    1.261473e-01
   7732.27    1.200891e-01
   7732.56    1.145261e-01
   7732.84    1.095798e-01
   7733.13    1.053070e-01
   7733.42    1.017159e-01
   7733.71    9.878173e-02
   7734.00    9.645556e-02
   7734.29    9.472855e-02
   7734.58    9.345342e-02
   7734.87    9.254847e-02
   7735.16    9.192994e-02
   7735.44    9.151556e-02
   7735.73    9.122854e-02
   7736.02    9.100190e-02
   7736.31    9.077523e-02
   7736.60    9.051241e-02
   7736.89    9.019631e-02
   7737.18    8.982493e-02
   7737.47    8.940883e-02
   7737.76    8.896793e-02
   7738.04    8.853165e-02
   7738.33    8.813015e-02
   7738.62    8.779001e-02
   7738.91    8.753401e-02
   7739.20    8.737957e-02
   7739.49    8.733780e-02
   7739.78    8.742287e-02
   7740.07    8.764972e-02
   7740.36    8.803147e-02
   7740.64    8.841323e-02
   7740.93    8.879498e-02
   7741.22    8.928146e-02
   7741.51    8.979937e-02
   7741.80    9.031728e-02
   7742.09    9.079568e-02
   7742.38    9.118521e-02
   7742.67    9.157474e-02
   7742.96    9.196427e-02
   7743.24    9.209014e-02
   7743.53    9.216808e-02
   7743.82    9.224602e-02
   7744.11    9.219107e-02
   7744.40    9.192352e-02
   7744.69    9.165597e-02
   7744.98    9.138842e-02
   7745.27    9.089242e-02
   7745.56    9.037739e-02
   7745.84    8.986236e-02
   7746.13    8.929984e-02
   7746.42    8.868191e-02
   7746.71    8.806397e-02
   7747.00    8.744604e-02
   7747.29    8.683883e-02
   7747.58    8.623162e-02
   7747.87    8.562441e-02
   7748.16    8.505463e-02
   7748.44    8.451692e-02
   7748.73    8.397922e-02
   7749.02    8.344807e-02
   7749.31    8.299549e-02
   7749.60    8.254291e-02
   7749.89    8.209033e-02
   7750.18    8.168321e-02
   7750.47    8.130452e-02
   7750.76    8.092582e-02
   7751.04    8.055447e-02
   7751.33    8.022353e-02
   7751.62    7.989259e-02
   7751.91    7.956166e-02
   7752.20    7.924214e-02
   7752.49    7.892771e-02
   7752.78    7.861328e-02
   7753.07    7.829630e-02
   7753.36    7.797087e-02
   7753.64    7.764543e-02
   7753.93    7.731999e-02
   7754.22    7.697365e-02
   7754.51    7.662104e-02
   7754.80    7.626844e-02
   7755.09    7.590720e-02
   7755.38    7.552656e-02
   7755.67    7.514592e-02
   7755.96    7.476528e-02
   7756.24    7.437202e-02
   7756.53    7.397646e-02
   7756.82    7.358091e-02
   7757.11    7.318818e-02
   7757.40    7.279998e-02
   7757.69    7.241177e-02
   7757.98    7.202357e-02
   7758.27    7.166833e-02
   7758.56    7.131583e-02
   7758.84    7.096334e-02
   7759.13    7.064252e-02
   7759.42    7.035867e-02
   7759.71    7.007482e-02
   7760.00    6.979097e-02
