 FDMNES
  energy    <xanes>
   7695.00    5.299893e-04
   7695.29    5.358096e-04
   7695.58    5.416300e-04
   7695.87    5.474504e-04
   7696.16    5.534948e-04
   7696.44    5.597312e-04
   7696.73    5.659676e-04
   7697.02    5.722395e-04
   7697.31    5.789366e-04
   7697.60    5.856338e-04
   7697.89    5.923310e-04
   7698.18    5.993433e-04
   7698.47    6.065525e-04
   7698.76    6.137618e-04
   7699.04    6.210589e-04
   7699.33    6.288392e-04
   7699.62    6.366195e-04
   7699.91    6.443998e-04
   7700.20    6.526228e-04
   7700.49    6.610425e-04
   7700.78    6.694622e-04
   7701.07    6.780477e-04
   7701.36    6.871863e-04
   7701.64    6.963248e-04
   7701.93    7.054633e-04
   7702.22    7.152262e-04
   7702.51    7.251765e-04
   7702.80    7.351267e-04
   7703.09    7.453604e-04
   7703.38    7.562317e-04
   7703.67    7.671030e-04
   7703.96    7.779743e-04
   7704.24    7.897346e-04
   7704.53    8.016565e-04
   7704.82    8.135784e-04
   7705.11    8.259638e-04
   7705.40    8.390908e-04
   7705.69    8.522178e-04
   7705.98    8.653449e-04
   7706.27    8.797559e-04
   7706.56    8.942738e-04
   7706.84    9.087918e-04
   7707.13    9.240559e-04
   7707.42    9.401902e-04
   7707.71    9.563246e-04
   7708.00    9.724590e-04
   7708.29    9.904858e-04
   7708.58    1.008513e-03
   7708.87    1.026539e-03
   7709.16    1.045769e-03
   7709.44    1.066030e-03
   7709.73    1.086290e-03
   7710.02    1.106756e-03
   7710.31    1.129678e-03
   7710.60    1.152600e-03
   7710.89    1.175522e-03
   7711.18    1.200416e-03
   7711.47    1.226542e-03
   7711.76    1.252668e-03
   7712.04    1.279394e-03
   7712.33    1.309422e-03
   7712.62    1.339450e-03
   7712.91    1.369478e-03
   7713.20    1.402839e-03
   7713.49    1.437683e-03
   7713.78    1.472526e-03
   7714.07    1.508762e-03
   7714.36    1.549641e-03
   7714.64    1.590520e-03
   7714.93    1.631399e-03
   7715.22    1.678202e-03
   7715.51    1.726782e-03
   7715.80    1.775363e-03
   7716.09    1.827032e-03
   7716.38    1.885651e-03
   7716.67    1.944270e-03
   7716.96    2.002889e-03
   7717.24    2.072871e-03
   7717.53    2.144918e-03
   7717.82    2.216965e-03
   7718.11    2.296146e-03
   7718.40    2.386741e-03
   7718.69    2.477335e-03
   7718.98    2.567930e-03
   7719.27    2.683172e-03
   7719.56    2.800468e-03
   7719.84    2.917764e-03
   7720.13    3.053820e-03
   7720.42    3.211765e-03
   7720.71    3.369709e-03
   7721.00    3.527654e-03
   7721.29    3.752710e-03
   7721.58    3.977767e-03
   7721.87    4.202823e-03
   7722.16    4.495900e-03
   7722.44    4.847281e-03
   7722.73    5.198662e-03
   7723.02    5.573454e-03
   7723.31    6.229179e-03
   7723.60    6.884904e-03
   7723.89    7.540630e-03
   7724.18    8.840029e-03
   7724.47    1.054172e-02
   7724.76    1.224342e-02
   7725.04    1.410680e-02
   7725.33    1.694320e-02
   7725.62    2.000260e-02
   7725.91    2.334321e-02
   7726.20    2.699781e-02
   7726.49    3.112764e-02
   7726.78    3.573033e-02
   7727.07    4.100136e-02
   7727.36    4.689713e-02
   7727.64    5.328604e-02
   7727.93    5.991317e-02
   7728.22    6.669953e-02
   7728.51    7.394907e-02
   7728.80    8.195756e-02
   7729.09    9.117824e-02
   7729.38    1.013125e-01
   7729.67    1.120059e-01
   7729.96    1.223940e-01
   7730.24    1.314274e-01
   7730.53    1.378415e-01
   7730.82    1.412524e-01
   7731.11    1.418426e-01
   7731.40    1.401904e-01
   7731.69    1.370292e-01
   7731.98    1.330197e-01
   7732.27    1.286503e-01
   7732.56    1.242670e-01
   7732.84    1.200520e-01
   7733.13    1.160965e-01
   7733.42    1.124529e-01
   7733.71    1.091530e-01
   7734.00    1.062144e-01
   7734.29    1.036801e-01
   7734.58    1.014908e-01
   7734.87    9.962118e-02
   7735.16    9.804034e-02
   7735.44    9.671408e-02
   7735.73    9.560653e-02
   7736.02    9.469162e-02
   7736.31    9.392693e-02
   7736.60    9.327293e-02
   7736.89    9.270392e-02
   7737.18    9.219988e-02
   7737.47    9.174701e-02
   7737.76    9.133879e-02
   7738.04    9.097859e-02
   7738.33    9.066739e-02
   7738.62    9.041267e-02
   7738.91    9.022181e-02
   7739.20    9.010045e-02
   7739.49    9.005158e-02
   7739.78    9.008101e-02
   7740.07    9.019540e-02
   7740.36    9.040141e-02
   7740.64    9.060742e-02
   7740.93    9.081343e-02
   7741.22    9.108264e-02
   7741.51    9.137080e-02
   7741.80    9.165897e-02
   7742.09    9.192493e-02
   7742.38    9.214095e-02
   7742.67    9.235697e-02
   7742.96    9.257298e-02
   7743.24    9.262263e-02
   7743.53    9.264203e-02
   7743.82    9.266143e-02
   7744.11    9.258468e-02
   7744.40    9.235407e-02
   7744.69    9.212347e-02
   7744.98    9.189287e-02
   7745.27    9.145440e-02
   7745.56    9.099861e-02
   7745.84    9.054282e-02
   7746.13    9.001381e-02
   7746.42    8.939939e-02
   7746.71    8.878496e-02
   7747.00    8.817053e-02
   7747.29    8.746647e-02
   7747.58    8.676240e-02
   7747.87    8.605833e-02
   7748.16    8.534504e-02
   7748.44    8.462384e-02
   7748.73    8.390264e-02
   7749.02    8.318618e-02
   7749.31    8.252657e-02
   7749.60    8.186696e-02
   7749.89    8.120734e-02
   7750.18    8.061845e-02
   7750.47    8.007374e-02
   7750.76    7.952904e-02
   7751.04    7.900301e-02
   7751.33    7.857970e-02
   7751.62    7.815639e-02
   7751.91    7.773307e-02
   7752.20    7.737194e-02
   7752.49    7.703845e-02
   7752.78    7.670496e-02
   7753.07    7.638092e-02
   7753.36    7.608842e-02
   7753.64    7.579591e-02
   7753.93    7.550340e-02
   7754.22    7.520660e-02
   7754.51    7.490851e-02
   7754.80    7.461042e-02
   7755.09    7.430171e-02
   7755.38    7.396912e-02
   7755.67    7.363653e-02
   7755.96    7.330394e-02
   7756.24    7.294001e-02
   7756.53    7.257038e-02
   7756.82    7.220075e-02
   7757.11    7.182577e-02
   7757.40    7.144221e-02
   7757.69    7.105865e-02
   7757.98    7.067510e-02
   7758.27    7.031538e-02
   7758.56    6.995765e-02
   7758.84    6.959991e-02
   7759.13    6.927377e-02
   7759.42    6.898449e-02
   7759.71    6.869521e-02
   7760.00    6.840592e-02
