 FDMNES
  energy    <xanes>
   7695.00    5.341751e-04
   7695.29    5.396745e-04
   7695.58    5.451738e-04
   7695.87    5.506732e-04
   7696.16    5.563735e-04
   7696.44    5.622461e-04
   7696.73    5.681187e-04
   7697.02    5.740230e-04
   7697.31    5.803074e-04
   7697.60    5.865917e-04
   7697.89    5.928761e-04
   7698.18    5.994409e-04
   7698.47    6.061811e-04
   7698.76    6.129212e-04
   7699.04    6.197391e-04
   7699.33    6.269853e-04
   7699.62    6.342316e-04
   7699.91    6.414778e-04
   7700.20    6.491145e-04
   7700.49    6.569249e-04
   7700.78    6.647352e-04
   7701.07    6.726912e-04
   7701.36    6.811328e-04
   7701.64    6.895744e-04
   7701.93    6.980161e-04
   7702.22    7.070034e-04
   7702.51    7.161545e-04
   7702.80    7.253055e-04
   7703.09    7.347031e-04
   7703.38    7.446551e-04
   7703.67    7.546072e-04
   7703.96    7.645592e-04
   7704.24    7.752803e-04
   7704.53    7.861412e-04
   7704.82    7.970021e-04
   7705.11    8.082618e-04
   7705.40    8.201596e-04
   7705.69    8.320574e-04
   7705.98    8.439551e-04
   7706.27    8.569513e-04
   7706.56    8.700391e-04
   7706.84    8.831268e-04
   7707.13    8.968490e-04
   7707.42    9.113113e-04
   7707.71    9.257737e-04
   7708.00    9.402360e-04
   7708.29    9.562977e-04
   7708.58    9.723594e-04
   7708.87    9.884211e-04
   7709.16    1.005493e-03
   7709.44    1.023430e-03
   7709.73    1.041368e-03
   7710.02    1.059476e-03
   7710.31    1.079633e-03
   7710.60    1.099790e-03
   7710.89    1.119947e-03
   7711.18    1.141737e-03
   7711.47    1.164547e-03
   7711.76    1.187357e-03
   7712.04    1.210660e-03
   7712.33    1.236678e-03
   7712.62    1.262695e-03
   7712.91    1.288712e-03
   7713.20    1.317449e-03
   7713.49    1.347395e-03
   7713.78    1.377340e-03
   7714.07    1.408413e-03
   7714.36    1.443242e-03
   7714.64    1.478072e-03
   7714.93    1.512902e-03
   7715.22    1.552486e-03
   7715.51    1.593498e-03
   7715.80    1.634509e-03
   7716.09    1.677979e-03
   7716.38    1.726981e-03
   7716.67    1.775983e-03
   7716.96    1.824985e-03
   7717.24    1.882958e-03
   7717.53    1.942561e-03
   7717.82    2.002164e-03
   7718.11    2.067355e-03
   7718.40    2.141485e-03
   7718.69    2.215616e-03
   7718.98    2.289747e-03
   7719.27    2.383049e-03
   7719.56    2.477949e-03
   7719.84    2.572849e-03
   7720.13    2.682271e-03
   7720.42    2.808637e-03
   7720.71    2.935003e-03
   7721.00    3.061369e-03
   7721.29    3.239665e-03
   7721.58    3.417961e-03
   7721.87    3.596257e-03
   7722.16    3.827668e-03
   7722.44    4.104606e-03
   7722.73    4.381544e-03
   7723.02    4.677303e-03
   7723.31    5.198906e-03
   7723.60    5.720509e-03
   7723.89    6.242112e-03
   7724.18    7.298750e-03
   7724.47    8.689785e-03
   7724.76    1.008082e-02
   7725.04    1.159563e-02
   7725.33    1.382022e-02
   7725.62    1.610334e-02
   7725.91    1.849908e-02
   7726.20    2.109106e-02
   7726.49    2.402383e-02
   7726.78    2.726636e-02
   7727.07    3.082187e-02
   7727.36    3.454057e-02
   7727.64    3.832068e-02
   7727.93    4.221504e-02
   7728.22    4.644843e-02
   7728.51    5.135055e-02
   7728.80    5.696936e-02
   7729.09    6.347900e-02
   7729.38    7.061936e-02
   7729.67    7.830811e-02
   7729.96    8.621431e-02
   7730.24    9.390886e-02
   7730.53    1.006796e-01
   7730.82    1.059362e-01
   7731.11    1.093102e-01
   7731.40    1.107253e-01
   7731.69    1.103911e-01
   7731.98    1.087027e-01
   7732.27    1.061110e-01
   7732.56    1.031239e-01
   7732.84    1.001465e-01
   7733.13    9.742127e-02
   7733.42    9.509175e-02
   7733.71    9.322466e-02
   7734.00    9.183410e-02
   7734.29    9.095224e-02
   7734.58    9.048397e-02
   7734.87    9.038300e-02
   7735.16    9.059878e-02
   7735.44    9.107917e-02
   7735.73    9.177219e-02
   7736.02    9.263381e-02
   7736.31    9.360291e-02
   7736.60    9.462135e-02
   7736.89    9.563992e-02
   7737.18    9.661201e-02
   7737.47    9.749584e-02
   7737.76    9.825429e-02
   7738.04    9.884811e-02
   7738.33    9.927986e-02
   7738.62    9.955037e-02
   7738.91    9.967070e-02
   7739.20    9.965988e-02
   7739.49    9.954216e-02
   7739.78    9.933955e-02
   7740.07    9.908700e-02
   7740.36    9.881763e-02
   7740.64    9.854827e-02
   7740.93    9.827891e-02
   7741.22    9.809983e-02
   7741.51    9.794785e-02
   7741.80    9.779586e-02
   7742.09    9.769619e-02
   7742.38    9.771423e-02
   7742.67    9.773226e-02
   7742.96    9.775030e-02
   7743.24    9.786045e-02
   7743.53    9.798736e-02
   7743.82    9.811426e-02
   7744.11    9.824298e-02
   7744.40    9.837460e-02
   7744.69    9.850622e-02
   7744.98    9.863784e-02
   7745.27    9.867556e-02
   7745.56    9.870545e-02
   7745.84    9.873534e-02
   7746.13    9.867945e-02
   7746.42    9.852348e-02
   7746.71    9.836752e-02
   7747.00    9.821155e-02
   7747.29    9.783120e-02
   7747.58    9.745086e-02
   7747.87    9.707051e-02
   7748.16    9.658337e-02
   7748.44    9.600468e-02
   7748.73    9.542599e-02
   7749.02    9.483842e-02
   7749.31    9.414432e-02
   7749.60    9.345022e-02
   7749.89    9.275612e-02
   7750.18    9.205200e-02
   7750.47    9.134162e-02
   7750.76    9.063125e-02
   7751.04    8.992947e-02
   7751.33    8.927501e-02
   7751.62    8.862055e-02
   7751.91    8.796608e-02
   7752.20    8.737063e-02
   7752.49    8.680140e-02
   7752.78    8.623216e-02
   7753.07    8.568145e-02
   7753.36    8.519248e-02
   7753.64    8.470350e-02
   7753.93    8.421452e-02
   7754.22    8.377074e-02
   7754.51    8.334052e-02
   7754.80    8.291030e-02
   7755.09    8.249107e-02
   7755.38    8.209660e-02
   7755.67    8.170212e-02
   7755.96    8.130765e-02
   7756.24    8.092867e-02
   7756.53    8.055251e-02
   7756.82    8.017634e-02
   7757.11    7.980562e-02
   7757.40    7.944361e-02
   7757.69    7.908160e-02
   7757.98    7.871959e-02
   7758.27    7.838440e-02
   7758.56    7.805145e-02
   7758.84    7.771850e-02
   7759.13    7.741337e-02
   7759.42    7.714071e-02
   7759.71    7.686804e-02
   7760.00    7.659538e-02
