 FDMNES
  energy    <xanes>
   7695.00    5.197494e-04
   7695.29    5.254237e-04
   7695.58    5.310980e-04
   7695.87    5.367723e-04
   7696.16    5.426624e-04
   7696.44    5.487374e-04
   7696.73    5.548124e-04
   7697.02    5.609216e-04
   7697.31    5.674399e-04
   7697.60    5.739581e-04
   7697.89    5.804764e-04
   7698.18    5.872974e-04
   7698.47    5.943076e-04
   7698.76    6.013177e-04
   7699.04    6.084121e-04
   7699.33    6.159700e-04
   7699.62    6.235280e-04
   7699.91    6.310859e-04
   7700.20    6.390677e-04
   7700.49    6.472379e-04
   7700.78    6.554081e-04
   7701.07    6.637369e-04
   7701.36    6.725943e-04
   7701.64    6.814517e-04
   7701.93    6.903091e-04
   7702.22    6.997623e-04
   7702.51    7.093943e-04
   7702.80    7.190264e-04
   7703.09    7.289283e-04
   7703.38    7.394376e-04
   7703.67    7.499468e-04
   7703.96    7.604561e-04
   7704.24    7.718103e-04
   7704.53    7.833181e-04
   7704.82    7.948259e-04
   7705.11    8.067733e-04
   7705.40    8.194241e-04
   7705.69    8.320748e-04
   7705.98    8.447256e-04
   7706.27    8.585911e-04
   7706.56    8.725579e-04
   7706.84    8.865247e-04
   7707.13    9.011955e-04
   7707.42    9.166877e-04
   7707.71    9.321800e-04
   7708.00    9.476722e-04
   7708.29    9.649454e-04
   7708.58    9.822187e-04
   7708.87    9.994919e-04
   7709.16    1.017894e-03
   7709.44    1.037263e-03
   7709.73    1.056633e-03
   7710.02    1.076194e-03
   7710.31    1.098053e-03
   7710.60    1.119912e-03
   7710.89    1.141771e-03
   7711.18    1.165467e-03
   7711.47    1.190313e-03
   7711.76    1.215158e-03
   7712.04    1.240560e-03
   7712.33    1.269028e-03
   7712.62    1.297497e-03
   7712.91    1.325965e-03
   7713.20    1.357516e-03
   7713.49    1.390437e-03
   7713.78    1.423358e-03
   7714.07    1.457561e-03
   7714.36    1.496037e-03
   7714.64    1.534513e-03
   7714.93    1.572989e-03
   7715.22    1.616890e-03
   7715.51    1.662418e-03
   7715.80    1.707946e-03
   7716.09    1.756285e-03
   7716.38    1.810952e-03
   7716.67    1.865619e-03
   7716.96    1.920285e-03
   7717.24    1.985227e-03
   7717.53    2.052037e-03
   7717.82    2.118847e-03
   7718.11    2.192060e-03
   7718.40    2.275516e-03
   7718.69    2.358972e-03
   7718.98    2.442428e-03
   7719.27    2.547807e-03
   7719.56    2.655012e-03
   7719.84    2.762218e-03
   7720.13    2.885936e-03
   7720.42    3.028916e-03
   7720.71    3.171897e-03
   7721.00    3.314877e-03
   7721.29    3.516183e-03
   7721.58    3.717490e-03
   7721.87    3.918796e-03
   7722.16    4.178381e-03
   7722.44    4.487919e-03
   7722.73    4.797457e-03
   7723.02    5.126811e-03
   7723.31    5.693947e-03
   7723.60    6.261083e-03
   7723.89    6.828218e-03
   7724.18    7.934122e-03
   7724.47    9.376755e-03
   7724.76    1.081939e-02
   7725.04    1.238874e-02
   7725.33    1.469617e-02
   7725.62    1.709902e-02
   7725.91    1.964910e-02
   7726.20    2.241753e-02
   7726.49    2.557559e-02
   7726.78    2.915630e-02
   7727.07    3.337257e-02
   7727.36    3.829012e-02
   7727.64    4.408472e-02
   7727.93    5.087927e-02
   7728.22    5.870435e-02
   7728.51    6.766267e-02
   7728.80    7.743495e-02
   7729.09    8.778186e-02
   7729.38    9.810784e-02
   7729.67    1.077655e-01
   7729.96    1.161865e-01
   7730.24    1.226779e-01
   7730.53    1.265076e-01
   7730.82    1.278715e-01
   7731.11    1.273274e-01
   7731.40    1.255507e-01
   7731.69    1.231040e-01
   7731.98    1.203370e-01
   7732.27    1.174207e-01
   7732.56    1.144384e-01
   7732.84    1.114479e-01
   7733.13    1.085144e-01
   7733.42    1.057198e-01
   7733.71    1.031501e-01
   7734.00    1.008820e-01
   7734.29    9.902436e-02
   7734.58    9.757263e-02
   7734.87    9.653752e-02
   7735.16    9.590913e-02
   7735.44    9.565956e-02
   7735.73    9.574501e-02
   7736.02    9.612146e-02
   7736.31    9.670235e-02
   7736.60    9.739352e-02
   7736.89    9.811165e-02
   7737.18    9.877690e-02
   7737.47    9.931989e-02
   7737.76    9.968472e-02
   7738.04    9.982258e-02
   7738.33    9.975177e-02
   7738.62    9.949288e-02
   7738.91    9.908244e-02
   7739.20    9.856640e-02
   7739.49    9.799339e-02
   7739.78    9.741140e-02
   7740.07    9.689034e-02
   7740.36    9.649716e-02
   7740.64    9.610398e-02
   7740.93    9.571079e-02
   7741.22    9.559636e-02
   7741.51    9.556556e-02
   7741.80    9.553475e-02
   7742.09    9.558667e-02
   7742.38    9.582474e-02
   7742.67    9.606280e-02
   7742.96    9.630086e-02
   7743.24    9.656794e-02
   7743.53    9.684029e-02
   7743.82    9.711265e-02
   7744.11    9.730226e-02
   7744.40    9.735949e-02
   7744.69    9.741671e-02
   7744.98    9.747394e-02
   7745.27    9.720179e-02
   7745.56    9.690220e-02
   7745.84    9.660260e-02
   7746.13    9.615571e-02
   7746.42    9.553697e-02
   7746.71    9.491823e-02
   7747.00    9.429949e-02
   7747.29    9.351873e-02
   7747.58    9.273798e-02
   7747.87    9.195722e-02
   7748.16    9.117765e-02
   7748.44    9.039910e-02
   7748.73    8.962055e-02
   7749.02    8.884965e-02
   7749.31    8.817055e-02
   7749.60    8.749145e-02
   7749.89    8.681235e-02
   7750.18    8.620632e-02
   7750.47    8.564595e-02
   7750.76    8.508558e-02
   7751.04    8.453866e-02
   7751.33    8.406568e-02
   7751.62    8.359271e-02
   7751.91    8.311973e-02
   7752.20    8.267304e-02
   7752.49    8.223804e-02
   7752.78    8.180303e-02
   7753.07    8.136603e-02
   7753.36    8.092241e-02
   7753.64    8.047879e-02
   7753.93    8.003516e-02
   7754.22    7.955821e-02
   7754.51    7.907125e-02
   7754.80    7.858429e-02
   7755.09    7.807811e-02
   7755.38    7.752869e-02
   7755.67    7.697927e-02
   7755.96    7.642985e-02
   7756.24    7.582740e-02
   7756.53    7.521531e-02
   7756.82    7.460323e-02
   7757.11    7.397624e-02
   7757.40    7.332542e-02
   7757.69    7.267460e-02
   7757.98    7.202378e-02
   7758.27    7.138810e-02
   7758.56    7.075369e-02
   7758.84    7.011927e-02
   7759.13    6.953120e-02
   7759.42    6.899720e-02
   7759.71    6.846320e-02
   7760.00    6.792920e-02
