 FDMNES
  energy    <xanes>
   7695.00    5.348574e-04
   7695.29    5.406418e-04
   7695.58    5.464262e-04
   7695.87    5.522106e-04
   7696.16    5.582152e-04
   7696.44    5.644085e-04
   7696.73    5.706019e-04
   7697.02    5.768301e-04
   7697.31    5.834761e-04
   7697.60    5.901221e-04
   7697.89    5.967680e-04
   7698.18    6.037234e-04
   7698.47    6.108720e-04
   7698.76    6.180207e-04
   7699.04    6.252556e-04
   7699.33    6.329645e-04
   7699.62    6.406735e-04
   7699.91    6.483824e-04
   7700.20    6.565254e-04
   7700.49    6.648612e-04
   7700.78    6.731971e-04
   7701.07    6.816955e-04
   7701.36    6.907357e-04
   7701.64    6.997759e-04
   7701.93    7.088161e-04
   7702.22    7.184678e-04
   7702.51    7.283029e-04
   7702.80    7.381380e-04
   7703.09    7.482505e-04
   7703.38    7.589872e-04
   7703.67    7.697238e-04
   7703.96    7.804605e-04
   7704.24    7.920668e-04
   7704.53    8.038312e-04
   7704.82    8.155957e-04
   7705.11    8.278134e-04
   7705.40    8.407563e-04
   7705.69    8.536992e-04
   7705.98    8.666422e-04
   7706.27    8.808402e-04
   7706.56    8.951429e-04
   7706.84    9.094456e-04
   7707.13    9.244774e-04
   7707.42    9.403598e-04
   7707.71    9.562423e-04
   7708.00    9.721247e-04
   7708.29    9.898565e-04
   7708.58    1.007588e-03
   7708.87    1.025320e-03
   7709.16    1.044228e-03
   7709.44    1.064143e-03
   7709.73    1.084058e-03
   7710.02    1.104173e-03
   7710.31    1.126690e-03
   7710.60    1.149207e-03
   7710.89    1.171724e-03
   7711.18    1.196170e-03
   7711.47    1.221821e-03
   7711.76    1.247472e-03
   7712.04    1.273711e-03
   7712.33    1.303183e-03
   7712.62    1.332656e-03
   7712.91    1.362128e-03
   7713.20    1.394869e-03
   7713.49    1.429064e-03
   7713.78    1.463259e-03
   7714.07    1.498823e-03
   7714.36    1.538951e-03
   7714.64    1.579078e-03
   7714.93    1.619205e-03
   7715.22    1.665174e-03
   7715.51    1.712895e-03
   7715.80    1.760617e-03
   7716.09    1.811397e-03
   7716.38    1.869061e-03
   7716.67    1.926724e-03
   7716.96    1.984388e-03
   7717.24    2.053375e-03
   7717.53    2.124421e-03
   7717.82    2.195467e-03
   7718.11    2.273686e-03
   7718.40    2.363381e-03
   7718.69    2.453077e-03
   7718.98    2.542772e-03
   7719.27    2.657566e-03
   7719.56    2.774452e-03
   7719.84    2.891338e-03
   7720.13    3.027690e-03
   7720.42    3.186751e-03
   7720.71    3.345812e-03
   7721.00    3.504873e-03
   7721.29    3.735544e-03
   7721.58    3.966216e-03
   7721.87    4.196888e-03
   7722.16    4.503306e-03
   7722.44    4.874650e-03
   7722.73    5.245994e-03
   7723.02    5.645092e-03
   7723.31    6.377223e-03
   7723.60    7.109354e-03
   7723.89    7.841486e-03
   7724.18    9.397002e-03
   7724.47    1.146713e-02
   7724.76    1.353727e-02
   7725.04    1.583280e-02
   7725.33    1.951772e-02
   7725.62    2.358364e-02
   7725.91    2.789726e-02
   7726.20    3.210218e-02
   7726.49    3.564198e-02
   7726.78    3.855078e-02
   7727.07    4.120962e-02
   7727.36    4.422667e-02
   7727.64    4.807382e-02
   7727.93    5.296920e-02
   7728.22    5.890135e-02
   7728.51    6.592325e-02
   7728.80    7.381183e-02
   7729.09    8.276399e-02
   7729.38    9.254858e-02
   7729.67    1.029810e-01
   7729.96    1.133059e-01
   7730.24    1.224954e-01
   7730.53    1.291886e-01
   7730.82    1.328135e-01
   7731.11    1.334289e-01
   7731.40    1.315934e-01
   7731.69    1.281009e-01
   7731.98    1.237034e-01
   7732.27    1.189761e-01
   7732.56    1.143284e-01
   7732.84    1.099698e-01
   7733.13    1.060133e-01
   7733.42    1.025265e-01
   7733.71    9.954642e-02
   7734.00    9.708437e-02
   7734.29    9.518705e-02
   7734.58    9.376181e-02
   7734.87    9.276584e-02
   7735.16    9.214738e-02
   7735.44    9.184776e-02
   7735.73    9.180325e-02
   7736.02    9.195518e-02
   7736.31    9.222427e-02
   7736.60    9.254059e-02
   7736.89    9.285285e-02
   7737.18    9.312298e-02
   7737.47    9.332836e-02
   7737.76    9.346077e-02
   7738.04    9.352313e-02
   7738.33    9.354087e-02
   7738.62    9.353608e-02
   7738.91    9.353095e-02
   7739.20    9.354491e-02
   7739.49    9.359287e-02
   7739.78    9.368866e-02
   7740.07    9.384675e-02
   7740.36    9.407887e-02
   7740.64    9.431098e-02
   7740.93    9.454310e-02
   7741.22    9.484063e-02
   7741.51    9.515778e-02
   7741.80    9.547494e-02
   7742.09    9.577952e-02
   7742.38    9.605583e-02
   7742.67    9.633215e-02
   7742.96    9.660846e-02
   7743.24    9.673733e-02
   7743.53    9.683939e-02
   7743.82    9.694145e-02
   7744.11    9.694293e-02
   7744.40    9.678346e-02
   7744.69    9.662399e-02
   7744.98    9.646452e-02
   7745.27    9.606472e-02
   7745.56    9.564488e-02
   7745.84    9.522505e-02
   7746.13    9.471906e-02
   7746.42    9.411257e-02
   7746.71    9.350607e-02
   7747.00    9.289958e-02
   7747.29    9.220633e-02
   7747.58    9.151309e-02
   7747.87    9.081985e-02
   7748.16    9.013089e-02
   7748.44    8.944561e-02
   7748.73    8.876033e-02
   7749.02    8.808087e-02
   7749.31    8.747126e-02
   7749.60    8.686164e-02
   7749.89    8.625203e-02
   7750.18    8.570524e-02
   7750.47    8.519772e-02
   7750.76    8.469020e-02
   7751.04    8.419667e-02
   7751.33    8.378015e-02
   7751.62    8.336362e-02
   7751.91    8.294709e-02
   7752.20    8.257147e-02
   7752.49    8.221403e-02
   7752.78    8.185659e-02
   7753.07    8.150412e-02
   7753.36    8.116822e-02
   7753.64    8.083231e-02
   7753.93    8.049641e-02
   7754.22    8.015058e-02
   7754.51    7.980177e-02
   7754.80    7.945296e-02
   7755.09    7.909219e-02
   7755.38    7.870454e-02
   7755.67    7.831689e-02
   7755.96    7.792924e-02
   7756.24    7.749907e-02
   7756.53    7.706115e-02
   7756.82    7.662324e-02
   7757.11    7.617018e-02
   7757.40    7.569289e-02
   7757.69    7.521559e-02
   7757.98    7.473829e-02
   7758.27    7.426240e-02
   7758.56    7.378662e-02
   7758.84    7.331084e-02
   7759.13    7.286734e-02
   7759.42    7.246149e-02
   7759.71    7.205563e-02
   7760.00    7.164978e-02
