 FDMNES
  energy    <xanes>
   7695.00    5.189525e-04
   7695.29    5.246762e-04
   7695.58    5.304000e-04
   7695.87    5.361237e-04
   7696.16    5.420677e-04
   7696.44    5.482005e-04
   7696.73    5.543333e-04
   7697.02    5.605010e-04
   7697.31    5.670867e-04
   7697.60    5.736725e-04
   7697.89    5.802582e-04
   7698.18    5.871537e-04
   7698.47    5.942428e-04
   7698.76    6.013319e-04
   7699.04    6.085073e-04
   7699.33    6.161576e-04
   7699.62    6.238079e-04
   7699.91    6.314582e-04
   7700.20    6.395435e-04
   7700.49    6.478221e-04
   7700.78    6.561006e-04
   7701.07    6.645422e-04
   7701.36    6.735270e-04
   7701.64    6.825118e-04
   7701.93    6.914965e-04
   7702.22    7.010947e-04
   7702.51    7.108768e-04
   7702.80    7.206589e-04
   7703.09    7.307194e-04
   7703.38    7.414061e-04
   7703.67    7.520928e-04
   7703.96    7.627796e-04
   7704.24    7.743392e-04
   7704.53    7.860575e-04
   7704.82    7.977758e-04
   7705.11    8.099492e-04
   7705.40    8.228507e-04
   7705.69    8.357522e-04
   7705.98    8.486537e-04
   7706.27    8.628155e-04
   7706.56    8.770824e-04
   7706.84    8.913492e-04
   7707.13    9.063483e-04
   7707.42    9.222015e-04
   7707.71    9.380547e-04
   7708.00    9.539080e-04
   7708.29    9.716182e-04
   7708.58    9.893285e-04
   7708.87    1.007039e-03
   7709.16    1.025929e-03
   7709.44    1.045831e-03
   7709.73    1.065733e-03
   7710.02    1.085836e-03
   7710.31    1.108349e-03
   7710.60    1.130862e-03
   7710.89    1.153375e-03
   7711.18    1.177822e-03
   7711.47    1.203478e-03
   7711.76    1.229134e-03
   7712.04    1.255379e-03
   7712.33    1.284862e-03
   7712.62    1.314345e-03
   7712.91    1.343828e-03
   7713.20    1.376581e-03
   7713.49    1.410787e-03
   7713.78    1.444993e-03
   7714.07    1.480566e-03
   7714.36    1.520693e-03
   7714.64    1.560819e-03
   7714.93    1.600946e-03
   7715.22    1.646883e-03
   7715.51    1.694565e-03
   7715.80    1.742246e-03
   7716.09    1.792957e-03
   7716.38    1.850487e-03
   7716.67    1.908017e-03
   7716.96    1.965546e-03
   7717.24    2.034225e-03
   7717.53    2.104930e-03
   7717.82    2.175636e-03
   7718.11    2.253343e-03
   7718.40    2.342251e-03
   7718.69    2.431160e-03
   7718.98    2.520068e-03
   7719.27    2.633172e-03
   7719.56    2.748292e-03
   7719.84    2.863413e-03
   7720.13    2.996956e-03
   7720.42    3.151992e-03
   7720.71    3.307029e-03
   7721.00    3.462066e-03
   7721.29    3.683050e-03
   7721.58    3.904035e-03
   7721.87    4.125020e-03
   7722.16    4.413001e-03
   7722.44    4.758406e-03
   7722.73    5.103812e-03
   7723.02    5.472480e-03
   7723.31    6.120305e-03
   7723.60    6.768129e-03
   7723.89    7.415953e-03
   7724.18    8.708204e-03
   7724.47    1.040322e-02
   7724.76    1.209824e-02
   7725.04    1.394260e-02
   7725.33    1.664306e-02
   7725.62    1.940215e-02
   7725.91    2.226978e-02
   7726.20    2.537661e-02
   7726.49    2.900905e-02
   7726.78    3.326967e-02
   7727.07    3.850650e-02
   7727.36    4.481522e-02
   7727.64    5.237108e-02
   7727.93    6.108788e-02
   7728.22    7.056215e-02
   7728.51    8.036489e-02
   7728.80    9.011134e-02
   7729.09    9.957111e-02
   7729.38    1.086508e-01
   7729.67    1.169479e-01
   7729.96    1.240341e-01
   7730.24    1.292665e-01
   7730.53    1.319396e-01
   7730.82    1.321721e-01
   7731.11    1.303870e-01
   7731.40    1.271711e-01
   7731.69    1.231263e-01
   7731.98    1.187555e-01
   7732.27    1.144382e-01
   7732.56    1.104333e-01
   7732.84    1.068483e-01
   7733.13    1.037387e-01
   7733.42    1.011254e-01
   7733.71    9.900720e-02
   7734.00    9.736514e-02
   7734.29    9.620974e-02
   7734.58    9.543167e-02
   7734.87    9.496833e-02
   7735.16    9.475043e-02
   7735.44    9.470399e-02
   7735.73    9.475347e-02
   7736.02    9.482354e-02
   7736.31    9.484321e-02
   7736.60    9.476830e-02
   7736.89    9.457552e-02
   7737.18    9.426292e-02
   7737.47    9.384790e-02
   7737.76    9.336213e-02
   7738.04    9.284941e-02
   7738.33    9.235866e-02
   7738.62    9.192808e-02
   7738.91    9.158854e-02
   7739.20    9.136233e-02
   7739.49    9.126303e-02
   7739.78    9.130719e-02
   7740.07    9.151516e-02
   7740.36    9.190772e-02
   7740.64    9.230027e-02
   7740.93    9.269282e-02
   7741.22    9.324283e-02
   7741.51    9.384007e-02
   7741.80    9.443731e-02
   7742.09    9.500922e-02
   7742.38    9.552415e-02
   7742.67    9.603907e-02
   7742.96    9.655399e-02
   7743.24    9.679134e-02
   7743.53    9.697821e-02
   7743.82    9.716509e-02
   7744.11    9.719184e-02
   7744.40    9.696239e-02
   7744.69    9.673295e-02
   7744.98    9.650351e-02
   7745.27    9.596075e-02
   7745.56    9.539188e-02
   7745.84    9.482301e-02
   7746.13    9.416267e-02
   7746.42    9.339560e-02
   7746.71    9.262854e-02
   7747.00    9.186148e-02
   7747.29    9.102587e-02
   7747.58    9.019026e-02
   7747.87    8.935466e-02
   7748.16    8.853291e-02
   7748.44    8.772304e-02
   7748.73    8.691317e-02
   7749.02    8.610943e-02
   7749.31    8.537929e-02
   7749.60    8.464914e-02
   7749.89    8.391900e-02
   7750.18    8.324785e-02
   7750.47    8.261358e-02
   7750.76    8.197931e-02
   7751.04    8.135791e-02
   7751.33    8.080735e-02
   7751.62    8.025680e-02
   7751.91    7.970624e-02
   7752.20    7.919474e-02
   7752.49    7.870060e-02
   7752.78    7.820645e-02
   7753.07    7.771820e-02
   7753.36    7.724960e-02
   7753.64    7.678100e-02
   7753.93    7.631239e-02
   7754.22    7.584318e-02
   7754.51    7.537379e-02
   7754.80    7.490440e-02
   7755.09    7.442976e-02
   7755.38    7.394329e-02
   7755.67    7.345682e-02
   7755.96    7.297035e-02
   7756.24    7.246754e-02
   7756.53    7.196177e-02
   7756.82    7.145599e-02
   7757.11    7.094874e-02
   7757.40    7.043911e-02
   7757.69    6.992948e-02
   7757.98    6.941985e-02
   7758.27    6.894008e-02
   7758.56    6.846281e-02
   7758.84    6.798553e-02
   7759.13    6.754741e-02
   7759.42    6.715497e-02
   7759.71    6.676253e-02
   7760.00    6.637009e-02
