 FDMNES
  energy    <xanes>
   7695.00    5.143773e-04
   7695.29    5.200882e-04
   7695.58    5.257991e-04
   7695.87    5.315100e-04
   7696.16    5.374415e-04
   7696.44    5.435621e-04
   7696.73    5.496827e-04
   7697.02    5.558383e-04
   7697.31    5.624127e-04
   7697.60    5.689871e-04
   7697.89    5.755615e-04
   7698.18    5.824463e-04
   7698.47    5.895250e-04
   7698.76    5.966037e-04
   7699.04    6.037690e-04
   7699.33    6.114101e-04
   7699.62    6.190512e-04
   7699.91    6.266923e-04
   7700.20    6.347694e-04
   7700.49    6.430401e-04
   7700.78    6.513108e-04
   7701.07    6.597449e-04
   7701.36    6.687234e-04
   7701.64    6.777019e-04
   7701.93    6.866804e-04
   7702.22    6.962735e-04
   7702.51    7.060511e-04
   7702.80    7.158287e-04
   7703.09    7.258853e-04
   7703.38    7.365695e-04
   7703.67    7.472536e-04
   7703.96    7.579378e-04
   7704.24    7.694967e-04
   7704.53    7.812147e-04
   7704.82    7.929326e-04
   7705.11    8.051065e-04
   7705.40    8.180100e-04
   7705.69    8.309134e-04
   7705.98    8.438169e-04
   7706.27    8.579829e-04
   7706.56    8.722542e-04
   7706.84    8.865255e-04
   7707.13    9.015300e-04
   7707.42    9.173900e-04
   7707.71    9.332501e-04
   7708.00    9.491101e-04
   7708.29    9.668292e-04
   7708.58    9.845483e-04
   7708.87    1.002267e-03
   7709.16    1.021167e-03
   7709.44    1.041080e-03
   7709.73    1.060992e-03
   7710.02    1.081105e-03
   7710.31    1.103628e-03
   7710.60    1.126152e-03
   7710.89    1.148675e-03
   7711.18    1.173131e-03
   7711.47    1.198794e-03
   7711.76    1.224457e-03
   7712.04    1.250709e-03
   7712.33    1.280192e-03
   7712.62    1.309676e-03
   7712.91    1.339159e-03
   7713.20    1.371903e-03
   7713.49    1.406095e-03
   7713.78    1.440287e-03
   7714.07    1.475840e-03
   7714.36    1.515924e-03
   7714.64    1.556009e-03
   7714.93    1.596094e-03
   7715.22    1.641951e-03
   7715.51    1.689540e-03
   7715.80    1.737129e-03
   7716.09    1.787720e-03
   7716.38    1.845068e-03
   7716.67    1.902415e-03
   7716.96    1.959763e-03
   7717.24    2.028122e-03
   7717.53    2.098484e-03
   7717.82    2.168846e-03
   7718.11    2.246095e-03
   7718.40    2.334364e-03
   7718.69    2.422633e-03
   7718.98    2.510902e-03
   7719.27    2.622848e-03
   7719.56    2.736766e-03
   7719.84    2.850685e-03
   7720.13    2.982505e-03
   7720.42    3.135209e-03
   7720.71    3.287913e-03
   7721.00    3.440617e-03
   7721.29    3.656763e-03
   7721.58    3.872909e-03
   7721.87    4.089055e-03
   7722.16    4.368673e-03
   7722.44    4.702697e-03
   7722.73    5.036721e-03
   7723.02    5.392223e-03
   7723.31    6.005454e-03
   7723.60    6.618685e-03
   7723.89    7.231916e-03
   7724.18    8.425042e-03
   7724.47    9.980603e-03
   7724.76    1.153616e-02
   7725.04    1.323410e-02
   7725.33    1.578259e-02
   7725.62    1.851147e-02
   7725.91    2.148846e-02
   7726.20    2.475585e-02
   7726.49    2.843262e-02
   7726.78    3.247282e-02
   7727.07    3.705945e-02
   7727.36    4.234511e-02
   7727.64    4.863488e-02
   7727.93    5.612122e-02
   7728.22    6.479687e-02
   7728.51    7.467653e-02
   7728.80    8.532901e-02
   7729.09    9.644881e-02
   7729.38    1.075037e-01
   7729.67    1.179237e-01
   7729.96    1.271503e-01
   7730.24    1.344046e-01
   7730.53    1.387078e-01
   7730.82    1.399582e-01
   7731.11    1.385103e-01
   7731.40    1.350661e-01
   7731.69    1.304588e-01
   7731.98    1.254234e-01
   7732.27    1.205046e-01
   7732.56    1.160417e-01
   7732.84    1.121443e-01
   7733.13    1.088482e-01
   7733.42    1.061398e-01
   7733.71    1.039783e-01
   7734.00    1.023079e-01
   7734.29    1.011065e-01
   7734.58    1.002489e-01
   7734.87    9.966668e-02
   7735.16    9.929273e-02
   7735.44    9.906267e-02
   7735.73    9.891631e-02
   7736.02    9.879838e-02
   7736.31    9.865792e-02
   7736.60    9.846270e-02
   7736.89    9.819445e-02
   7737.18    9.784780e-02
   7737.47    9.742894e-02
   7737.76    9.695247e-02
   7738.04    9.643922e-02
   7738.33    9.591781e-02
   7738.62    9.540990e-02
   7738.91    9.493371e-02
   7739.20    9.450281e-02
   7739.49    9.412568e-02
   7739.78    9.381059e-02
   7740.07    9.356470e-02
   7740.36    9.339386e-02
   7740.64    9.322302e-02
   7740.93    9.305217e-02
   7741.22    9.292914e-02
   7741.51    9.282046e-02
   7741.80    9.271177e-02
   7742.09    9.258284e-02
   7742.38    9.240835e-02
   7742.67    9.223387e-02
   7742.96    9.205938e-02
   7743.24    9.176793e-02
   7743.53    9.145522e-02
   7743.82    9.114251e-02
   7744.11    9.077519e-02
   7744.40    9.032049e-02
   7744.69    8.986578e-02
   7744.98    8.941108e-02
   7745.27    8.886327e-02
   7745.56    8.830771e-02
   7745.84    8.775214e-02
   7746.13    8.717408e-02
   7746.42    8.656977e-02
   7746.71    8.596546e-02
   7747.00    8.536115e-02
   7747.29    8.475281e-02
   7747.58    8.414447e-02
   7747.87    8.353613e-02
   7748.16    8.294506e-02
   7748.44    8.236879e-02
   7748.73    8.179253e-02
   7749.02    8.122063e-02
   7749.31    8.070121e-02
   7749.60    8.018179e-02
   7749.89    7.966236e-02
   7750.18    7.918176e-02
   7750.47    7.872542e-02
   7750.76    7.826907e-02
   7751.04    7.782033e-02
   7751.33    7.741336e-02
   7751.62    7.700639e-02
   7751.91    7.659943e-02
   7752.20    7.620837e-02
   7752.49    7.582439e-02
   7752.78    7.544041e-02
   7753.07    7.505505e-02
   7753.36    7.466512e-02
   7753.64    7.427518e-02
   7753.93    7.388525e-02
   7754.22    7.347331e-02
   7754.51    7.305477e-02
   7754.80    7.263623e-02
   7755.09    7.220606e-02
   7755.38    7.174973e-02
   7755.67    7.129340e-02
   7755.96    7.083707e-02
   7756.24    7.035672e-02
   7756.53    6.987200e-02
   7756.82    6.938729e-02
   7757.11    6.890279e-02
   7757.40    6.841864e-02
   7757.69    6.793449e-02
   7757.98    6.745034e-02
   7758.27    6.700695e-02
   7758.56    6.656696e-02
   7758.84    6.612696e-02
   7759.13    6.572832e-02
   7759.42    6.537792e-02
   7759.71    6.502752e-02
   7760.00    6.467712e-02
