 FDMNES
  energy    <xanes>
   7695.00    5.404479e-04
   7695.29    5.461350e-04
   7695.58    5.518221e-04
   7695.87    5.575091e-04
   7696.16    5.634077e-04
   7696.44    5.694877e-04
   7696.73    5.755676e-04
   7697.02    5.816809e-04
   7697.31    5.881948e-04
   7697.60    5.947087e-04
   7697.89    6.012226e-04
   7698.18    6.080324e-04
   7698.47    6.150271e-04
   7698.76    6.220219e-04
   7699.04    6.290990e-04
   7699.33    6.366285e-04
   7699.62    6.441581e-04
   7699.91    6.516876e-04
   7700.20    6.596305e-04
   7700.49    6.677570e-04
   7700.78    6.758834e-04
   7701.07    6.841643e-04
   7701.36    6.929598e-04
   7701.64    7.017552e-04
   7701.93    7.105507e-04
   7702.22    7.199253e-04
   7702.51    7.294737e-04
   7702.80    7.390221e-04
   7703.09    7.488325e-04
   7703.38    7.592322e-04
   7703.67    7.696320e-04
   7703.96    7.800318e-04
   7704.24    7.912503e-04
   7704.53    8.026176e-04
   7704.82    8.139849e-04
   7705.11    8.257775e-04
   7705.40    8.382505e-04
   7705.69    8.507235e-04
   7705.98    8.631964e-04
   7706.27    8.768426e-04
   7706.56    8.905866e-04
   7706.84    9.043306e-04
   7707.13    9.187533e-04
   7707.42    9.339680e-04
   7707.71    9.491827e-04
   7708.00    9.643973e-04
   7708.29    9.813261e-04
   7708.58    9.982549e-04
   7708.87    1.015184e-03
   7709.16    1.033197e-03
   7709.44    1.052139e-03
   7709.73    1.071082e-03
   7710.02    1.090208e-03
   7710.31    1.111538e-03
   7710.60    1.132868e-03
   7710.89    1.154198e-03
   7711.18    1.177286e-03
   7711.47    1.201475e-03
   7711.76    1.225663e-03
   7712.04    1.250383e-03
   7712.33    1.278033e-03
   7712.62    1.305682e-03
   7712.91    1.333332e-03
   7713.20    1.363921e-03
   7713.49    1.395817e-03
   7713.78    1.427712e-03
   7714.07    1.460828e-03
   7714.36    1.498012e-03
   7714.64    1.535196e-03
   7714.93    1.572379e-03
   7715.22    1.614718e-03
   7715.51    1.658603e-03
   7715.80    1.702488e-03
   7716.09    1.749042e-03
   7716.38    1.801600e-03
   7716.67    1.854158e-03
   7716.96    1.906716e-03
   7717.24    1.969016e-03
   7717.53    2.033088e-03
   7717.82    2.097159e-03
   7718.11    2.167300e-03
   7718.40    2.247152e-03
   7718.69    2.327003e-03
   7718.98    2.406855e-03
   7719.27    2.507515e-03
   7719.56    2.609910e-03
   7719.84    2.712305e-03
   7720.13    2.830431e-03
   7720.42    2.966910e-03
   7720.71    3.103389e-03
   7721.00    3.239869e-03
   7721.29    3.432378e-03
   7721.58    3.624886e-03
   7721.87    3.817395e-03
   7722.16    4.066814e-03
   7722.44    4.365011e-03
   7722.73    4.663209e-03
   7723.02    4.981340e-03
   7723.31    5.538669e-03
   7723.60    6.095998e-03
   7723.89    6.653327e-03
   7724.18    7.773739e-03
   7724.47    9.246078e-03
   7724.76    1.071842e-02
   7725.04    1.232596e-02
   7725.33    1.471952e-02
   7725.62    1.719757e-02
   7725.91    1.977433e-02
   7726.20    2.248926e-02
   7726.49    2.542221e-02
   7726.78    2.857066e-02
   7727.07    3.203944e-02
   7727.36    3.587636e-02
   7727.64    4.021347e-02
   7727.93    4.518162e-02
   7728.22    5.086668e-02
   7728.51    5.740434e-02
   7728.80    6.460778e-02
   7729.09    7.240082e-02
   7729.38    8.042854e-02
   7729.67    8.849439e-02
   7729.96    9.644574e-02
   7730.24    1.041498e-01
   7730.53    1.113401e-01
   7730.82    1.176922e-01
   7731.11    1.228121e-01
   7731.40    1.263339e-01
   7731.69    1.280454e-01
   7731.98    1.279589e-01
   7732.27    1.262398e-01
   7732.56    1.233010e-01
   7732.84    1.196651e-01
   7733.13    1.157108e-01
   7733.42    1.117452e-01
   7733.71    1.079963e-01
   7734.00    1.046169e-01
   7734.29    1.017549e-01
   7734.58    9.939229e-02
   7734.87    9.752763e-02
   7735.16    9.613641e-02
   7735.44    9.517521e-02
   7735.73    9.458544e-02
   7736.02    9.431232e-02
   7736.31    9.426222e-02
   7736.60    9.434231e-02
   7736.89    9.447961e-02
   7737.18    9.461169e-02
   7737.47    9.469127e-02
   7737.76    9.468784e-02
   7738.04    9.458499e-02
   7738.33    9.440372e-02
   7738.62    9.416873e-02
   7738.91    9.391207e-02
   7739.20    9.366808e-02
   7739.49    9.346901e-02
   7739.78    9.334951e-02
   7740.07    9.335899e-02
   7740.36    9.354583e-02
   7740.64    9.373267e-02
   7740.93    9.391952e-02
   7741.22    9.435247e-02
   7741.51    9.485926e-02
   7741.80    9.536605e-02
   7742.09    9.590750e-02
   7742.38    9.652697e-02
   7742.67    9.714643e-02
   7742.96    9.776590e-02
   7743.24    9.826006e-02
   7743.53    9.873143e-02
   7743.82    9.920281e-02
   7744.11    9.954496e-02
   7744.40    9.968036e-02
   7744.69    9.981576e-02
   7744.98    9.995116e-02
   7745.27    9.972721e-02
   7745.56    9.947330e-02
   7745.84    9.921940e-02
   7746.13    9.881397e-02
   7746.42    9.823174e-02
   7746.71    9.764952e-02
   7747.00    9.706729e-02
   7747.29    9.628302e-02
   7747.58    9.549875e-02
   7747.87    9.471447e-02
   7748.16    9.389880e-02
   7748.44    9.305622e-02
   7748.73    9.221364e-02
   7749.02    9.137459e-02
   7749.31    9.057792e-02
   7749.60    8.978125e-02
   7749.89    8.898458e-02
   7750.18    8.825245e-02
   7750.47    8.756067e-02
   7750.76    8.686889e-02
   7751.04    8.619641e-02
   7751.33    8.563008e-02
   7751.62    8.506375e-02
   7751.91    8.449742e-02
   7752.20    8.400986e-02
   7752.49    8.355731e-02
   7752.78    8.310476e-02
   7753.07    8.267128e-02
   7753.36    8.230141e-02
   7753.64    8.193154e-02
   7753.93    8.156167e-02
   7754.22    8.122692e-02
   7754.51    8.090270e-02
   7754.80    8.057848e-02
   7755.09    8.025821e-02
   7755.38    7.994681e-02
   7755.67    7.963541e-02
   7755.96    7.932401e-02
   7756.24    7.900520e-02
   7756.53    7.868503e-02
   7756.82    7.836487e-02
   7757.11    7.803958e-02
   7757.40    7.770610e-02
   7757.69    7.737262e-02
   7757.98    7.703914e-02
   7758.27    7.671031e-02
   7758.56    7.638185e-02
   7758.84    7.605340e-02
   7759.13    7.574658e-02
   7759.42    7.546500e-02
   7759.71    7.518343e-02
   7760.00    7.490185e-02
