 FDMNES
  energy    <xanes>
   7695.00    5.337663e-04
   7695.29    5.394247e-04
   7695.58    5.450831e-04
   7695.87    5.507415e-04
   7696.16    5.566110e-04
   7696.44    5.626614e-04
   7696.73    5.687119e-04
   7697.02    5.747956e-04
   7697.31    5.812791e-04
   7697.60    5.877625e-04
   7697.89    5.942460e-04
   7698.18    6.010248e-04
   7698.47    6.079882e-04
   7698.76    6.149515e-04
   7699.04    6.219970e-04
   7699.33    6.294941e-04
   7699.62    6.369912e-04
   7699.91    6.444882e-04
   7700.20    6.523977e-04
   7700.49    6.604905e-04
   7700.78    6.685833e-04
   7701.07    6.768302e-04
   7701.36    6.855906e-04
   7701.64    6.943510e-04
   7701.93    7.031115e-04
   7702.22    7.124499e-04
   7702.51    7.219617e-04
   7702.80    7.314735e-04
   7703.09    7.412467e-04
   7703.38    7.516082e-04
   7703.67    7.619696e-04
   7703.96    7.723310e-04
   7704.24    7.835094e-04
   7704.53    7.948363e-04
   7704.82    8.061633e-04
   7705.11    8.179145e-04
   7705.40    8.303447e-04
   7705.69    8.427748e-04
   7705.98    8.552049e-04
   7706.27    8.688056e-04
   7706.56    8.825039e-04
   7706.84    8.962021e-04
   7707.13    9.105775e-04
   7707.42    9.257430e-04
   7707.71    9.409084e-04
   7708.00    9.560738e-04
   7708.29    9.729491e-04
   7708.58    9.898243e-04
   7708.87    1.006700e-03
   7709.16    1.024656e-03
   7709.44    1.043540e-03
   7709.73    1.062424e-03
   7710.02    1.081491e-03
   7710.31    1.102755e-03
   7710.60    1.124019e-03
   7710.89    1.145283e-03
   7711.18    1.168301e-03
   7711.47    1.192415e-03
   7711.76    1.216529e-03
   7712.04    1.241174e-03
   7712.33    1.268739e-03
   7712.62    1.296303e-03
   7712.91    1.323868e-03
   7713.20    1.354363e-03
   7713.49    1.386160e-03
   7713.78    1.417957e-03
   7714.07    1.450970e-03
   7714.36    1.488036e-03
   7714.64    1.525103e-03
   7714.93    1.562170e-03
   7715.22    1.604374e-03
   7715.51    1.648120e-03
   7715.80    1.691865e-03
   7716.09    1.738270e-03
   7716.38    1.790659e-03
   7716.67    1.843048e-03
   7716.96    1.895436e-03
   7717.24    1.957538e-03
   7717.53    2.021405e-03
   7717.82    2.085272e-03
   7718.11    2.155194e-03
   7718.40    2.234803e-03
   7718.69    2.314413e-03
   7718.98    2.394022e-03
   7719.27    2.494419e-03
   7719.56    2.596548e-03
   7719.84    2.698677e-03
   7720.13    2.816560e-03
   7720.42    2.952823e-03
   7720.71    3.089087e-03
   7721.00    3.225351e-03
   7721.29    3.417990e-03
   7721.58    3.610629e-03
   7721.87    3.803269e-03
   7722.16    4.053675e-03
   7722.44    4.353595e-03
   7722.73    4.653516e-03
   7723.02    4.973998e-03
   7723.31    5.541222e-03
   7723.60    6.108447e-03
   7723.89    6.675671e-03
   7724.18    7.835703e-03
   7724.47    9.366239e-03
   7724.76    1.089678e-02
   7725.04    1.257036e-02
   7725.33    1.507123e-02
   7725.62    1.762742e-02
   7725.91    2.017741e-02
   7726.20    2.271871e-02
   7726.49    2.530965e-02
   7726.78    2.806210e-02
   7727.07    3.119149e-02
   7727.36    3.482201e-02
   7727.64    3.912438e-02
   7727.93    4.419348e-02
   7728.22    5.001433e-02
   7728.51    5.659693e-02
   7728.80    6.368411e-02
   7729.09    7.114813e-02
   7729.38    7.874105e-02
   7729.67    8.639734e-02
   7729.96    9.410630e-02
   7730.24    1.018007e-01
   7730.53    1.091389e-01
   7730.82    1.155971e-01
   7731.11    1.206177e-01
   7731.40    1.237825e-01
   7731.69    1.249787e-01
   7731.98    1.244290e-01
   7732.27    1.225417e-01
   7732.56    1.198700e-01
   7732.84    1.168943e-01
   7733.13    1.138970e-01
   7733.42    1.110622e-01
   7733.71    1.085016e-01
   7734.00    1.062773e-01
   7734.29    1.044577e-01
   7734.58    1.029945e-01
   7734.87    1.018629e-01
   7735.16    1.010265e-01
   7735.44    1.004412e-01
   7735.73    1.000584e-01
   7736.02    9.983351e-02
   7736.31    9.970476e-02
   7736.60    9.961502e-02
   7736.89    9.951901e-02
   7737.18    9.937911e-02
   7737.47    9.916851e-02
   7737.76    9.887218e-02
   7738.04    9.848527e-02
   7738.33    9.803343e-02
   7738.62    9.754278e-02
   7738.91    9.704465e-02
   7739.20    9.657132e-02
   7739.49    9.615229e-02
   7739.78    9.581954e-02
   7740.07    9.561878e-02
   7740.36    9.559561e-02
   7740.64    9.557244e-02
   7740.93    9.554927e-02
   7741.22    9.576927e-02
   7741.51    9.606221e-02
   7741.80    9.635515e-02
   7742.09    9.668625e-02
   7742.38    9.710317e-02
   7742.67    9.752010e-02
   7742.96    9.793703e-02
   7743.24    9.826172e-02
   7743.53    9.856964e-02
   7743.82    9.887756e-02
   7744.11    9.907785e-02
   7744.40    9.910594e-02
   7744.69    9.913402e-02
   7744.98    9.916211e-02
   7745.27    9.888354e-02
   7745.56    9.857941e-02
   7745.84    9.827528e-02
   7746.13    9.784317e-02
   7746.42    9.726174e-02
   7746.71    9.668031e-02
   7747.00    9.609888e-02
   7747.29    9.534835e-02
   7747.58    9.459782e-02
   7747.87    9.384730e-02
   7748.16    9.306666e-02
   7748.44    9.226022e-02
   7748.73    9.145378e-02
   7749.02    9.064995e-02
   7749.31    8.987750e-02
   7749.60    8.910504e-02
   7749.89    8.833258e-02
   7750.18    8.761465e-02
   7750.47    8.693081e-02
   7750.76    8.624696e-02
   7751.04    8.557966e-02
   7751.33    8.500331e-02
   7751.62    8.442696e-02
   7751.91    8.385062e-02
   7752.20    8.334198e-02
   7752.49    8.286342e-02
   7752.78    8.238487e-02
   7753.07    8.192258e-02
   7753.36    8.151445e-02
   7753.64    8.110633e-02
   7753.93    8.069821e-02
   7754.22    8.031838e-02
   7754.51    7.994704e-02
   7754.80    7.957570e-02
   7755.09    7.920626e-02
   7755.38    7.884109e-02
   7755.67    7.847592e-02
   7755.96    7.811075e-02
   7756.24    7.773374e-02
   7756.53    7.735458e-02
   7756.82    7.697542e-02
   7757.11    7.658987e-02
   7757.40    7.619411e-02
   7757.69    7.579834e-02
   7757.98    7.540258e-02
   7758.27    7.501260e-02
   7758.56    7.462310e-02
   7758.84    7.423360e-02
   7759.13    7.386998e-02
   7759.42    7.353655e-02
   7759.71    7.320312e-02
   7760.00    7.286968e-02
