 FDMNES
  energy    <xanes>
   7695.00    5.186663e-04
   7695.29    5.242643e-04
   7695.58    5.298623e-04
   7695.87    5.354604e-04
   7696.16    5.412692e-04
   7696.44    5.472586e-04
   7696.73    5.532481e-04
   7697.02    5.592708e-04
   7697.31    5.656929e-04
   7697.60    5.721150e-04
   7697.89    5.785370e-04
   7698.18    5.852543e-04
   7698.47    5.921560e-04
   7698.76    5.990577e-04
   7699.04    6.060415e-04
   7699.33    6.134770e-04
   7699.62    6.209124e-04
   7699.91    6.283478e-04
   7700.20    6.361958e-04
   7700.49    6.442272e-04
   7700.78    6.522586e-04
   7701.07    6.604442e-04
   7701.36    6.691439e-04
   7701.64    6.778436e-04
   7701.93    6.865432e-04
   7702.22    6.958218e-04
   7702.51    7.052739e-04
   7702.80    7.147261e-04
   7703.09    7.244403e-04
   7703.38    7.347438e-04
   7703.67    7.450473e-04
   7703.96    7.553508e-04
   7704.24    7.664734e-04
   7704.53    7.777449e-04
   7704.82    7.890164e-04
   7705.11    8.007136e-04
   7705.40    8.130918e-04
   7705.69    8.254700e-04
   7705.98    8.378482e-04
   7706.27    8.514014e-04
   7706.56    8.650524e-04
   7706.84    8.787035e-04
   7707.13    8.930347e-04
   7707.42    9.081593e-04
   7707.71    9.232840e-04
   7708.00    9.384087e-04
   7708.29    9.552518e-04
   7708.58    9.720948e-04
   7708.87    9.889379e-04
   7709.16    1.006869e-03
   7709.44    1.025732e-03
   7709.73    1.044595e-03
   7710.02    1.063642e-03
   7710.31    1.084901e-03
   7710.60    1.106161e-03
   7710.89    1.127420e-03
   7711.18    1.150445e-03
   7711.47    1.174575e-03
   7711.76    1.198705e-03
   7712.04    1.223370e-03
   7712.33    1.250979e-03
   7712.62    1.278588e-03
   7712.91    1.306196e-03
   7713.20    1.336762e-03
   7713.49    1.368643e-03
   7713.78    1.400523e-03
   7714.07    1.433632e-03
   7714.36    1.470837e-03
   7714.64    1.508043e-03
   7714.93    1.545248e-03
   7715.22    1.587651e-03
   7715.51    1.631613e-03
   7715.80    1.675575e-03
   7716.09    1.722232e-03
   7716.38    1.774953e-03
   7716.67    1.827674e-03
   7716.96    1.880395e-03
   7717.24    1.942976e-03
   7717.53    2.007350e-03
   7717.82    2.071724e-03
   7718.11    2.142259e-03
   7718.40    2.222652e-03
   7718.69    2.303044e-03
   7718.98    2.383437e-03
   7719.27    2.485044e-03
   7719.56    2.588419e-03
   7719.84    2.691795e-03
   7720.13    2.811312e-03
   7720.42    2.949662e-03
   7720.71    3.088012e-03
   7721.00    3.226362e-03
   7721.29    3.422811e-03
   7721.58    3.619260e-03
   7721.87    3.815710e-03
   7722.16    4.072267e-03
   7722.44    4.380345e-03
   7722.73    4.688424e-03
   7723.02    5.018297e-03
   7723.31    5.609698e-03
   7723.60    6.201100e-03
   7723.89    6.792502e-03
   7724.18    8.021081e-03
   7724.47    9.647896e-03
   7724.76    1.127471e-02
   7725.04    1.304193e-02
   7725.33    1.557170e-02
   7725.62    1.799381e-02
   7725.91    2.029543e-02
   7726.20    2.264522e-02
   7726.49    2.529171e-02
   7726.78    2.834044e-02
   7727.07    3.198577e-02
   7727.36    3.624398e-02
   7727.64    4.120160e-02
   7727.93    4.685986e-02
   7728.22    5.310019e-02
   7728.51    5.982169e-02
   7728.80    6.682530e-02
   7729.09    7.412458e-02
   7729.38    8.165107e-02
   7729.67    8.929101e-02
   7729.96    9.670106e-02
   7730.24    1.034243e-01
   7730.53    1.089527e-01
   7730.82    1.131817e-01
   7731.11    1.161645e-01
   7731.40    1.180143e-01
   7731.69    1.188415e-01
   7731.98    1.187343e-01
   7732.27    1.177520e-01
   7732.56    1.160443e-01
   7732.84    1.138563e-01
   7733.13    1.114004e-01
   7733.42    1.088870e-01
   7733.71    1.064987e-01
   7734.00    1.043728e-01
   7734.29    1.026453e-01
   7734.58    1.013192e-01
   7734.87    1.004014e-01
   7735.16    9.987474e-02
   7735.44    9.970281e-02
   7735.73    9.983322e-02
   7736.02    1.002112e-01
   7736.31    1.007447e-01
   7736.60    1.013395e-01
   7736.89    1.019132e-01
   7737.18    1.023906e-01
   7737.47    1.027104e-01
   7737.76    1.028277e-01
   7738.04    1.027079e-01
   7738.33    1.023855e-01
   7738.62    1.018938e-01
   7738.91    1.012793e-01
   7739.20    1.005940e-01
   7739.49    9.988905e-02
   7739.78    9.921373e-02
   7740.07    9.863675e-02
   7740.36    9.822365e-02
   7740.64    9.781055e-02
   7740.93    9.739746e-02
   7741.22    9.728552e-02
   7741.51    9.726392e-02
   7741.80    9.724232e-02
   7742.09    9.730518e-02
   7742.38    9.755807e-02
   7742.67    9.781096e-02
   7742.96    9.806384e-02
   7743.24    9.834916e-02
   7743.53    9.864038e-02
   7743.82    9.893159e-02
   7744.11    9.913763e-02
   7744.40    9.920741e-02
   7744.69    9.927718e-02
   7744.98    9.934695e-02
   7745.27    9.905918e-02
   7745.56    9.874161e-02
   7745.84    9.842405e-02
   7746.13    9.793775e-02
   7746.42    9.725462e-02
   7746.71    9.657148e-02
   7747.00    9.588834e-02
   7747.29    9.500771e-02
   7747.58    9.412707e-02
   7747.87    9.324643e-02
   7748.16    9.236291e-02
   7748.44    9.147691e-02
   7748.73    9.059091e-02
   7749.02    8.971380e-02
   7749.31    8.894334e-02
   7749.60    8.817289e-02
   7749.89    8.740243e-02
   7750.18    8.672206e-02
   7750.47    8.609799e-02
   7750.76    8.547392e-02
   7751.04    8.486780e-02
   7751.33    8.436044e-02
   7751.62    8.385307e-02
   7751.91    8.334571e-02
   7752.20    8.288169e-02
   7752.49    8.243694e-02
   7752.78    8.199218e-02
   7753.07    8.154939e-02
   7753.36    8.111314e-02
   7753.64    8.067690e-02
   7753.93    8.024065e-02
   7754.22    7.977869e-02
   7754.51    7.930902e-02
   7754.80    7.883935e-02
   7755.09    7.835207e-02
   7755.38    7.782517e-02
   7755.67    7.729828e-02
   7755.96    7.677139e-02
   7756.24    7.619502e-02
   7756.53    7.560965e-02
   7756.82    7.502429e-02
   7757.11    7.442623e-02
   7757.40    7.380787e-02
   7757.69    7.318950e-02
   7757.98    7.257114e-02
   7758.27    7.197294e-02
   7758.56    7.137643e-02
   7758.84    7.077992e-02
   7759.13    7.022913e-02
   7759.42    6.973168e-02
   7759.71    6.923422e-02
   7760.00    6.873677e-02
