 FDMNES
  energy    <xanes>
   7695.00    5.360101e-04
   7695.29    5.416273e-04
   7695.58    5.472444e-04
   7695.87    5.528616e-04
   7696.16    5.586865e-04
   7696.44    5.646895e-04
   7696.73    5.706924e-04
   7697.02    5.767282e-04
   7697.31    5.831572e-04
   7697.60    5.895862e-04
   7697.89    5.960152e-04
   7698.18    6.027345e-04
   7698.47    6.096354e-04
   7698.76    6.165362e-04
   7699.04    6.235178e-04
   7699.33    6.309431e-04
   7699.62    6.383685e-04
   7699.91    6.457938e-04
   7700.20    6.536242e-04
   7700.49    6.616347e-04
   7700.78    6.696452e-04
   7701.07    6.778069e-04
   7701.36    6.864728e-04
   7701.64    6.951387e-04
   7701.93    7.038047e-04
   7702.22    7.130378e-04
   7702.51    7.224410e-04
   7702.80    7.318443e-04
   7703.09    7.415040e-04
   7703.38    7.517406e-04
   7703.67    7.619772e-04
   7703.96    7.722138e-04
   7704.24    7.832514e-04
   7704.53    7.944346e-04
   7704.82    8.056179e-04
   7705.11    8.172170e-04
   7705.40    8.294815e-04
   7705.69    8.417460e-04
   7705.98    8.540105e-04
   7706.27    8.674219e-04
   7706.56    8.809289e-04
   7706.84    8.944359e-04
   7707.13    9.086063e-04
   7707.42    9.235505e-04
   7707.71    9.384947e-04
   7708.00    9.534390e-04
   7708.29    9.700579e-04
   7708.58    9.866768e-04
   7708.87    1.003296e-03
   7709.16    1.020974e-03
   7709.44    1.039560e-03
   7709.73    1.058146e-03
   7710.02    1.076912e-03
   7710.31    1.097830e-03
   7710.60    1.118749e-03
   7710.89    1.139667e-03
   7711.18    1.162304e-03
   7711.47    1.186015e-03
   7711.76    1.209727e-03
   7712.04    1.233958e-03
   7712.33    1.261054e-03
   7712.62    1.288149e-03
   7712.91    1.315244e-03
   7713.20    1.345216e-03
   7713.49    1.376467e-03
   7713.78    1.407717e-03
   7714.07    1.440164e-03
   7714.36    1.476596e-03
   7714.64    1.513029e-03
   7714.93    1.549462e-03
   7715.22    1.590957e-03
   7715.51    1.633972e-03
   7715.80    1.676987e-03
   7716.09    1.722632e-03
   7716.38    1.774193e-03
   7716.67    1.825755e-03
   7716.96    1.877317e-03
   7717.24    1.938526e-03
   7717.53    2.001490e-03
   7717.82    2.064453e-03
   7718.11    2.133472e-03
   7718.40    2.212177e-03
   7718.69    2.290883e-03
   7718.98    2.369588e-03
   7719.27    2.469282e-03
   7719.56    2.570725e-03
   7719.84    2.672168e-03
   7720.13    2.789751e-03
   7720.42    2.926163e-03
   7720.71    3.062576e-03
   7721.00    3.198988e-03
   7721.29    3.394479e-03
   7721.58    3.589969e-03
   7721.87    3.785460e-03
   7722.16    4.043765e-03
   7722.44    4.355911e-03
   7722.73    4.668057e-03
   7723.02    5.003963e-03
   7723.31    5.624975e-03
   7723.60    6.245988e-03
   7723.89    6.867000e-03
   7724.18    8.218455e-03
   7724.47    1.002644e-02
   7724.76    1.183442e-02
   7725.04    1.381053e-02
   7725.33    1.669987e-02
   7725.62    1.939816e-02
   7725.91    2.168262e-02
   7726.20    2.366137e-02
   7726.49    2.559248e-02
   7726.78    2.778497e-02
   7727.07    3.049129e-02
   7727.36    3.375855e-02
   7727.64    3.769768e-02
   7727.93    4.239567e-02
   7728.22    4.790302e-02
   7728.51    5.438716e-02
   7728.80    6.171358e-02
   7729.09    6.994802e-02
   7729.38    7.865713e-02
   7729.67    8.740168e-02
   7729.96    9.554589e-02
   7730.24    1.023778e-01
   7730.53    1.071294e-01
   7730.82    1.097468e-01
   7731.11    1.105269e-01
   7731.40    1.099768e-01
   7731.69    1.086408e-01
   7731.98    1.069611e-01
   7732.27    1.052346e-01
   7732.56    1.036301e-01
   7732.84    1.022005e-01
   7733.13    1.009600e-01
   7733.42    9.990822e-02
   7733.71    9.904150e-02
   7734.00    9.835805e-02
   7734.29    9.788034e-02
   7734.58    9.758726e-02
   7734.87    9.747627e-02
   7735.16    9.753942e-02
   7735.44    9.776169e-02
   7735.73    9.811972e-02
   7736.02    9.858523e-02
   7736.31    9.910808e-02
   7736.60    9.963423e-02
   7736.89    1.001130e-01
   7737.18    1.004973e-01
   7737.47    1.007494e-01
   7737.76    1.008432e-01
   7738.04    1.007597e-01
   7738.33    1.005308e-01
   7738.62    1.001857e-01
   7738.91    9.976294e-02
   7739.20    9.930515e-02
   7739.49    9.885391e-02
   7739.78    9.845194e-02
   7740.07    9.816155e-02
   7740.36    9.804406e-02
   7740.64    9.792658e-02
   7740.93    9.780909e-02
   7741.22    9.798428e-02
   7741.51    9.824728e-02
   7741.80    9.851027e-02
   7742.09    9.884325e-02
   7742.38    9.933369e-02
   7742.67    9.982414e-02
   7742.96    1.003146e-01
   7743.24    1.007829e-01
   7743.53    1.012473e-01
   7743.82    1.017116e-01
   7744.11    1.020745e-01
   7744.40    1.022750e-01
   7744.69    1.024756e-01
   7744.98    1.026761e-01
   7745.27    1.025151e-01
   7745.56    1.023240e-01
   7745.84    1.021329e-01
   7746.13    1.017714e-01
   7746.42    1.012111e-01
   7746.71    1.006508e-01
   7747.00    1.000906e-01
   7747.29    9.929199e-02
   7747.58    9.849341e-02
   7747.87    9.769484e-02
   7748.16    9.685651e-02
   7748.44    9.598410e-02
   7748.73    9.511170e-02
   7749.02    9.424400e-02
   7749.31    9.343273e-02
   7749.60    9.262146e-02
   7749.89    9.181019e-02
   7750.18    9.107321e-02
   7750.47    9.038266e-02
   7750.76    8.969212e-02
   7751.04    8.902026e-02
   7751.33    8.845122e-02
   7751.62    8.788217e-02
   7751.91    8.731313e-02
   7752.20    8.680865e-02
   7752.49    8.633287e-02
   7752.78    8.585709e-02
   7753.07    8.539386e-02
   7753.36    8.497248e-02
   7753.64    8.455109e-02
   7753.93    8.412971e-02
   7754.22    8.372100e-02
   7754.51    8.331608e-02
   7754.80    8.291117e-02
   7755.09    8.250215e-02
   7755.38    8.208392e-02
   7755.67    8.166568e-02
   7755.96    8.124744e-02
   7756.24    8.080418e-02
   7756.53    8.035637e-02
   7756.82    7.990857e-02
   7757.11    7.945076e-02
   7757.40    7.897695e-02
   7757.69    7.850313e-02
   7757.98    7.802932e-02
   7758.27    7.756074e-02
   7758.56    7.709260e-02
   7758.84    7.662445e-02
   7759.13    7.618749e-02
   7759.42    7.578689e-02
   7759.71    7.538629e-02
   7760.00    7.498569e-02
