 FDMNES
  energy    <xanes>
   7695.00    5.421612e-04
   7695.29    5.479295e-04
   7695.58    5.536977e-04
   7695.87    5.594659e-04
   7696.16    5.654515e-04
   7696.44    5.716234e-04
   7696.73    5.777953e-04
   7697.02    5.840016e-04
   7697.31    5.906199e-04
   7697.60    5.972383e-04
   7697.89    6.038566e-04
   7698.18    6.107798e-04
   7698.47    6.178936e-04
   7698.76    6.250074e-04
   7699.04    6.322060e-04
   7699.33    6.398715e-04
   7699.62    6.475370e-04
   7699.91    6.552025e-04
   7700.20    6.632949e-04
   7700.49    6.715772e-04
   7700.78    6.798594e-04
   7701.07    6.883014e-04
   7701.36    6.972759e-04
   7701.64    7.062505e-04
   7701.93    7.152250e-04
   7702.22    7.247999e-04
   7702.51    7.345549e-04
   7702.80    7.443099e-04
   7703.09    7.543370e-04
   7703.38    7.649761e-04
   7703.67    7.756153e-04
   7703.96    7.862544e-04
   7704.24    7.977454e-04
   7704.53    8.093913e-04
   7704.82    8.210372e-04
   7705.11    8.331264e-04
   7705.40    8.459250e-04
   7705.69    8.587237e-04
   7705.98    8.715223e-04
   7706.27    8.855468e-04
   7706.56    8.996735e-04
   7706.84    9.138001e-04
   7707.13    9.286377e-04
   7707.42    9.443047e-04
   7707.71    9.599717e-04
   7708.00    9.756386e-04
   7708.29    9.931053e-04
   7708.58    1.010572e-03
   7708.87    1.028039e-03
   7709.16    1.046647e-03
   7709.44    1.066234e-03
   7709.73    1.085821e-03
   7710.02    1.105602e-03
   7710.31    1.127709e-03
   7710.60    1.149816e-03
   7710.89    1.171924e-03
   7711.18    1.195894e-03
   7711.47    1.221028e-03
   7711.76    1.246163e-03
   7712.04    1.271864e-03
   7712.33    1.300676e-03
   7712.62    1.329489e-03
   7712.91    1.358302e-03
   7713.20    1.390249e-03
   7713.49    1.423591e-03
   7713.78    1.456932e-03
   7714.07    1.491579e-03
   7714.36    1.530581e-03
   7714.64    1.569584e-03
   7714.93    1.608586e-03
   7715.22    1.653129e-03
   7715.51    1.699335e-03
   7715.80    1.745541e-03
   7716.09    1.794628e-03
   7716.38    1.850197e-03
   7716.67    1.905766e-03
   7716.96    1.961335e-03
   7717.24    2.027470e-03
   7717.53    2.095525e-03
   7717.82    2.163581e-03
   7718.11    2.238249e-03
   7718.40    2.323497e-03
   7718.69    2.408745e-03
   7718.98    2.493993e-03
   7719.27    2.602011e-03
   7719.56    2.711926e-03
   7719.84    2.821842e-03
   7720.13    2.949031e-03
   7720.42    3.096373e-03
   7720.71    3.243715e-03
   7721.00    3.391057e-03
   7721.29    3.599998e-03
   7721.58    3.808939e-03
   7721.87    4.017880e-03
   7722.16    4.289130e-03
   7722.44    4.613788e-03
   7722.73    4.938446e-03
   7723.02    5.284588e-03
   7723.31    5.888534e-03
   7723.60    6.492480e-03
   7723.89    7.096425e-03
   7724.18    8.294345e-03
   7724.47    9.863499e-03
   7724.76    1.143265e-02
   7725.04    1.314828e-02
   7725.33    1.573037e-02
   7725.62    1.845115e-02
   7725.91    2.133615e-02
   7726.20    2.445342e-02
   7726.49    2.800846e-02
   7726.78    3.204546e-02
   7727.07    3.678258e-02
   7727.36    4.222921e-02
   7727.64    4.839705e-02
   7727.93    5.510731e-02
   7728.22    6.206427e-02
   7728.51    6.908614e-02
   7728.80    7.617962e-02
   7729.09    8.360551e-02
   7729.38    9.148515e-02
   7729.67    9.989467e-02
   7729.96    1.085384e-01
   7730.24    1.169422e-01
   7730.53    1.243267e-01
   7730.82    1.300455e-01
   7731.11    1.336424e-01
   7731.40    1.349281e-01
   7731.69    1.340252e-01
   7731.98    1.313079e-01
   7732.27    1.272474e-01
   7732.56    1.224313e-01
   7732.84    1.173820e-01
   7733.13    1.124347e-01
   7733.42    1.078248e-01
   7733.71    1.037041e-01
   7734.00    1.001564e-01
   7734.29    9.728174e-02
   7734.58    9.499347e-02
   7734.87    9.325407e-02
   7735.16    9.201344e-02
   7735.44    9.121345e-02
   7735.73    9.079018e-02
   7736.02    9.069112e-02
   7736.31    9.082852e-02
   7736.60    9.111436e-02
   7736.89    9.147820e-02
   7737.18    9.185581e-02
   7737.47    9.219333e-02
   7737.76    9.244910e-02
   7738.04    9.258990e-02
   7738.33    9.262205e-02
   7738.62    9.255693e-02
   7738.91    9.241594e-02
   7739.20    9.222596e-02
   7739.49    9.201491e-02
   7739.78    9.181019e-02
   7740.07    9.164864e-02
   7740.36    9.156346e-02
   7740.64    9.147828e-02
   7740.93    9.139310e-02
   7741.22    9.144207e-02
   7741.51    9.153128e-02
   7741.80    9.162049e-02
   7742.09    9.173933e-02
   7742.38    9.192482e-02
   7742.67    9.211031e-02
   7742.96    9.229580e-02
   7743.24    9.246742e-02
   7743.53    9.263652e-02
   7743.82    9.280561e-02
   7744.11    9.293027e-02
   7744.40    9.298380e-02
   7744.69    9.303734e-02
   7744.98    9.309088e-02
   7745.27    9.297930e-02
   7745.56    9.285396e-02
   7745.84    9.272861e-02
   7746.13    9.251514e-02
   7746.42    9.219884e-02
   7746.71    9.188254e-02
   7747.00    9.156624e-02
   7747.29    9.109918e-02
   7747.58    9.063212e-02
   7747.87    9.016506e-02
   7748.16    8.965626e-02
   7748.44    8.911169e-02
   7748.73    8.856711e-02
   7749.02    8.802187e-02
   7749.31    8.746856e-02
   7749.60    8.691526e-02
   7749.89    8.636195e-02
   7750.18    8.583326e-02
   7750.47    8.531994e-02
   7750.76    8.480663e-02
   7751.04    8.430294e-02
   7751.33    8.385216e-02
   7751.62    8.340139e-02
   7751.91    8.295061e-02
   7752.20    8.254186e-02
   7752.49    8.215179e-02
   7752.78    8.176171e-02
   7753.07    8.138193e-02
   7753.36    8.103642e-02
   7753.64    8.069091e-02
   7753.93    8.034541e-02
   7754.22    8.001906e-02
   7754.51    7.969846e-02
   7754.80    7.937786e-02
   7755.09    7.906022e-02
   7755.38    7.874924e-02
   7755.67    7.843827e-02
   7755.96    7.812729e-02
   7756.24    7.781897e-02
   7756.53    7.751113e-02
   7756.82    7.720329e-02
   7757.11    7.689816e-02
   7757.40    7.659736e-02
   7757.69    7.629656e-02
   7757.98    7.599576e-02
   7758.27    7.571561e-02
   7758.56    7.543719e-02
   7758.84    7.515876e-02
   7759.13    7.490297e-02
   7759.42    7.467359e-02
   7759.71    7.444421e-02
   7760.00    7.421483e-02
