 FDMNES
  energy    <xanes>
   7695.00    5.320079e-04
   7695.29    5.378376e-04
   7695.58    5.436673e-04
   7695.87    5.494971e-04
   7696.16    5.555507e-04
   7696.44    5.617963e-04
   7696.73    5.680419e-04
   7697.02    5.743229e-04
   7697.31    5.810290e-04
   7697.60    5.877351e-04
   7697.89    5.944412e-04
   7698.18    6.014621e-04
   7698.47    6.086799e-04
   7698.76    6.158977e-04
   7699.04    6.232032e-04
   7699.33    6.309915e-04
   7699.62    6.387799e-04
   7699.91    6.465682e-04
   7700.20    6.547988e-04
   7700.49    6.632258e-04
   7700.78    6.716529e-04
   7701.07    6.802457e-04
   7701.36    6.893907e-04
   7701.64    6.985357e-04
   7701.93    7.076808e-04
   7702.22    7.174494e-04
   7702.51    7.274051e-04
   7702.80    7.373608e-04
   7703.09    7.475995e-04
   7703.38    7.584749e-04
   7703.67    7.693503e-04
   7703.96    7.802257e-04
   7704.24    7.919887e-04
   7704.53    8.039130e-04
   7704.82    8.158374e-04
   7705.11    8.282245e-04
   7705.40    8.413520e-04
   7705.69    8.544794e-04
   7705.98    8.676069e-04
   7706.27    8.820161e-04
   7706.56    8.965321e-04
   7706.84    9.110481e-04
   7707.13    9.263087e-04
   7707.42    9.424382e-04
   7707.71    9.585677e-04
   7708.00    9.746972e-04
   7708.29    9.927156e-04
   7708.58    1.010734e-03
   7708.87    1.028753e-03
   7709.16    1.047972e-03
   7709.44    1.068220e-03
   7709.73    1.088469e-03
   7710.02    1.108922e-03
   7710.31    1.131827e-03
   7710.60    1.154733e-03
   7710.89    1.177639e-03
   7711.18    1.202513e-03
   7711.47    1.228618e-03
   7711.76    1.254723e-03
   7712.04    1.281428e-03
   7712.33    1.311431e-03
   7712.62    1.341433e-03
   7712.91    1.371436e-03
   7713.20    1.404772e-03
   7713.49    1.439588e-03
   7713.78    1.474405e-03
   7714.07    1.510615e-03
   7714.36    1.551469e-03
   7714.64    1.592324e-03
   7714.93    1.633179e-03
   7715.22    1.679967e-03
   7715.51    1.728536e-03
   7715.80    1.777105e-03
   7716.09    1.828774e-03
   7716.38    1.887416e-03
   7716.67    1.946059e-03
   7716.96    2.004701e-03
   7717.24    2.074775e-03
   7717.53    2.146927e-03
   7717.82    2.219079e-03
   7718.11    2.298436e-03
   7718.40    2.389321e-03
   7718.69    2.480206e-03
   7718.98    2.571092e-03
   7719.27    2.687017e-03
   7719.56    2.805028e-03
   7719.84    2.923040e-03
   7720.13    3.060289e-03
   7720.42    3.219982e-03
   7720.71    3.379675e-03
   7721.00    3.539368e-03
   7721.29    3.768945e-03
   7721.58    3.998522e-03
   7721.87    4.228100e-03
   7722.16    4.530473e-03
   7722.44    4.895242e-03
   7722.73    5.260012e-03
   7723.02    5.651149e-03
   7723.31    6.358708e-03
   7723.60    7.066266e-03
   7723.89    7.773824e-03
   7724.18    9.246839e-03
   7724.47    1.119827e-02
   7724.76    1.314969e-02
   7725.04    1.527689e-02
   7725.33    1.839526e-02
   7725.62    2.151989e-02
   7725.91    2.466862e-02
   7726.20    2.796452e-02
   7726.49    3.161448e-02
   7726.78    3.567957e-02
   7727.07    4.034977e-02
   7727.36    4.562759e-02
   7727.64    5.154093e-02
   7727.93    5.802643e-02
   7728.22    6.502808e-02
   7728.51    7.271434e-02
   7728.80    8.114191e-02
   7729.09    9.058597e-02
   7729.38    1.007109e-01
   7729.67    1.110537e-01
   7729.96    1.207410e-01
   7730.24    1.287173e-01
   7730.53    1.337901e-01
   7730.82    1.358174e-01
   7731.11    1.352530e-01
   7731.40    1.328892e-01
   7731.69    1.295435e-01
   7731.98    1.258320e-01
   7732.27    1.221394e-01
   7732.56    1.186754e-01
   7732.84    1.155063e-01
   7733.13    1.126570e-01
   7733.42    1.101288e-01
   7733.71    1.079115e-01
   7734.00    1.059882e-01
   7734.29    1.043681e-01
   7734.58    1.029936e-01
   7734.87    1.018403e-01
   7735.16    1.008820e-01
   7735.44    1.000911e-01
   7735.73    9.943779e-02
   7736.02    9.889560e-02
   7736.31    9.842649e-02
   7736.60    9.799577e-02
   7736.89    9.757831e-02
   7737.18    9.715543e-02
   7737.47    9.671636e-02
   7737.76    9.625865e-02
   7738.04    9.578837e-02
   7738.33    9.532066e-02
   7738.62    9.487198e-02
   7738.91    9.445941e-02
   7739.20    9.409842e-02
   7739.49    9.380110e-02
   7739.78    9.358123e-02
   7740.07    9.345518e-02
   7740.36    9.343805e-02
   7740.64    9.342092e-02
   7740.93    9.340379e-02
   7741.22    9.348111e-02
   7741.51    9.358676e-02
   7741.80    9.369241e-02
   7742.09    9.378155e-02
   7742.38    9.383357e-02
   7742.67    9.388560e-02
   7742.96    9.393762e-02
   7743.24    9.382242e-02
   7743.53    9.367682e-02
   7743.82    9.353121e-02
   7744.11    9.329186e-02
   7744.40    9.290252e-02
   7744.69    9.251317e-02
   7744.98    9.212382e-02
   7745.27    9.154634e-02
   7745.56    9.095318e-02
   7745.84    9.036003e-02
   7746.13    8.971168e-02
   7746.42    8.899896e-02
   7746.71    8.828623e-02
   7747.00    8.757351e-02
   7747.29    8.683508e-02
   7747.58    8.609665e-02
   7747.87    8.535822e-02
   7748.16    8.464970e-02
   7748.44    8.396682e-02
   7748.73    8.328393e-02
   7749.02    8.260943e-02
   7749.31    8.203544e-02
   7749.60    8.146144e-02
   7749.89    8.088745e-02
   7750.18    8.039109e-02
   7750.47    7.994326e-02
   7750.76    7.949542e-02
   7751.04    7.906454e-02
   7751.33    7.872695e-02
   7751.62    7.838936e-02
   7751.91    7.805177e-02
   7752.20    7.776450e-02
   7752.49    7.749960e-02
   7752.78    7.723471e-02
   7753.07    7.697609e-02
   7753.36    7.673839e-02
   7753.64    7.650069e-02
   7753.93    7.626299e-02
   7754.22    7.601391e-02
   7754.51    7.576141e-02
   7754.80    7.550892e-02
   7755.09    7.524269e-02
   7755.38    7.494559e-02
   7755.67    7.464848e-02
   7755.96    7.435138e-02
   7756.24    7.400728e-02
   7756.53    7.365464e-02
   7756.82    7.330201e-02
   7757.11    7.293300e-02
   7757.40    7.253782e-02
   7757.69    7.214263e-02
   7757.98    7.174744e-02
   7758.27    7.134976e-02
   7758.56    7.095187e-02
   7758.84    7.055398e-02
   7759.13    7.018291e-02
   7759.42    6.984311e-02
   7759.71    6.950332e-02
   7760.00    6.916353e-02
