 FDMNES
  energy    <xanes>
   7695.00    5.501849e-04
   7695.29    5.559140e-04
   7695.58    5.616431e-04
   7695.87    5.673722e-04
   7696.16    5.733136e-04
   7696.44    5.794370e-04
   7696.73    5.855604e-04
   7697.02    5.917172e-04
   7697.31    5.982761e-04
   7697.60    6.048350e-04
   7697.89    6.113940e-04
   7698.18    6.182499e-04
   7698.47    6.252915e-04
   7698.76    6.323332e-04
   7699.04    6.394574e-04
   7699.33    6.470359e-04
   7699.62    6.546144e-04
   7699.91    6.621929e-04
   7700.20    6.701864e-04
   7700.49    6.783643e-04
   7700.78    6.865422e-04
   7701.07    6.948752e-04
   7701.36    7.037250e-04
   7701.64    7.125749e-04
   7701.93    7.214247e-04
   7702.22    7.308565e-04
   7702.51    7.404628e-04
   7702.80    7.500691e-04
   7703.09    7.599387e-04
   7703.38    7.704008e-04
   7703.67    7.808629e-04
   7703.96    7.913250e-04
   7704.24    8.026104e-04
   7704.53    8.140455e-04
   7704.82    8.254806e-04
   7705.11    8.373436e-04
   7705.40    8.498912e-04
   7705.69    8.624389e-04
   7705.98    8.749865e-04
   7706.27    8.887155e-04
   7706.56    9.025429e-04
   7706.84    9.163703e-04
   7707.13    9.308818e-04
   7707.42    9.461914e-04
   7707.71    9.615009e-04
   7708.00    9.768105e-04
   7708.29    9.938491e-04
   7708.58    1.010888e-03
   7708.87    1.027926e-03
   7709.16    1.046060e-03
   7709.44    1.065133e-03
   7709.73    1.084205e-03
   7710.02    1.103463e-03
   7710.31    1.124950e-03
   7710.60    1.146436e-03
   7710.89    1.167923e-03
   7711.18    1.191191e-03
   7711.47    1.215573e-03
   7711.76    1.239955e-03
   7712.04    1.264877e-03
   7712.33    1.292771e-03
   7712.62    1.320665e-03
   7712.91    1.348559e-03
   7713.20    1.379443e-03
   7713.49    1.411655e-03
   7713.78    1.443868e-03
   7714.07    1.477325e-03
   7714.36    1.514929e-03
   7714.64    1.552533e-03
   7714.93    1.590137e-03
   7715.22    1.633013e-03
   7715.51    1.677470e-03
   7715.80    1.721928e-03
   7716.09    1.769124e-03
   7716.38    1.822482e-03
   7716.67    1.875840e-03
   7716.96    1.929198e-03
   7717.24    1.992595e-03
   7717.53    2.057818e-03
   7717.82    2.123041e-03
   7718.11    2.194548e-03
   7718.40    2.276111e-03
   7718.69    2.357675e-03
   7718.98    2.439238e-03
   7719.27    2.542471e-03
   7719.56    2.647510e-03
   7719.84    2.752548e-03
   7720.13    2.874076e-03
   7720.42    3.014840e-03
   7720.71    3.155604e-03
   7721.00    3.296368e-03
   7721.29    3.496291e-03
   7721.58    3.696214e-03
   7721.87    3.896136e-03
   7722.16    4.156639e-03
   7722.44    4.469067e-03
   7722.73    4.781495e-03
   7723.02    5.115344e-03
   7723.31    5.706249e-03
   7723.60    6.297154e-03
   7723.89    6.888059e-03
   7724.18    8.085025e-03
   7724.47    9.660778e-03
   7724.76    1.123653e-02
   7725.04    1.295006e-02
   7725.33    1.544278e-02
   7725.62    1.795996e-02
   7725.91    2.055898e-02
   7726.20    2.336503e-02
   7726.49    2.659373e-02
   7726.78    3.027963e-02
   7727.07    3.460747e-02
   7727.36    3.957416e-02
   7727.64    4.522641e-02
   7727.93    5.151768e-02
   7728.22    5.832542e-02
   7728.51    6.559706e-02
   7728.80    7.319276e-02
   7729.09    8.114546e-02
   7729.38    8.933756e-02
   7729.67    9.755797e-02
   7729.96    1.052357e-01
   7730.24    1.114144e-01
   7730.53    1.148621e-01
   7730.82    1.154979e-01
   7731.11    1.140785e-01
   7731.40    1.117220e-01
   7731.69    1.093599e-01
   7731.98    1.074726e-01
   7732.27    1.061642e-01
   7732.56    1.052661e-01
   7732.84    1.045262e-01
   7733.13    1.037654e-01
   7733.42    1.028697e-01
   7733.71    1.017986e-01
   7734.00    1.005772e-01
   7734.29    9.927725e-02
   7734.58    9.800756e-02
   7734.87    9.685205e-02
   7735.16    9.587291e-02
   7735.44    9.510464e-02
   7735.73    9.455399e-02
   7736.02    9.421478e-02
   7736.31    9.404094e-02
   7736.60    9.397434e-02
   7736.89    9.396503e-02
   7737.18    9.396776e-02
   7737.47    9.394701e-02
   7737.76    9.387918e-02
   7738.04    9.375107e-02
   7738.33    9.357417e-02
   7738.62    9.336342e-02
   7738.91    9.313894e-02
   7739.20    9.292274e-02
   7739.49    9.273603e-02
   7739.78    9.260251e-02
   7740.07    9.255905e-02
   7740.36    9.264393e-02
   7740.64    9.272880e-02
   7740.93    9.281367e-02
   7741.22    9.310122e-02
   7741.51    9.344956e-02
   7741.80    9.379790e-02
   7742.09    9.419353e-02
   7742.38    9.469556e-02
   7742.67    9.519758e-02
   7742.96    9.569961e-02
   7743.24    9.618017e-02
   7743.53    9.665683e-02
   7743.82    9.713348e-02
   7744.11    9.753112e-02
   7744.40    9.780234e-02
   7744.69    9.807357e-02
   7744.98    9.834479e-02
   7745.27    9.832010e-02
   7745.56    9.827075e-02
   7745.84    9.822140e-02
   7746.13    9.802381e-02
   7746.42    9.765329e-02
   7746.71    9.728277e-02
   7747.00    9.691225e-02
   7747.29    9.632871e-02
   7747.58    9.574516e-02
   7747.87    9.516161e-02
   7748.16    9.454274e-02
   7748.44    9.389359e-02
   7748.73    9.324443e-02
   7749.02    9.259929e-02
   7749.31    9.200239e-02
   7749.60    9.140548e-02
   7749.89    9.080858e-02
   7750.18    9.028113e-02
   7750.47    8.979709e-02
   7750.76    8.931305e-02
   7751.04    8.884617e-02
   7751.33    8.847371e-02
   7751.62    8.810124e-02
   7751.91    8.772878e-02
   7752.20    8.740894e-02
   7752.49    8.711250e-02
   7752.78    8.681605e-02
   7753.07    8.652728e-02
   7753.36    8.626413e-02
   7753.64    8.600097e-02
   7753.93    8.573781e-02
   7754.22    8.547212e-02
   7754.51    8.520567e-02
   7754.80    8.493922e-02
   7755.09    8.466393e-02
   7755.38    8.436876e-02
   7755.67    8.407359e-02
   7755.96    8.377842e-02
   7756.24    8.344771e-02
   7756.53    8.311053e-02
   7756.82    8.277335e-02
   7757.11    8.242076e-02
   7757.40    8.204350e-02
   7757.69    8.166623e-02
   7757.98    8.128897e-02
   7758.27    8.089964e-02
   7758.56    8.050931e-02
   7758.84    8.011897e-02
   7759.13    7.975014e-02
   7759.42    7.940637e-02
   7759.71    7.906261e-02
   7760.00    7.871885e-02
