 FDMNES
  energy    <xanes>
   7695.00    5.357324e-04
   7695.29    5.413588e-04
   7695.58    5.469852e-04
   7695.87    5.526116e-04
   7696.16    5.584461e-04
   7696.44    5.644591e-04
   7696.73    5.704721e-04
   7697.02    5.765180e-04
   7697.31    5.829578e-04
   7697.60    5.893976e-04
   7697.89    5.958374e-04
   7698.18    6.025681e-04
   7698.47    6.094806e-04
   7698.76    6.163931e-04
   7699.04    6.233865e-04
   7699.33    6.308243e-04
   7699.62    6.382622e-04
   7699.91    6.457001e-04
   7700.20    6.535437e-04
   7700.49    6.615676e-04
   7700.78    6.695916e-04
   7701.07    6.777669e-04
   7701.36    6.864472e-04
   7701.64    6.951274e-04
   7701.93    7.038077e-04
   7702.22    7.130558e-04
   7702.51    7.224743e-04
   7702.80    7.318927e-04
   7703.09    7.415679e-04
   7703.38    7.518205e-04
   7703.67    7.620731e-04
   7703.96    7.723257e-04
   7704.24    7.833799e-04
   7704.53    7.945798e-04
   7704.82    8.057797e-04
   7705.11    8.173957e-04
   7705.40    8.296773e-04
   7705.69    8.419589e-04
   7705.98    8.542406e-04
   7706.27    8.676692e-04
   7706.56    8.811934e-04
   7706.84    8.947176e-04
   7707.13    9.089049e-04
   7707.42    9.238658e-04
   7707.71    9.388268e-04
   7708.00    9.537877e-04
   7708.29    9.704221e-04
   7708.58    9.870564e-04
   7708.87    1.003691e-03
   7709.16    1.021383e-03
   7709.44    1.039982e-03
   7709.73    1.058581e-03
   7710.02    1.077359e-03
   7710.31    1.098286e-03
   7710.60    1.119212e-03
   7710.89    1.140139e-03
   7711.18    1.162779e-03
   7711.47    1.186491e-03
   7711.76    1.210203e-03
   7712.04    1.234434e-03
   7712.33    1.261518e-03
   7712.62    1.288602e-03
   7712.91    1.315686e-03
   7713.20    1.345634e-03
   7713.49    1.376855e-03
   7713.78    1.408075e-03
   7714.07    1.440484e-03
   7714.36    1.476857e-03
   7714.64    1.513230e-03
   7714.93    1.549603e-03
   7715.22    1.591003e-03
   7715.51    1.633911e-03
   7715.80    1.676819e-03
   7716.09    1.722334e-03
   7716.38    1.773713e-03
   7716.67    1.825092e-03
   7716.96    1.876471e-03
   7717.24    1.937392e-03
   7717.53    2.000049e-03
   7717.82    2.062706e-03
   7718.11    2.131336e-03
   7718.40    2.209523e-03
   7718.69    2.287710e-03
   7718.98    2.365898e-03
   7719.27    2.464728e-03
   7719.56    2.565279e-03
   7719.84    2.665830e-03
   7720.13    2.782197e-03
   7720.42    2.917015e-03
   7720.71    3.051833e-03
   7721.00    3.186652e-03
   7721.29    3.379115e-03
   7721.58    3.571577e-03
   7721.87    3.764040e-03
   7722.16    4.017536e-03
   7722.44    4.323344e-03
   7722.73    4.629153e-03
   7723.02    4.958014e-03
   7723.31    5.563494e-03
   7723.60    6.168975e-03
   7723.89    6.774455e-03
   7724.18    8.081304e-03
   7724.47    9.826509e-03
   7724.76    1.157171e-02
   7725.04    1.346420e-02
   7725.33    1.612461e-02
   7725.62    1.856746e-02
   7725.91    2.076305e-02
   7726.20    2.288139e-02
   7726.49    2.506765e-02
   7726.78    2.741310e-02
   7727.07    3.004609e-02
   7727.36    3.302981e-02
   7727.64    3.649916e-02
   7727.93    4.058995e-02
   7728.22    4.541928e-02
   7728.51    5.123382e-02
   7728.80    5.799978e-02
   7729.09    6.598876e-02
   7729.38    7.487583e-02
   7729.67    8.446019e-02
   7729.96    9.410195e-02
   7730.24    1.030163e-01
   7730.53    1.101655e-01
   7730.82    1.150411e-01
   7731.11    1.175783e-01
   7731.40    1.180925e-01
   7731.69    1.171139e-01
   7731.98    1.151784e-01
   7732.27    1.126942e-01
   7732.56    1.099663e-01
   7732.84    1.071898e-01
   7733.13    1.044850e-01
   7733.42    1.019517e-01
   7733.71    9.967477e-02
   7734.00    9.772033e-02
   7734.29    9.617634e-02
   7734.58    9.501487e-02
   7734.87    9.423051e-02
   7735.16    9.380684e-02
   7735.44    9.372014e-02
   7735.73    9.394060e-02
   7736.02    9.444780e-02
   7736.31    9.518704e-02
   7736.60    9.609300e-02
   7736.89    9.710706e-02
   7737.18    9.816596e-02
   7737.47    9.920546e-02
   7737.76    1.001633e-01
   7738.04    1.009739e-01
   7738.33    1.016166e-01
   7738.62    1.020796e-01
   7738.91    1.023694e-01
   7739.20    1.025075e-01
   7739.49    1.025257e-01
   7739.78    1.024572e-01
   7740.07    1.023574e-01
   7740.36    1.022802e-01
   7740.64    1.022029e-01
   7740.93    1.021256e-01
   7741.22    1.022103e-01
   7741.51    1.023435e-01
   7741.80    1.024767e-01
   7742.09    1.026578e-01
   7742.38    1.029467e-01
   7742.67    1.032356e-01
   7742.96    1.035245e-01
   7743.24    1.037382e-01
   7743.53    1.039383e-01
   7743.82    1.041384e-01
   7744.11    1.042176e-01
   7744.40    1.041036e-01
   7744.69    1.039895e-01
   7744.98    1.038755e-01
   7745.27    1.034081e-01
   7745.56    1.029112e-01
   7745.84    1.024143e-01
   7746.13    1.017846e-01
   7746.42    1.010000e-01
   7746.71    1.002153e-01
   7747.00    9.943061e-02
   7747.29    9.852670e-02
   7747.58    9.762279e-02
   7747.87    9.671888e-02
   7748.16    9.582222e-02
   7748.44    9.493178e-02
   7748.73    9.404133e-02
   7749.02    9.315772e-02
   7749.31    9.235617e-02
   7749.60    9.155462e-02
   7749.89    9.075308e-02
   7750.18    9.002520e-02
   7750.47    8.934336e-02
   7750.76    8.866152e-02
   7751.04    8.799769e-02
   7751.33    8.743290e-02
   7751.62    8.686812e-02
   7751.91    8.630333e-02
   7752.20    8.580277e-02
   7752.49    8.533076e-02
   7752.78    8.485875e-02
   7753.07    8.440011e-02
   7753.36    8.398605e-02
   7753.64    8.357198e-02
   7753.93    8.315792e-02
   7754.22    8.276046e-02
   7754.51    8.236798e-02
   7754.80    8.197550e-02
   7755.09    8.158025e-02
   7755.38    8.117880e-02
   7755.67    8.077735e-02
   7755.96    8.037590e-02
   7756.24    7.995152e-02
   7756.53    7.952298e-02
   7756.82    7.909444e-02
   7757.11    7.865605e-02
   7757.40    7.820190e-02
   7757.69    7.774775e-02
   7757.98    7.729361e-02
   7758.27    7.684324e-02
   7758.56    7.639318e-02
   7758.84    7.594313e-02
   7759.13    7.552258e-02
   7759.42    7.513645e-02
   7759.71    7.475032e-02
   7760.00    7.436419e-02
