 FDMNES
  energy    <xanes>
   7695.00    5.215968e-04
   7695.29    5.273472e-04
   7695.58    5.330976e-04
   7695.87    5.388480e-04
   7696.16    5.448197e-04
   7696.44    5.509809e-04
   7696.73    5.571421e-04
   7697.02    5.633384e-04
   7697.31    5.699546e-04
   7697.60    5.765707e-04
   7697.89    5.831869e-04
   7698.18    5.901141e-04
   7698.47    5.972357e-04
   7698.76    6.043573e-04
   7699.04    6.115657e-04
   7699.33    6.192509e-04
   7699.62    6.269361e-04
   7699.91    6.346213e-04
   7700.20    6.427432e-04
   7700.49    6.510592e-04
   7700.78    6.593752e-04
   7701.07    6.678548e-04
   7701.36    6.768797e-04
   7701.64    6.859047e-04
   7701.93    6.949297e-04
   7702.22    7.045703e-04
   7702.51    7.143956e-04
   7702.80    7.242209e-04
   7703.09    7.343256e-04
   7703.38    7.450587e-04
   7703.67    7.557919e-04
   7703.96    7.665250e-04
   7704.24    7.781340e-04
   7704.53    7.899023e-04
   7704.82    8.016705e-04
   7705.11    8.138953e-04
   7705.40    8.268504e-04
   7705.69    8.398056e-04
   7705.98    8.527607e-04
   7706.27    8.669798e-04
   7706.56    8.813042e-04
   7706.84    8.956287e-04
   7707.13    9.106872e-04
   7707.42    9.266021e-04
   7707.71    9.425170e-04
   7708.00    9.584319e-04
   7708.29    9.762079e-04
   7708.58    9.939838e-04
   7708.87    1.011760e-03
   7709.16    1.030718e-03
   7709.44    1.050690e-03
   7709.73    1.070661e-03
   7710.02    1.090834e-03
   7710.31    1.113420e-03
   7710.60    1.136006e-03
   7710.89    1.158592e-03
   7711.18    1.183114e-03
   7711.47    1.208844e-03
   7711.76    1.234575e-03
   7712.04    1.260895e-03
   7712.33    1.290453e-03
   7712.62    1.320011e-03
   7712.91    1.349570e-03
   7713.20    1.382395e-03
   7713.49    1.416673e-03
   7713.78    1.450951e-03
   7714.07    1.486593e-03
   7714.36    1.526781e-03
   7714.64    1.566969e-03
   7714.93    1.607157e-03
   7715.22    1.653140e-03
   7715.51    1.700862e-03
   7715.80    1.748583e-03
   7716.09    1.799322e-03
   7716.38    1.856852e-03
   7716.67    1.914381e-03
   7716.96    1.971911e-03
   7717.24    2.040526e-03
   7717.53    2.111156e-03
   7717.82    2.181786e-03
   7718.11    2.259364e-03
   7718.40    2.348058e-03
   7718.69    2.436752e-03
   7718.98    2.525446e-03
   7719.27    2.638090e-03
   7719.56    2.752730e-03
   7719.84    2.867370e-03
   7720.13    3.000184e-03
   7720.42    3.154202e-03
   7720.71    3.308219e-03
   7721.00    3.462236e-03
   7721.29    3.680979e-03
   7721.58    3.899722e-03
   7721.87    4.118465e-03
   7722.16    4.402378e-03
   7722.44    4.742152e-03
   7722.73    5.081926e-03
   7723.02    5.443927e-03
   7723.31    6.072655e-03
   7723.60    6.701383e-03
   7723.89    7.330110e-03
   7724.18    8.559482e-03
   7724.47    1.016426e-02
   7724.76    1.176903e-02
   7725.04    1.351622e-02
   7725.33    1.610521e-02
   7725.62    1.886458e-02
   7725.91    2.192890e-02
   7726.20    2.541977e-02
   7726.49    2.962325e-02
   7726.78    3.451077e-02
   7727.07    4.024643e-02
   7727.36    4.669219e-02
   7727.64    5.365908e-02
   7727.93    6.074223e-02
   7728.22    6.757433e-02
   7728.51    7.420453e-02
   7728.80    8.116932e-02
   7729.09    8.927085e-02
   7729.38    9.851565e-02
   7729.67    1.087049e-01
   7729.96    1.189012e-01
   7730.24    1.279562e-01
   7730.53    1.344839e-01
   7730.82    1.379543e-01
   7731.11    1.384324e-01
   7731.40    1.364393e-01
   7731.69    1.327354e-01
   7731.98    1.280763e-01
   7732.27    1.230800e-01
   7732.56    1.182230e-01
   7732.84    1.137634e-01
   7733.13    1.098374e-01
   7733.42    1.065068e-01
   7733.71    1.037808e-01
   7734.00    1.016289e-01
   7734.29    1.000444e-01
   7734.58    9.888031e-02
   7734.87    9.805183e-02
   7735.16    9.747570e-02
   7735.44    9.707474e-02
   7735.73    9.678072e-02
   7736.02    9.653610e-02
   7736.31    9.628919e-02
   7736.60    9.600741e-02
   7736.89    9.567257e-02
   7737.18    9.527869e-02
   7737.47    9.483131e-02
   7737.76    9.434575e-02
   7738.04    9.384743e-02
   7738.33    9.336779e-02
   7738.62    9.293458e-02
   7738.91    9.257237e-02
   7739.20    9.230041e-02
   7739.49    9.213140e-02
   7739.78    9.208027e-02
   7740.07    9.216332e-02
   7740.36    9.239559e-02
   7740.64    9.262786e-02
   7740.93    9.286013e-02
   7741.22    9.320711e-02
   7741.51    9.358851e-02
   7741.80    9.396991e-02
   7742.09    9.432396e-02
   7742.38    9.461650e-02
   7742.67    9.490903e-02
   7742.96    9.520156e-02
   7743.24    9.526633e-02
   7743.53    9.528969e-02
   7743.82    9.531305e-02
   7744.11    9.521256e-02
   7744.40    9.491391e-02
   7744.69    9.461526e-02
   7744.98    9.431660e-02
   7745.27    9.378468e-02
   7745.56    9.323332e-02
   7745.84    9.268195e-02
   7746.13    9.206660e-02
   7746.42    9.137660e-02
   7746.71    9.068659e-02
   7747.00    8.999658e-02
   7747.29    8.926289e-02
   7747.58    8.852919e-02
   7747.87    8.779549e-02
   7748.16    8.707090e-02
   7748.44    8.635410e-02
   7748.73    8.563731e-02
   7749.02    8.492441e-02
   7749.31    8.425821e-02
   7749.60    8.359200e-02
   7749.89    8.292579e-02
   7750.18    8.229810e-02
   7750.47    8.169448e-02
   7750.76    8.109086e-02
   7751.04    8.049596e-02
   7751.33    7.994899e-02
   7751.62    7.940201e-02
   7751.91    7.885504e-02
   7752.20    7.833582e-02
   7752.49    7.782893e-02
   7752.78    7.732204e-02
   7753.07    7.682023e-02
   7753.36    7.633538e-02
   7753.64    7.585052e-02
   7753.93    7.536566e-02
   7754.22    7.488798e-02
   7754.51    7.441244e-02
   7754.80    7.393691e-02
   7755.09    7.346288e-02
   7755.38    7.299223e-02
   7755.67    7.252158e-02
   7755.96    7.205093e-02
   7756.24    7.158773e-02
   7756.53    7.112588e-02
   7756.82    7.066403e-02
   7757.11    7.021037e-02
   7757.40    6.976981e-02
   7757.69    6.932925e-02
   7757.98    6.888869e-02
   7758.27    6.848932e-02
   7758.56    6.809339e-02
   7758.84    6.769746e-02
   7759.13    6.733727e-02
   7759.42    6.701879e-02
   7759.71    6.670031e-02
   7760.00    6.638183e-02
