 FDMNES
  energy    <xanes>
   7695.00    5.171678e-04
   7695.29    5.227649e-04
   7695.58    5.283620e-04
   7695.87    5.339592e-04
   7696.16    5.397681e-04
   7696.44    5.457584e-04
   7696.73    5.517488e-04
   7697.02    5.577726e-04
   7697.31    5.641978e-04
   7697.60    5.706230e-04
   7697.89    5.770482e-04
   7698.18    5.837703e-04
   7698.47    5.906779e-04
   7698.76    5.975855e-04
   7699.04    6.045757e-04
   7699.33    6.120203e-04
   7699.62    6.194649e-04
   7699.91    6.269096e-04
   7700.20    6.347697e-04
   7700.49    6.428144e-04
   7700.78    6.508592e-04
   7701.07    6.590593e-04
   7701.36    6.677774e-04
   7701.64    6.764954e-04
   7701.93    6.852135e-04
   7702.22    6.945153e-04
   7702.51    7.039921e-04
   7702.80    7.134690e-04
   7703.09    7.232101e-04
   7703.38    7.335460e-04
   7703.67    7.438820e-04
   7703.96    7.542179e-04
   7704.24    7.653810e-04
   7704.53    7.766945e-04
   7704.82    7.880081e-04
   7705.11    7.997518e-04
   7705.40    8.121840e-04
   7705.69    8.246162e-04
   7705.98    8.370484e-04
   7706.27    8.506694e-04
   7706.56    8.643895e-04
   7706.84    8.781095e-04
   7707.13    8.925184e-04
   7707.42    9.077311e-04
   7707.71    9.229436e-04
   7708.00    9.381562e-04
   7708.29    9.551113e-04
   7708.58    9.720664e-04
   7708.87    9.890214e-04
   7709.16    1.007081e-03
   7709.44    1.026087e-03
   7709.73    1.045093e-03
   7710.02    1.064286e-03
   7710.31    1.085727e-03
   7710.60    1.107169e-03
   7710.89    1.128611e-03
   7711.18    1.151851e-03
   7711.47    1.176215e-03
   7711.76    1.200579e-03
   7712.04    1.225489e-03
   7712.33    1.253401e-03
   7712.62    1.281313e-03
   7712.91    1.309224e-03
   7713.20    1.340157e-03
   7713.49    1.372432e-03
   7713.78    1.404707e-03
   7714.07    1.438239e-03
   7714.36    1.475964e-03
   7714.64    1.513688e-03
   7714.93    1.551413e-03
   7715.22    1.594468e-03
   7715.51    1.639122e-03
   7715.80    1.683776e-03
   7716.09    1.731200e-03
   7716.38    1.784856e-03
   7716.67    1.838513e-03
   7716.96    1.892169e-03
   7717.24    1.955984e-03
   7717.53    2.021646e-03
   7717.82    2.087308e-03
   7718.11    2.159333e-03
   7718.40    2.241538e-03
   7718.69    2.323743e-03
   7718.98    2.405948e-03
   7719.27    2.510109e-03
   7719.56    2.616100e-03
   7719.84    2.722092e-03
   7720.13    2.844813e-03
   7720.42    2.987054e-03
   7720.71    3.129295e-03
   7721.00    3.271535e-03
   7721.29    3.473951e-03
   7721.58    3.676366e-03
   7721.87    3.878781e-03
   7722.16    4.143091e-03
   7722.44    4.460452e-03
   7722.73    4.777813e-03
   7723.02    5.117235e-03
   7723.31    5.721389e-03
   7723.60    6.325543e-03
   7723.89    6.929697e-03
   7724.18    8.160623e-03
   7724.47    9.783282e-03
   7724.76    1.140594e-02
   7725.04    1.316666e-02
   7725.33    1.569922e-02
   7725.62    1.824248e-02
   7725.91    2.089283e-02
   7726.20    2.380293e-02
   7726.49    2.722240e-02
   7726.78    3.116627e-02
   7727.07    3.577629e-02
   7727.36    4.093535e-02
   7727.64    4.650909e-02
   7727.93    5.231803e-02
   7728.22    5.828297e-02
   7728.51    6.450722e-02
   7728.80    7.108203e-02
   7729.09    7.820647e-02
   7729.38    8.573645e-02
   7729.67    9.341393e-02
   7729.96    1.006907e-01
   7730.24    1.069062e-01
   7730.53    1.113424e-01
   7730.82    1.139073e-01
   7731.11    1.148231e-01
   7731.40    1.145012e-01
   7731.69    1.133952e-01
   7731.98    1.118810e-01
   7732.27    1.102212e-01
   7732.56    1.085931e-01
   7732.84    1.070874e-01
   7733.13    1.057535e-01
   7733.42    1.046210e-01
   7733.71    1.037075e-01
   7734.00    1.030224e-01
   7734.29    1.025932e-01
   7734.58    1.023817e-01
   7734.87    1.023664e-01
   7735.16    1.025165e-01
   7735.44    1.027917e-01
   7735.73    1.031431e-01
   7736.02    1.035119e-01
   7736.31    1.038294e-01
   7736.60    1.040393e-01
   7736.89    1.040961e-01
   7737.18    1.039712e-01
   7737.47    1.036561e-01
   7737.76    1.031603e-01
   7738.04    1.025065e-01
   7738.33    1.017562e-01
   7738.62    1.009565e-01
   7738.91    1.001527e-01
   7739.20    9.938387e-02
   7739.49    9.868043e-02
   7739.78    9.807176e-02
   7740.07    9.759461e-02
   7740.36    9.728454e-02
   7740.64    9.697447e-02
   7740.93    9.666440e-02
   7741.22    9.655957e-02
   7741.51    9.651631e-02
   7741.80    9.647305e-02
   7742.09    9.645551e-02
   7742.38    9.649583e-02
   7742.67    9.653615e-02
   7742.96    9.657648e-02
   7743.24    9.653047e-02
   7743.53    9.646877e-02
   7743.82    9.640707e-02
   7744.11    9.626025e-02
   7744.40    9.597726e-02
   7744.69    9.569426e-02
   7744.98    9.541127e-02
   7745.27    9.490448e-02
   7745.56    9.437904e-02
   7745.84    9.385359e-02
   7746.13    9.324854e-02
   7746.42    9.255061e-02
   7746.71    9.185268e-02
   7747.00    9.115475e-02
   7747.29    9.039887e-02
   7747.58    8.964300e-02
   7747.87    8.888712e-02
   7748.16    8.815042e-02
   7748.44    8.743016e-02
   7748.73    8.670990e-02
   7749.02    8.599638e-02
   7749.31    8.536367e-02
   7749.60    8.473095e-02
   7749.89    8.409824e-02
   7750.18    8.352605e-02
   7750.47    8.299168e-02
   7750.76    8.245731e-02
   7751.04    8.193496e-02
   7751.33    8.147869e-02
   7751.62    8.102242e-02
   7751.91    8.056616e-02
   7752.20    8.014015e-02
   7752.49    7.972758e-02
   7752.78    7.931502e-02
   7753.07    7.890455e-02
   7753.36    7.850102e-02
   7753.64    7.809750e-02
   7753.93    7.769397e-02
   7754.22    7.727641e-02
   7754.51    7.685464e-02
   7754.80    7.643287e-02
   7755.09    7.600063e-02
   7755.38    7.554485e-02
   7755.67    7.508907e-02
   7755.96    7.463329e-02
   7756.24    7.414831e-02
   7756.53    7.365802e-02
   7756.82    7.316773e-02
   7757.11    7.267141e-02
   7757.40    7.216543e-02
   7757.69    7.165945e-02
   7757.98    7.115348e-02
   7758.27    7.067082e-02
   7758.56    7.019010e-02
   7758.84    6.970938e-02
   7759.13    6.926695e-02
   7759.42    6.886917e-02
   7759.71    6.847139e-02
   7760.00    6.807362e-02
