 FDMNES
  energy    <xanes>
   7695.00    5.229038e-04
   7695.29    5.285922e-04
   7695.58    5.342806e-04
   7695.87    5.399690e-04
   7696.16    5.458743e-04
   7696.44    5.519654e-04
   7696.73    5.580566e-04
   7697.02    5.641820e-04
   7697.31    5.707187e-04
   7697.60    5.772555e-04
   7697.89    5.837923e-04
   7698.18    5.906335e-04
   7698.47    5.976651e-04
   7698.76    6.046967e-04
   7699.04    6.118131e-04
   7699.33    6.193960e-04
   7699.62    6.269789e-04
   7699.91    6.345618e-04
   7700.20    6.425717e-04
   7700.49    6.507713e-04
   7700.78    6.589709e-04
   7701.07    6.673303e-04
   7701.36    6.762225e-04
   7701.64    6.851147e-04
   7701.93    6.940070e-04
   7702.22    7.035001e-04
   7702.51    7.131736e-04
   7702.80    7.228471e-04
   7703.09    7.327931e-04
   7703.38    7.433521e-04
   7703.67    7.539111e-04
   7703.96    7.644701e-04
   7704.24    7.758828e-04
   7704.53    7.874507e-04
   7704.82    7.990186e-04
   7705.11    8.110310e-04
   7705.40    8.237547e-04
   7705.69    8.364784e-04
   7705.98    8.492021e-04
   7706.27    8.631556e-04
   7706.56    8.772116e-04
   7706.84    8.912676e-04
   7707.13    9.060372e-04
   7707.42    9.216393e-04
   7707.71    9.372414e-04
   7708.00    9.528434e-04
   7708.29    9.702529e-04
   7708.58    9.876623e-04
   7708.87    1.005072e-03
   7709.16    1.023628e-03
   7709.44    1.043168e-03
   7709.73    1.062708e-03
   7710.02    1.082442e-03
   7710.31    1.104515e-03
   7710.60    1.126589e-03
   7710.89    1.148662e-03
   7711.18    1.172609e-03
   7711.47    1.197726e-03
   7711.76    1.222844e-03
   7712.04    1.248531e-03
   7712.33    1.277349e-03
   7712.62    1.306167e-03
   7712.91    1.334985e-03
   7713.20    1.366958e-03
   7713.49    1.400334e-03
   7713.78    1.433709e-03
   7714.07    1.468400e-03
   7714.36    1.507474e-03
   7714.64    1.546549e-03
   7714.93    1.585623e-03
   7715.22    1.630277e-03
   7715.51    1.676605e-03
   7715.80    1.722933e-03
   7716.09    1.772162e-03
   7716.38    1.827919e-03
   7716.67    1.883675e-03
   7716.96    1.939432e-03
   7717.24    2.005827e-03
   7717.53    2.074156e-03
   7717.82    2.142485e-03
   7718.11    2.217471e-03
   7718.40    2.303106e-03
   7718.69    2.388741e-03
   7718.98    2.474376e-03
   7719.27    2.582920e-03
   7719.56    2.693372e-03
   7719.84    2.803824e-03
   7720.13    2.931640e-03
   7720.42    3.079714e-03
   7720.71    3.227788e-03
   7721.00    3.375862e-03
   7721.29    3.585799e-03
   7721.58    3.795737e-03
   7721.87    4.005674e-03
   7722.16    4.278198e-03
   7722.44    4.604366e-03
   7722.73    4.930534e-03
   7723.02    5.278402e-03
   7723.31    5.886679e-03
   7723.60    6.494955e-03
   7723.89    7.103232e-03
   7724.18    8.309664e-03
   7724.47    9.889943e-03
   7724.76    1.147022e-02
   7725.04    1.318376e-02
   7725.33    1.565762e-02
   7725.62    1.820300e-02
   7725.91    2.093388e-02
   7726.20    2.396519e-02
   7726.49    2.748479e-02
   7726.78    3.144585e-02
   7727.07    3.595708e-02
   7727.36    4.101874e-02
   7727.64    4.677457e-02
   7727.93    5.334299e-02
   7728.22    6.075297e-02
   7728.51    6.915856e-02
   7728.80    7.848658e-02
   7729.09    8.896256e-02
   7729.38    1.001147e-01
   7729.67    1.112684e-01
   7729.96    1.213614e-01
   7730.24    1.292413e-01
   7730.53    1.338620e-01
   7730.82    1.354173e-01
   7731.11    1.344971e-01
   7731.40    1.318074e-01
   7731.69    1.280014e-01
   7731.98    1.236000e-01
   7732.27    1.189990e-01
   7732.56    1.145151e-01
   7732.84    1.103408e-01
   7733.13    1.065949e-01
   7733.42    1.033426e-01
   7733.71    1.006084e-01
   7734.00    9.838683e-02
   7734.29    9.670048e-02
   7734.58    9.543785e-02
   7734.87    9.453831e-02
   7735.16    9.393626e-02
   7735.44    9.356451e-02
   7735.73    9.335709e-02
   7736.02    9.325502e-02
   7736.31    9.319482e-02
   7736.60    9.312948e-02
   7736.89    9.302928e-02
   7737.18    9.287803e-02
   7737.47    9.267293e-02
   7737.76    9.242249e-02
   7738.04    9.214546e-02
   7738.33    9.187060e-02
   7738.62    9.162332e-02
   7738.91    9.142711e-02
   7739.20    9.130143e-02
   7739.49    9.126041e-02
   7739.78    9.132026e-02
   7740.07    9.150046e-02
   7740.36    9.181927e-02
   7740.64    9.213807e-02
   7740.93    9.245688e-02
   7741.22    9.289595e-02
   7741.51    9.337109e-02
   7741.80    9.384624e-02
   7742.09    9.430118e-02
   7742.38    9.471066e-02
   7742.67    9.512014e-02
   7742.96    9.552962e-02
   7743.24    9.570931e-02
   7743.53    9.584721e-02
   7743.82    9.598511e-02
   7744.11    9.597800e-02
   7744.40    9.573888e-02
   7744.69    9.549975e-02
   7744.98    9.526063e-02
   7745.27    9.471614e-02
   7745.56    9.414621e-02
   7745.84    9.357628e-02
   7746.13    9.292486e-02
   7746.42    9.217838e-02
   7746.71    9.143189e-02
   7747.00    9.068541e-02
   7747.29    8.991966e-02
   7747.58    8.915391e-02
   7747.87    8.838817e-02
   7748.16    8.766278e-02
   7748.44    8.697198e-02
   7748.73    8.628118e-02
   7749.02    8.559867e-02
   7749.31    8.501557e-02
   7749.60    8.443247e-02
   7749.89    8.384937e-02
   7750.18    8.332997e-02
   7750.47    8.285038e-02
   7750.76    8.237079e-02
   7751.04    8.190335e-02
   7751.33    8.150275e-02
   7751.62    8.110214e-02
   7751.91    8.070154e-02
   7752.20    8.033111e-02
   7752.49    7.997408e-02
   7752.78    7.961705e-02
   7753.07    7.926113e-02
   7753.36    7.890889e-02
   7753.64    7.855665e-02
   7753.93    7.820441e-02
   7754.22    7.782946e-02
   7754.51    7.744768e-02
   7754.80    7.706591e-02
   7755.09    7.666857e-02
   7755.38    7.623620e-02
   7755.67    7.580383e-02
   7755.96    7.537146e-02
   7756.24    7.489655e-02
   7756.53    7.441390e-02
   7756.82    7.393125e-02
   7757.11    7.343925e-02
   7757.40    7.293229e-02
   7757.69    7.242533e-02
   7757.98    7.191837e-02
   7758.27    7.143484e-02
   7758.56    7.095326e-02
   7758.84    7.047168e-02
   7759.13    7.003006e-02
   7759.42    6.963506e-02
   7759.71    6.924006e-02
   7760.00    6.884507e-02
