 FDMNES
  energy    <xanes>
   7695.00    5.269280e-04
   7695.29    5.325272e-04
   7695.58    5.381264e-04
   7695.87    5.437256e-04
   7696.16    5.495339e-04
   7696.44    5.555215e-04
   7696.73    5.615091e-04
   7697.02    5.675297e-04
   7697.31    5.739464e-04
   7697.60    5.803630e-04
   7697.89    5.867797e-04
   7698.18    5.934890e-04
   7698.47    6.003813e-04
   7698.76    6.072735e-04
   7699.04    6.142471e-04
   7699.33    6.216683e-04
   7699.62    6.290894e-04
   7699.91    6.365106e-04
   7700.20    6.443405e-04
   7700.49    6.523522e-04
   7700.78    6.603638e-04
   7701.07    6.685282e-04
   7701.36    6.772017e-04
   7701.64    6.858752e-04
   7701.93    6.945486e-04
   7702.22    7.037952e-04
   7702.51    7.132137e-04
   7702.80    7.226322e-04
   7703.09    7.323099e-04
   7703.38    7.425710e-04
   7703.67    7.528320e-04
   7703.96    7.630931e-04
   7704.24    7.741645e-04
   7704.53    7.853833e-04
   7704.82    7.966021e-04
   7705.11    8.082418e-04
   7705.40    8.205552e-04
   7705.69    8.328686e-04
   7705.98    8.451819e-04
   7706.27    8.586570e-04
   7706.56    8.722289e-04
   7706.84    8.858009e-04
   7707.13    9.000451e-04
   7707.42    9.150737e-04
   7707.71    9.301022e-04
   7708.00    9.451308e-04
   7708.29    9.618576e-04
   7708.58    9.785844e-04
   7708.87    9.953112e-04
   7709.16    1.013113e-03
   7709.44    1.031835e-03
   7709.73    1.050558e-03
   7710.02    1.069463e-03
   7710.31    1.090552e-03
   7710.60    1.111642e-03
   7710.89    1.132732e-03
   7711.18    1.155566e-03
   7711.47    1.179491e-03
   7711.76    1.203416e-03
   7712.04    1.227870e-03
   7712.33    1.255231e-03
   7712.62    1.282592e-03
   7712.91    1.309952e-03
   7713.20    1.340234e-03
   7713.49    1.371813e-03
   7713.78    1.403393e-03
   7714.07    1.436186e-03
   7714.36    1.473024e-03
   7714.64    1.509862e-03
   7714.93    1.546700e-03
   7715.22    1.588671e-03
   7715.51    1.632183e-03
   7715.80    1.675695e-03
   7716.09    1.721868e-03
   7716.38    1.774031e-03
   7716.67    1.826194e-03
   7716.96    1.878357e-03
   7717.24    1.940260e-03
   7717.53    2.003933e-03
   7717.82    2.067607e-03
   7718.11    2.137366e-03
   7718.40    2.216861e-03
   7718.69    2.296356e-03
   7718.98    2.375851e-03
   7719.27    2.476289e-03
   7719.56    2.578472e-03
   7719.84    2.680655e-03
   7720.13    2.798747e-03
   7720.42    2.935398e-03
   7720.71    3.072050e-03
   7721.00    3.208701e-03
   7721.29    3.402350e-03
   7721.58    3.595998e-03
   7721.87    3.789646e-03
   7722.16    4.041559e-03
   7722.44    4.343414e-03
   7722.73    4.645268e-03
   7723.02    4.967613e-03
   7723.31    5.535832e-03
   7723.60    6.104051e-03
   7723.89    6.672270e-03
   7724.18    7.819320e-03
   7724.47    9.328141e-03
   7724.76    1.083696e-02
   7725.04    1.248875e-02
   7725.33    1.499141e-02
   7725.62    1.766445e-02
   7725.91    2.055561e-02
   7726.20    2.364822e-02
   7726.49    2.687562e-02
   7726.78    3.012643e-02
   7727.07    3.352461e-02
   7727.36    3.730925e-02
   7727.64    4.174321e-02
   7727.93    4.693443e-02
   7728.22    5.282079e-02
   7728.51    5.932383e-02
   7728.80    6.616440e-02
   7729.09    7.327931e-02
   7729.38    8.063933e-02
   7729.67    8.831568e-02
   7729.96    9.605762e-02
   7730.24    1.032731e-01
   7730.53    1.089423e-01
   7730.82    1.124616e-01
   7731.11    1.137606e-01
   7731.40    1.132450e-01
   7731.69    1.115638e-01
   7731.98    1.093465e-01
   7732.27    1.070766e-01
   7732.56    1.050689e-01
   7732.84    1.034345e-01
   7733.13    1.021962e-01
   7733.42    1.013241e-01
   7733.71    1.007621e-01
   7734.00    1.004453e-01
   7734.29    1.003306e-01
   7734.58    1.003494e-01
   7734.87    1.004759e-01
   7735.16    1.006943e-01
   7735.44    1.009918e-01
   7735.73    1.013521e-01
   7736.02    1.017524e-01
   7736.31    1.021547e-01
   7736.60    1.025187e-01
   7736.89    1.028064e-01
   7737.18    1.029847e-01
   7737.47    1.030308e-01
   7737.76    1.029317e-01
   7738.04    1.026796e-01
   7738.33    1.023063e-01
   7738.62    1.018367e-01
   7738.91    1.013010e-01
   7739.20    1.007312e-01
   7739.49    1.001585e-01
   7739.78    9.961545e-02
   7740.07    9.915374e-02
   7740.36    9.882759e-02
   7740.64    9.850144e-02
   7740.93    9.817529e-02
   7741.22    9.811221e-02
   7741.51    9.812805e-02
   7741.80    9.814389e-02
   7742.09    9.823356e-02
   7742.38    9.848935e-02
   7742.67    9.874513e-02
   7742.96    9.900091e-02
   7743.24    9.925416e-02
   7743.53    9.950694e-02
   7743.82    9.975971e-02
   7744.11    9.991156e-02
   7744.40    9.990190e-02
   7744.69    9.989224e-02
   7744.98    9.988259e-02
   7745.27    9.949312e-02
   7745.56    9.907199e-02
   7745.84    9.865087e-02
   7746.13    9.805905e-02
   7746.42    9.726806e-02
   7746.71    9.647708e-02
   7747.00    9.568610e-02
   7747.29    9.471604e-02
   7747.58    9.374597e-02
   7747.87    9.277591e-02
   7748.16    9.181196e-02
   7748.44    9.085326e-02
   7748.73    8.989455e-02
   7749.02    8.894530e-02
   7749.31    8.810952e-02
   7749.60    8.727374e-02
   7749.89    8.643797e-02
   7750.18    8.569863e-02
   7750.47    8.501956e-02
   7750.76    8.434049e-02
   7751.04    8.368309e-02
   7751.33    8.314483e-02
   7751.62    8.260657e-02
   7751.91    8.206831e-02
   7752.20    8.160133e-02
   7752.49    8.116604e-02
   7752.78    8.073074e-02
   7753.07    8.030952e-02
   7753.36    7.993517e-02
   7753.64    7.956083e-02
   7753.93    7.918649e-02
   7754.22    7.883040e-02
   7754.51    7.847977e-02
   7754.80    7.812915e-02
   7755.09    7.777715e-02
   7755.38    7.742207e-02
   7755.67    7.706698e-02
   7755.96    7.671189e-02
   7756.24    7.633941e-02
   7756.53    7.596376e-02
   7756.82    7.558811e-02
   7757.11    7.520479e-02
   7757.40    7.480919e-02
   7757.69    7.441359e-02
   7757.98    7.401799e-02
   7758.27    7.362697e-02
   7758.56    7.323634e-02
   7758.84    7.284570e-02
   7759.13    7.248090e-02
   7759.42    7.214622e-02
   7759.71    7.181155e-02
   7760.00    7.147687e-02
