 FDMNES
  energy    <xanes>
   7695.00    5.082937e-04
   7695.29    5.139561e-04
   7695.58    5.196184e-04
   7695.87    5.252807e-04
   7696.16    5.311618e-04
   7696.44    5.372304e-04
   7696.73    5.432989e-04
   7697.02    5.494021e-04
   7697.31    5.559206e-04
   7697.60    5.624391e-04
   7697.89    5.689576e-04
   7698.18    5.757838e-04
   7698.47    5.828023e-04
   7698.76    5.898208e-04
   7699.04    5.969250e-04
   7699.33    6.045011e-04
   7699.62    6.120772e-04
   7699.91    6.196533e-04
   7700.20    6.276616e-04
   7700.49    6.358619e-04
   7700.78    6.440622e-04
   7701.07    6.524245e-04
   7701.36    6.613266e-04
   7701.64    6.702288e-04
   7701.93    6.791309e-04
   7702.22    6.886425e-04
   7702.51    6.983371e-04
   7702.80    7.080316e-04
   7703.09    7.180028e-04
   7703.38    7.285964e-04
   7703.67    7.391901e-04
   7703.96    7.497837e-04
   7704.24    7.612450e-04
   7704.53    7.728642e-04
   7704.82    7.844833e-04
   7705.11    7.965548e-04
   7705.40    8.093502e-04
   7705.69    8.221455e-04
   7705.98    8.349409e-04
   7706.27    8.489894e-04
   7706.56    8.631424e-04
   7706.84    8.772954e-04
   7707.13    8.921765e-04
   7707.42    9.079070e-04
   7707.71    9.236376e-04
   7708.00    9.393682e-04
   7708.29    9.569458e-04
   7708.58    9.745235e-04
   7708.87    9.921011e-04
   7709.16    1.010853e-03
   7709.44    1.030611e-03
   7709.73    1.050369e-03
   7710.02    1.070328e-03
   7710.31    1.092684e-03
   7710.60    1.115041e-03
   7710.89    1.137398e-03
   7711.18    1.161680e-03
   7711.47    1.187165e-03
   7711.76    1.212651e-03
   7712.04    1.238723e-03
   7712.33    1.268021e-03
   7712.62    1.297318e-03
   7712.91    1.326616e-03
   7713.20    1.359173e-03
   7713.49    1.393179e-03
   7713.78    1.427185e-03
   7714.07    1.462554e-03
   7714.36    1.502467e-03
   7714.64    1.542379e-03
   7714.93    1.582292e-03
   7715.22    1.628009e-03
   7715.51    1.675469e-03
   7715.80    1.722928e-03
   7716.09    1.773420e-03
   7716.38    1.830735e-03
   7716.67    1.888050e-03
   7716.96    1.945365e-03
   7717.24    2.013864e-03
   7717.53    2.084397e-03
   7717.82    2.154930e-03
   7718.11    2.232510e-03
   7718.40    2.321367e-03
   7718.69    2.410223e-03
   7718.98    2.499080e-03
   7719.27    2.612411e-03
   7719.56    2.727782e-03
   7719.84    2.843153e-03
   7720.13    2.977290e-03
   7720.42    3.133321e-03
   7720.71    3.289352e-03
   7721.00    3.445383e-03
   7721.29    3.669263e-03
   7721.58    3.893142e-03
   7721.87    4.117022e-03
   7722.16    4.410778e-03
   7722.44    4.764427e-03
   7722.73    5.118077e-03
   7723.02    5.496376e-03
   7723.31    6.170478e-03
   7723.60    6.844581e-03
   7723.89    7.518683e-03
   7724.18    8.886774e-03
   7724.47    1.068861e-02
   7724.76    1.249044e-02
   7725.04    1.446137e-02
   7725.33    1.742797e-02
   7725.62    2.055515e-02
   7725.91    2.391863e-02
   7726.20    2.762289e-02
   7726.49    3.191646e-02
   7726.78    3.677444e-02
   7727.07    4.227752e-02
   7727.36    4.823123e-02
   7727.64    5.446446e-02
   7727.93    6.087566e-02
   7728.22    6.753506e-02
   7728.51    7.470110e-02
   7728.80    8.247142e-02
   7729.09    9.092254e-02
   7729.38    9.953344e-02
   7729.67    1.075017e-01
   7729.96    1.140642e-01
   7730.24    1.186100e-01
   7730.53    1.208648e-01
   7730.82    1.213965e-01
   7731.11    1.208149e-01
   7731.40    1.196163e-01
   7731.69    1.181101e-01
   7731.98    1.164390e-01
   7732.27    1.146445e-01
   7732.56    1.127389e-01
   7732.84    1.107535e-01
   7733.13    1.087410e-01
   7733.42    1.067823e-01
   7733.71    1.049717e-01
   7734.00    1.033951e-01
   7734.29    1.021511e-01
   7734.58    1.012300e-01
   7734.87    1.006215e-01
   7735.16    1.002882e-01
   7735.44    1.001707e-01
   7735.73    1.001939e-01
   7736.02    1.002723e-01
   7736.31    1.003104e-01
   7736.60    1.002361e-01
   7736.89    9.999875e-02
   7737.18    9.957263e-02
   7737.47    9.895853e-02
   7737.76    9.817985e-02
   7738.04    9.727810e-02
   7738.33    9.632632e-02
   7738.62    9.538250e-02
   7738.91    9.449923e-02
   7739.20    9.371951e-02
   7739.49    9.307458e-02
   7739.78    9.259711e-02
   7740.07    9.232863e-02
   7740.36    9.231081e-02
   7740.64    9.229300e-02
   7740.93    9.227518e-02
   7741.22    9.252715e-02
   7741.51    9.286005e-02
   7741.80    9.319294e-02
   7742.09    9.354035e-02
   7742.38    9.392041e-02
   7742.67    9.430047e-02
   7742.96    9.468053e-02
   7743.24    9.487846e-02
   7743.53    9.504328e-02
   7743.82    9.520810e-02
   7744.11    9.524081e-02
   7744.40    9.506214e-02
   7744.69    9.488346e-02
   7744.98    9.470479e-02
   7745.27    9.423853e-02
   7745.56    9.374831e-02
   7745.84    9.325808e-02
   7746.13    9.268621e-02
   7746.42    9.201909e-02
   7746.71    9.135197e-02
   7747.00    9.068484e-02
   7747.29    8.997929e-02
   7747.58    8.927375e-02
   7747.87    8.856820e-02
   7748.16    8.788563e-02
   7748.44    8.722275e-02
   7748.73    8.655987e-02
   7749.02    8.590181e-02
   7749.31    8.530147e-02
   7749.60    8.470113e-02
   7749.89    8.410078e-02
   7750.18    8.352791e-02
   7750.47    8.297221e-02
   7750.76    8.241651e-02
   7751.04    8.186287e-02
   7751.33    8.132057e-02
   7751.62    8.077827e-02
   7751.91    8.023597e-02
   7752.20    7.968334e-02
   7752.49    7.912612e-02
   7752.78    7.856890e-02
   7753.07    7.800413e-02
   7753.36    7.741419e-02
   7753.64    7.682426e-02
   7753.93    7.623432e-02
   7754.22    7.561532e-02
   7754.51    7.498759e-02
   7754.80    7.435986e-02
   7755.09    7.372296e-02
   7755.38    7.306540e-02
   7755.67    7.240784e-02
   7755.96    7.175029e-02
   7756.24    7.108500e-02
   7756.53    7.041831e-02
   7756.82    6.975162e-02
   7757.11    6.909401e-02
   7757.40    6.845094e-02
   7757.69    6.780786e-02
   7757.98    6.716479e-02
   7758.27    6.658436e-02
   7758.56    6.600914e-02
   7758.84    6.543393e-02
   7759.13    6.491302e-02
   7759.42    6.445548e-02
   7759.71    6.399793e-02
   7760.00    6.354039e-02
