 FDMNES
  energy    <xanes>
   7695.00    5.231869e-04
   7695.29    5.290016e-04
   7695.58    5.348162e-04
   7695.87    5.406309e-04
   7696.16    5.466712e-04
   7696.44    5.529051e-04
   7696.73    5.591389e-04
   7697.02    5.654085e-04
   7697.31    5.721070e-04
   7697.60    5.788054e-04
   7697.89    5.855039e-04
   7698.18    5.925203e-04
   7698.47    5.997354e-04
   7698.76    6.069505e-04
   7699.04    6.142543e-04
   7699.33    6.220461e-04
   7699.62    6.298379e-04
   7699.91    6.376296e-04
   7700.20    6.458687e-04
   7700.49    6.543066e-04
   7700.78    6.627444e-04
   7701.07    6.713501e-04
   7701.36    6.805149e-04
   7701.64    6.896797e-04
   7701.93    6.988446e-04
   7702.22    7.086414e-04
   7702.51    7.186279e-04
   7702.80    7.286143e-04
   7703.09    7.388879e-04
   7703.38    7.498074e-04
   7703.67    7.607270e-04
   7703.96    7.716465e-04
   7704.24    7.834675e-04
   7704.53    7.954524e-04
   7704.82    8.074372e-04
   7705.11    8.198926e-04
   7705.40    8.331006e-04
   7705.69    8.463087e-04
   7705.98    8.595167e-04
   7706.27    8.740294e-04
   7706.56    8.886507e-04
   7706.84    9.032721e-04
   7707.13    9.186522e-04
   7707.42    9.349176e-04
   7707.71    9.511831e-04
   7708.00    9.674485e-04
   7708.29    9.856409e-04
   7708.58    1.003833e-03
   7708.87    1.022026e-03
   7709.16    1.041445e-03
   7709.44    1.061915e-03
   7709.73    1.082384e-03
   7710.02    1.103063e-03
   7710.31    1.126250e-03
   7710.60    1.149437e-03
   7710.89    1.172623e-03
   7711.18    1.197825e-03
   7711.47    1.224286e-03
   7711.76    1.250747e-03
   7712.04    1.277823e-03
   7712.33    1.308277e-03
   7712.62    1.338731e-03
   7712.91    1.369186e-03
   7713.20    1.403057e-03
   7713.49    1.438446e-03
   7713.78    1.473835e-03
   7714.07    1.510654e-03
   7714.36    1.552236e-03
   7714.64    1.593819e-03
   7714.93    1.635402e-03
   7715.22    1.683071e-03
   7715.51    1.732566e-03
   7715.80    1.782061e-03
   7716.09    1.834732e-03
   7716.38    1.894552e-03
   7716.67    1.954371e-03
   7716.96    2.014191e-03
   7717.24    2.085703e-03
   7717.53    2.159341e-03
   7717.82    2.232980e-03
   7718.11    2.313959e-03
   7718.40    2.406684e-03
   7718.69    2.499408e-03
   7718.98    2.592133e-03
   7719.27    2.710185e-03
   7719.56    2.830347e-03
   7719.84    2.950510e-03
   7720.13    3.089876e-03
   7720.42    3.251647e-03
   7720.71    3.413418e-03
   7721.00    3.575189e-03
   7721.29    3.805062e-03
   7721.58    4.034935e-03
   7721.87    4.264807e-03
   7722.16    4.562455e-03
   7722.44    4.918195e-03
   7722.73    5.273935e-03
   7723.02    5.652156e-03
   7723.31    6.300148e-03
   7723.60    6.948140e-03
   7723.89    7.596132e-03
   7724.18    8.830235e-03
   7724.47    1.043066e-02
   7724.76    1.203108e-02
   7725.04    1.377660e-02
   7725.33    1.640521e-02
   7725.62    1.929487e-02
   7725.91    2.260534e-02
   7726.20    2.645530e-02
   7726.49    3.120279e-02
   7726.78    3.684250e-02
   7727.07    4.362227e-02
   7727.36    5.132766e-02
   7727.64    5.964555e-02
   7727.93    6.819167e-02
   7728.22    7.687599e-02
   7728.51    8.590708e-02
   7728.80    9.529905e-02
   7729.09    1.048615e-01
   7729.38    1.141668e-01
   7729.67    1.226521e-01
   7729.96    1.299423e-01
   7730.24    1.356008e-01
   7730.53    1.391071e-01
   7730.82    1.404494e-01
   7731.11    1.397715e-01
   7731.40    1.374063e-01
   7731.69    1.338290e-01
   7731.98    1.295391e-01
   7732.27    1.249585e-01
   7732.56    1.204151e-01
   7732.84    1.160880e-01
   7733.13    1.120711e-01
   7733.42    1.084153e-01
   7733.71    1.051464e-01
   7734.00    1.022721e-01
   7734.29    9.983113e-02
   7734.58    9.775831e-02
   7734.87    9.602400e-02
   7735.16    9.458566e-02
   7735.44    9.338993e-02
   7735.73    9.237823e-02
   7736.02    9.149927e-02
   7736.31    9.069888e-02
   7736.60    8.994296e-02
   7736.89    8.922044e-02
   7737.18    8.853556e-02
   7737.47    8.790381e-02
   7737.76    8.734855e-02
   7738.04    8.690326e-02
   7738.33    8.657792e-02
   7738.62    8.638424e-02
   7738.91    8.632681e-02
   7739.20    8.640348e-02
   7739.49    8.660651e-02
   7739.78    8.693242e-02
   7740.07    8.737365e-02
   7740.36    8.792378e-02
   7740.64    8.847392e-02
   7740.93    8.902406e-02
   7741.22    8.960780e-02
   7741.51    9.020162e-02
   7741.80    9.079545e-02
   7742.09    9.134024e-02
   7742.38    9.177469e-02
   7742.67    9.220914e-02
   7742.96    9.264359e-02
   7743.24    9.281964e-02
   7743.53    9.294870e-02
   7743.82    9.307776e-02
   7744.11    9.307089e-02
   7744.40    9.284652e-02
   7744.69    9.262214e-02
   7744.98    9.239777e-02
   7745.27    9.189992e-02
   7745.56    9.137928e-02
   7745.84    9.085864e-02
   7746.13    9.025984e-02
   7746.42    8.956985e-02
   7746.71    8.887986e-02
   7747.00    8.818987e-02
   7747.29    8.746481e-02
   7747.58    8.673975e-02
   7747.87    8.601469e-02
   7748.16    8.532007e-02
   7748.44    8.465155e-02
   7748.73    8.398302e-02
   7749.02    8.332154e-02
   7749.31    8.274452e-02
   7749.60    8.216751e-02
   7749.89    8.159049e-02
   7750.18    8.106461e-02
   7750.47    8.057069e-02
   7750.76    8.007676e-02
   7751.04    7.959098e-02
   7751.33    7.914996e-02
   7751.62    7.870894e-02
   7751.91    7.826792e-02
   7752.20    7.783961e-02
   7752.49    7.741694e-02
   7752.78    7.699427e-02
   7753.07    7.656936e-02
   7753.36    7.613698e-02
   7753.64    7.570461e-02
   7753.93    7.527223e-02
   7754.22    7.482038e-02
   7754.51    7.436268e-02
   7754.80    7.390499e-02
   7755.09    7.343962e-02
   7755.38    7.295697e-02
   7755.67    7.247433e-02
   7755.96    7.199169e-02
   7756.24    7.150258e-02
   7756.53    7.101231e-02
   7756.82    7.052203e-02
   7757.11    7.004068e-02
   7757.40    6.957361e-02
   7757.69    6.910653e-02
   7757.98    6.863946e-02
   7758.27    6.822759e-02
   7758.56    6.782033e-02
   7758.84    6.741306e-02
   7759.13    6.704794e-02
   7759.42    6.673200e-02
   7759.71    6.641606e-02
   7760.00    6.610012e-02
