    Energy    <xanes>    
  -25.0000  1.7283103E-04
  -24.0000  1.7921640E-04
  -23.0000  1.8604357E-04
  -22.0000  1.9335853E-04
  -21.0000  2.0121378E-04
  -20.0000  2.0966951E-04
  -19.0000  2.1879506E-04
  -18.0000  2.2867069E-04
  -17.0000  2.3938983E-04
  -16.0000  2.5106189E-04
  -15.0000  2.6381574E-04
  -14.0000  2.7780429E-04
  -13.0000  2.9321028E-04
  -12.0000  3.1025395E-04
  -11.0000  3.2920310E-04
  -10.0000  3.5038667E-04
  -9.00000  3.7421316E-04
  -8.00000  4.0119630E-04
  -7.00000  4.3199133E-04
  -6.00000  4.6744751E-04
  -5.00000  5.0868618E-04
  -4.00000  5.5722046E-04
  -3.00000  6.1514521E-04
  -2.00000  6.8545251E-04
  -1.00000  7.7258389E-04
   0.00000  8.8346558E-04
   1.00000  1.0296314E-03
   2.00000  1.2321482E-03
   3.00000  1.5353298E-03
   4.00000  2.0578212E-03
   5.00000  3.2527924E-03
   5.20000  3.6677187E-03
   5.40000  4.1654830E-03
   5.60000  4.7584636E-03
   5.80000  5.4531195E-03
   6.00000  6.2360947E-03
   6.20000  7.0729945E-03
   6.40000  7.9314472E-03
   6.60000  8.8080829E-03
   6.80000  9.7190047E-03
   7.00000  1.0659886E-02
   7.20000  1.1584515E-02
   7.40000  1.2434963E-02
   7.60000  1.3204452E-02
   7.80000  1.3960914E-02
   8.00000  1.4800378E-02
   8.20000  1.5792519E-02
   8.40000  1.6954651E-02
   8.60000  1.8238625E-02
   8.80000  1.9532894E-02
   9.00000  2.0707943E-02
   9.20000  2.1709531E-02
   9.40000  2.2625765E-02
   9.60000  2.3642929E-02
   9.80000  2.4931804E-02
   10.0000  2.6575104E-02
   10.2500  2.9104950E-02
   10.5000  3.1994192E-02
   10.7500  3.4946213E-02
   11.0000  3.7602076E-02
   11.2500  3.9649802E-02
   11.5000  4.0947457E-02
   11.7500  4.1577525E-02
   12.0000  4.1792025E-02
   12.2500  4.1870651E-02
   12.5000  4.1972141E-02
   12.7500  4.2067970E-02
   13.0000  4.1990539E-02
   13.2500  4.1562191E-02
   13.5000  4.0715891E-02
   13.7500  3.9522404E-02
   14.0000  3.8129853E-02
   14.2500  3.6689719E-02
   14.5000  3.5317206E-02
   14.7500  3.4084043E-02
   15.0000  3.3025804E-02
   15.2500  3.2152179E-02
   15.5000  3.1456171E-02
   15.7500  3.0921386E-02
   16.0000  3.0527667E-02
   16.2500  3.0255441E-02
   16.5000  3.0088621E-02
   16.7500  3.0015620E-02
   17.0000  3.0028611E-02
   17.2500  3.0121725E-02
   17.5000  3.0289122E-02
   17.7500  3.0523593E-02
   18.0000  3.0815907E-02
   18.2500  3.1154851E-02
   18.5000  3.1527723E-02
   18.7500  3.1921103E-02
   19.0000  3.2321713E-02
   19.2500  3.2717259E-02
   19.5000  3.3097117E-02
   19.7500  3.3452761E-02
   20.0000  3.3777792E-02
   21.0000  3.4695511E-02
   22.0000  3.4972747E-02
   23.0000  3.4776067E-02
   24.0000  3.4304447E-02
   25.0000  3.3706424E-02
   26.0000  3.3088331E-02
   27.0000  3.2486276E-02
   28.0000  3.1882410E-02
   29.0000  3.1234617E-02
   30.0000  3.0508196E-02
   31.0000  2.9690744E-02
   32.0000  2.8795833E-02
   33.0000  2.7860565E-02
   34.0000  2.6932905E-02
   35.0000  2.6055098E-02
   36.0000  2.5254192E-02
   37.0000  2.4541578E-02
   38.0000  2.3919422E-02
   39.0000  2.3392711E-02
   40.0000  2.2979417E-02
