 FDMNES
  energy    <xanes>
   7695.00    5.140004e-04
   7695.29    5.195460e-04
   7695.58    5.250916e-04
   7695.87    5.306372e-04
   7696.16    5.363928e-04
   7696.44    5.423285e-04
   7696.73    5.482642e-04
   7697.02    5.542330e-04
   7697.31    5.606003e-04
   7697.60    5.669675e-04
   7697.89    5.733347e-04
   7698.18    5.799967e-04
   7698.47    5.868429e-04
   7698.76    5.936891e-04
   7699.04    6.006174e-04
   7699.33    6.079973e-04
   7699.62    6.153771e-04
   7699.91    6.227569e-04
   7700.20    6.305498e-04
   7700.49    6.385264e-04
   7700.78    6.465029e-04
   7701.07    6.546341e-04
   7701.36    6.632807e-04
   7701.64    6.719274e-04
   7701.93    6.805740e-04
   7702.22    6.898020e-04
   7702.51    6.992044e-04
   7702.80    7.086069e-04
   7703.09    7.182729e-04
   7703.38    7.285321e-04
   7703.67    7.387912e-04
   7703.96    7.490503e-04
   7704.24    7.601354e-04
   7704.53    7.713706e-04
   7704.82    7.826059e-04
   7705.11    7.942714e-04
   7705.40    8.066253e-04
   7705.69    8.189791e-04
   7705.98    8.313330e-04
   7706.27    8.448777e-04
   7706.56    8.585216e-04
   7706.84    8.721655e-04
   7707.13    8.865007e-04
   7707.42    9.016426e-04
   7707.71    9.167845e-04
   7708.00    9.319264e-04
   7708.29    9.488212e-04
   7708.58    9.657160e-04
   7708.87    9.826108e-04
   7709.16    1.000620e-03
   7709.44    1.019583e-03
   7709.73    1.038547e-03
   7710.02    1.057700e-03
   7710.31    1.079128e-03
   7710.60    1.100556e-03
   7710.89    1.121985e-03
   7711.18    1.145240e-03
   7711.47    1.169637e-03
   7711.76    1.194034e-03
   7712.04    1.218988e-03
   7712.33    1.247005e-03
   7712.62    1.275022e-03
   7712.91    1.303039e-03
   7713.20    1.334155e-03
   7713.49    1.366648e-03
   7713.78    1.399141e-03
   7714.07    1.432933e-03
   7714.36    1.471054e-03
   7714.64    1.509175e-03
   7714.93    1.547296e-03
   7715.22    1.590966e-03
   7715.51    1.636301e-03
   7715.80    1.681636e-03
   7716.09    1.729884e-03
   7716.38    1.784685e-03
   7716.67    1.839486e-03
   7716.96    1.894287e-03
   7717.24    1.959905e-03
   7717.53    2.027490e-03
   7717.82    2.095076e-03
   7718.11    2.169547e-03
   7718.40    2.255036e-03
   7718.69    2.340524e-03
   7718.98    2.426013e-03
   7719.27    2.535779e-03
   7719.56    2.647567e-03
   7719.84    2.759355e-03
   7720.13    2.890187e-03
   7720.42    3.043237e-03
   7720.71    3.196287e-03
   7721.00    3.349336e-03
   7721.29    3.573756e-03
   7721.58    3.798176e-03
   7721.87    4.022597e-03
   7722.16    4.325018e-03
   7722.44    4.694296e-03
   7722.73    5.063575e-03
   7723.02    5.463286e-03
   7723.31    6.228178e-03
   7723.60    6.993070e-03
   7723.89    7.757962e-03
   7724.18    9.467471e-03
   7724.47    1.176736e-02
   7724.76    1.406726e-02
   7725.04    1.656371e-02
   7725.33    2.007651e-02
   7725.62    2.327592e-02
   7725.91    2.613888e-02
   7726.20    2.892269e-02
   7726.49    3.188396e-02
   7726.78    3.519285e-02
   7727.07    3.913721e-02
   7727.36    4.385279e-02
   7727.64    4.955687e-02
   7727.93    5.631700e-02
   7728.22    6.394416e-02
   7728.51    7.204781e-02
   7728.80    7.988626e-02
   7729.09    8.653385e-02
   7729.38    9.187848e-02
   7729.67    9.583121e-02
   7729.96    9.876147e-02
   7730.24    1.007152e-01
   7730.53    1.015036e-01
   7730.82    1.011550e-01
   7731.11    9.982792e-02
   7731.40    9.783626e-02
   7731.69    9.557363e-02
   7731.98    9.340607e-02
   7732.27    9.163448e-02
   7732.56    9.044175e-02
   7732.84    8.984451e-02
   7733.13    8.982330e-02
   7733.42    9.032212e-02
   7733.71    9.126785e-02
   7734.00    9.257786e-02
   7734.29    9.418150e-02
   7734.58    9.593559e-02
   7734.87    9.773164e-02
   7735.16    9.945876e-02
   7735.44    1.010097e-01
   7735.73    1.022888e-01
   7736.02    1.031939e-01
   7736.31    1.036832e-01
   7736.60    1.037722e-01
   7736.89    1.034916e-01
   7737.18    1.028992e-01
   7737.47    1.020703e-01
   7737.76    1.010858e-01
   7738.04    1.000281e-01
   7738.33    9.897836e-02
   7738.62    9.799030e-02
   7738.91    9.710424e-02
   7739.20    9.634787e-02
   7739.49    9.573787e-02
   7739.78    9.529459e-02
   7740.07    9.504826e-02
   7740.36    9.503395e-02
   7740.64    9.501964e-02
   7740.93    9.500533e-02
   7741.22    9.525495e-02
   7741.51    9.558375e-02
   7741.80    9.591256e-02
   7742.09    9.627311e-02
   7742.38    9.670509e-02
   7742.67    9.713707e-02
   7742.96    9.756905e-02
   7743.24    9.787734e-02
   7743.53    9.816314e-02
   7743.82    9.844893e-02
   7744.11    9.860850e-02
   7744.40    9.856610e-02
   7744.69    9.852371e-02
   7744.98    9.848131e-02
   7745.27    9.809303e-02
   7745.56    9.767592e-02
   7745.84    9.725881e-02
   7746.13    9.671094e-02
   7746.42    9.601052e-02
   7746.71    9.531009e-02
   7747.00    9.460967e-02
   7747.29    9.377872e-02
   7747.58    9.294777e-02
   7747.87    9.211682e-02
   7748.16    9.128406e-02
   7748.44    9.044975e-02
   7748.73    8.961545e-02
   7749.02    8.878593e-02
   7749.31    8.801385e-02
   7749.60    8.724177e-02
   7749.89    8.646969e-02
   7750.18    8.574420e-02
   7750.47    8.504782e-02
   7750.76    8.435144e-02
   7751.04    8.366434e-02
   7751.33    8.302823e-02
   7751.62    8.239212e-02
   7751.91    8.175602e-02
   7752.20    8.114514e-02
   7752.49    8.054547e-02
   7752.78    7.994580e-02
   7753.07    7.935004e-02
   7753.36    7.876731e-02
   7753.64    7.818457e-02
   7753.93    7.760184e-02
   7754.22    7.702531e-02
   7754.51    7.645065e-02
   7754.80    7.587599e-02
   7755.09    7.530538e-02
   7755.38    7.474388e-02
   7755.67    7.418238e-02
   7755.96    7.362088e-02
   7756.24    7.308638e-02
   7756.53    7.255679e-02
   7756.82    7.202720e-02
   7757.11    7.152012e-02
   7757.40    7.104904e-02
   7757.69    7.057796e-02
   7757.98    7.010688e-02
   7758.27    6.971289e-02
   7758.56    6.932532e-02
   7758.84    6.893775e-02
   7759.13    6.859535e-02
   7759.42    6.830563e-02
   7759.71    6.801591e-02
   7760.00    6.772618e-02
