 FDMNES
  energy    <xanes>
   7695.00    5.374000e-04
   7695.29    5.431044e-04
   7695.58    5.488088e-04
   7695.87    5.545132e-04
   7696.16    5.604310e-04
   7696.44    5.665315e-04
   7696.73    5.726321e-04
   7697.02    5.787663e-04
   7697.31    5.853047e-04
   7697.60    5.918430e-04
   7697.89    5.983814e-04
   7698.18    6.052184e-04
   7698.47    6.122421e-04
   7698.76    6.192658e-04
   7699.04    6.263726e-04
   7699.33    6.339363e-04
   7699.62    6.415001e-04
   7699.91    6.490638e-04
   7700.20    6.570451e-04
   7700.49    6.652120e-04
   7700.78    6.733788e-04
   7701.07    6.817018e-04
   7701.36    6.905450e-04
   7701.64    6.993881e-04
   7701.93    7.082313e-04
   7702.22    7.176604e-04
   7702.51    7.272653e-04
   7702.80    7.368702e-04
   7703.09    7.467404e-04
   7703.38    7.572073e-04
   7703.67    7.676741e-04
   7703.96    7.781410e-04
   7704.24    7.894375e-04
   7704.53    8.008849e-04
   7704.82    8.123322e-04
   7705.11    8.242109e-04
   7705.40    8.367797e-04
   7705.69    8.493486e-04
   7705.98    8.619174e-04
   7706.27    8.756776e-04
   7706.56    8.895372e-04
   7706.84    9.033967e-04
   7707.13    9.179464e-04
   7707.42    9.333015e-04
   7707.71    9.486565e-04
   7708.00    9.640115e-04
   7708.29    9.811122e-04
   7708.58    9.982130e-04
   7708.87    1.015314e-03
   7709.16    1.033521e-03
   7709.44    1.052676e-03
   7709.73    1.071832e-03
   7710.02    1.091175e-03
   7710.31    1.112772e-03
   7710.60    1.134369e-03
   7710.89    1.155965e-03
   7711.18    1.179366e-03
   7711.47    1.203893e-03
   7711.76    1.228421e-03
   7712.04    1.253496e-03
   7712.33    1.281585e-03
   7712.62    1.309673e-03
   7712.91    1.337761e-03
   7713.20    1.368886e-03
   7713.49    1.401361e-03
   7713.78    1.433836e-03
   7714.07    1.467577e-03
   7714.36    1.505542e-03
   7714.64    1.543507e-03
   7714.93    1.581472e-03
   7715.22    1.624825e-03
   7715.51    1.669794e-03
   7715.80    1.714763e-03
   7716.09    1.762545e-03
   7716.38    1.816655e-03
   7716.67    1.870765e-03
   7716.96    1.924876e-03
   7717.24    1.989371e-03
   7717.53    2.055755e-03
   7717.82    2.122138e-03
   7718.11    2.195091e-03
   7718.40    2.278554e-03
   7718.69    2.362017e-03
   7718.98    2.445480e-03
   7719.27    2.551949e-03
   7719.56    2.660334e-03
   7719.84    2.768719e-03
   7720.13    2.895033e-03
   7720.42    3.042263e-03
   7720.71    3.189493e-03
   7721.00    3.336724e-03
   7721.29    3.550768e-03
   7721.58    3.764813e-03
   7721.87    3.978857e-03
   7722.16    4.265683e-03
   7722.44    4.614893e-03
   7722.73    4.964103e-03
   7723.02    5.341717e-03
   7723.31    6.060170e-03
   7723.60    6.778623e-03
   7723.89    7.497076e-03
   7724.18    9.107211e-03
   7724.47    1.127465e-02
   7724.76    1.344208e-02
   7725.04    1.580638e-02
   7725.33    1.921111e-02
   7725.62    2.231779e-02
   7725.91    2.496268e-02
   7726.20    2.738838e-02
   7726.49    2.989918e-02
   7726.78    3.269028e-02
   7727.07    3.591093e-02
   7727.36    3.954304e-02
   7727.64    4.359853e-02
   7727.93    4.803794e-02
   7728.22    5.278135e-02
   7728.51    5.781053e-02
   7728.80    6.308843e-02
   7729.09    6.875635e-02
   7729.38    7.480894e-02
   7729.67    8.129766e-02
   7729.96    8.803634e-02
   7730.24    9.475607e-02
   7730.53    1.010311e-01
   7730.82    1.064912e-01
   7731.11    1.108531e-01
   7731.40    1.139451e-01
   7731.69    1.157407e-01
   7731.98    1.163463e-01
   7732.27    1.159211e-01
   7732.56    1.147291e-01
   7732.84    1.130748e-01
   7733.13    1.111746e-01
   7733.42    1.092113e-01
   7733.71    1.073304e-01
   7734.00    1.056393e-01
   7734.29    1.042448e-01
   7734.58    1.031526e-01
   7734.87    1.023674e-01
   7735.16    1.018724e-01
   7735.44    1.016332e-01
   7735.73    1.016017e-01
   7736.02    1.017257e-01
   7736.31    1.019301e-01
   7736.60    1.021463e-01
   7736.89    1.023210e-01
   7737.18    1.024135e-01
   7737.47    1.023991e-01
   7737.76    1.022678e-01
   7738.04    1.020192e-01
   7738.33    1.016858e-01
   7738.62    1.012946e-01
   7738.91    1.008749e-01
   7739.20    1.004554e-01
   7739.49    1.000617e-01
   7739.78    9.972015e-02
   7740.07    9.946881e-02
   7740.36    9.934596e-02
   7740.64    9.922312e-02
   7740.93    9.910027e-02
   7741.22    9.916673e-02
   7741.51    9.928997e-02
   7741.80    9.941322e-02
   7742.09    9.956062e-02
   7742.38    9.976237e-02
   7742.67    9.996412e-02
   7742.96    1.001659e-01
   7743.24    1.002331e-01
   7743.53    1.002758e-01
   7743.82    1.003185e-01
   7744.11    1.002396e-01
   7744.40    9.996623e-02
   7744.69    9.969286e-02
   7744.98    9.941948e-02
   7745.27    9.886855e-02
   7745.56    9.829449e-02
   7745.84    9.772043e-02
   7746.13    9.707299e-02
   7746.42    9.633993e-02
   7746.71    9.560687e-02
   7747.00    9.487381e-02
   7747.29    9.412467e-02
   7747.58    9.337554e-02
   7747.87    9.262641e-02
   7748.16    9.191473e-02
   7748.44    9.123516e-02
   7748.73    9.055558e-02
   7749.02    8.988361e-02
   7749.31    8.930294e-02
   7749.60    8.872228e-02
   7749.89    8.814161e-02
   7750.18    8.761708e-02
   7750.47    8.712763e-02
   7750.76    8.663818e-02
   7751.04    8.615904e-02
   7751.33    8.573655e-02
   7751.62    8.531406e-02
   7751.91    8.489157e-02
   7752.20    8.449642e-02
   7752.49    8.411342e-02
   7752.78    8.373042e-02
   7753.07    8.335069e-02
   7753.36    8.298187e-02
   7753.64    8.261305e-02
   7753.93    8.224423e-02
   7754.22    8.186963e-02
   7754.51    8.149330e-02
   7754.80    8.111697e-02
   7755.09    8.073330e-02
   7755.38    8.033310e-02
   7755.67    7.993290e-02
   7755.96    7.953270e-02
   7756.24    7.910622e-02
   7756.53    7.867496e-02
   7756.82    7.824369e-02
   7757.11    7.780368e-02
   7757.40    7.734966e-02
   7757.69    7.689564e-02
   7757.98    7.644162e-02
   7758.27    7.599620e-02
   7758.56    7.555151e-02
   7758.84    7.510682e-02
   7759.13    7.469301e-02
   7759.42    7.431524e-02
   7759.71    7.393746e-02
   7760.00    7.355969e-02
