 FDMNES
  energy    <xanes>
   7695.00    5.237085e-04
   7695.29    5.291669e-04
   7695.58    5.346253e-04
   7695.87    5.400836e-04
   7696.16    5.457476e-04
   7696.44    5.515879e-04
   7696.73    5.574281e-04
   7697.02    5.633009e-04
   7697.31    5.695641e-04
   7697.60    5.758272e-04
   7697.89    5.820904e-04
   7698.18    5.886428e-04
   7698.47    5.953760e-04
   7698.76    6.021092e-04
   7699.04    6.089231e-04
   7699.33    6.161807e-04
   7699.62    6.234382e-04
   7699.91    6.306958e-04
   7700.20    6.383601e-04
   7700.49    6.462051e-04
   7700.78    6.540501e-04
   7701.07    6.620476e-04
   7701.36    6.705535e-04
   7701.64    6.790595e-04
   7701.93    6.875654e-04
   7702.22    6.966460e-04
   7702.51    7.058991e-04
   7702.80    7.151522e-04
   7703.09    7.246665e-04
   7703.38    7.347686e-04
   7703.67    7.448707e-04
   7703.96    7.549728e-04
   7704.24    7.658958e-04
   7704.53    7.769680e-04
   7704.82    7.880403e-04
   7705.11    7.995415e-04
   7705.40    8.117292e-04
   7705.69    8.239169e-04
   7705.98    8.361046e-04
   7706.27    8.494840e-04
   7706.56    8.629628e-04
   7706.84    8.764415e-04
   7707.13    8.906151e-04
   7707.42    9.055994e-04
   7707.71    9.205836e-04
   7708.00    9.355679e-04
   7708.29    9.523220e-04
   7708.58    9.690762e-04
   7708.87    9.858304e-04
   7709.16    1.003715e-03
   7709.44    1.022570e-03
   7709.73    1.041424e-03
   7710.02    1.060472e-03
   7710.31    1.081843e-03
   7710.60    1.103214e-03
   7710.89    1.124586e-03
   7711.18    1.147835e-03
   7711.47    1.172259e-03
   7711.76    1.196683e-03
   7712.04    1.221684e-03
   7712.33    1.249858e-03
   7712.62    1.278032e-03
   7712.91    1.306206e-03
   7713.20    1.337620e-03
   7713.49    1.370472e-03
   7713.78    1.403325e-03
   7714.07    1.437549e-03
   7714.36    1.476342e-03
   7714.64    1.515135e-03
   7714.93    1.553928e-03
   7715.22    1.598645e-03
   7715.51    1.645138e-03
   7715.80    1.691632e-03
   7716.09    1.741274e-03
   7716.38    1.798002e-03
   7716.67    1.854731e-03
   7716.96    1.911459e-03
   7717.24    1.980054e-03
   7717.53    2.050807e-03
   7717.82    2.121560e-03
   7718.11    2.199994e-03
   7718.40    2.290719e-03
   7718.69    2.381443e-03
   7718.98    2.472168e-03
   7719.27    2.590492e-03
   7719.56    2.711117e-03
   7719.84    2.831742e-03
   7720.13    2.974492e-03
   7720.42    3.143055e-03
   7720.71    3.311619e-03
   7721.00    3.480182e-03
   7721.29    3.733708e-03
   7721.58    3.987234e-03
   7721.87    4.240759e-03
   7722.16    4.589626e-03
   7722.44    5.020213e-03
   7722.73    5.450800e-03
   7723.02    5.919565e-03
   7723.31    6.846463e-03
   7723.60    7.773362e-03
   7723.89    8.700260e-03
   7724.18    1.082243e-02
   7724.47    1.369166e-02
   7724.76    1.656088e-02
   7725.04    1.966753e-02
   7725.33    2.398626e-02
   7725.62    2.794067e-02
   7725.91    3.165861e-02
   7726.20    3.550337e-02
   7726.49    3.983445e-02
   7726.78    4.474546e-02
   7727.07    5.046246e-02
   7727.36    5.692902e-02
   7727.64    6.405781e-02
   7727.93    7.152397e-02
   7728.22    7.881480e-02
   7728.51    8.532031e-02
   7728.80    9.079844e-02
   7729.09    9.488373e-02
   7729.38    9.790046e-02
   7729.67    9.973869e-02
   7729.96    1.005403e-01
   7730.24    1.003255e-01
   7730.53    9.916519e-02
   7730.82    9.736899e-02
   7731.11    9.519749e-02
   7731.40    9.286038e-02
   7731.69    9.050720e-02
   7731.98    8.823043e-02
   7732.27    8.608988e-02
   7732.56    8.412391e-02
   7732.84    8.235036e-02
   7733.13    8.079216e-02
   7733.42    7.946052e-02
   7733.71    7.834951e-02
   7734.00    7.743517e-02
   7734.29    7.669206e-02
   7734.58    7.605010e-02
   7734.87    7.546447e-02
   7735.16    7.490058e-02
   7735.44    7.433960e-02
   7735.73    7.378039e-02
   7736.02    7.324070e-02
   7736.31    7.275057e-02
   7736.60    7.233888e-02
   7736.89    7.203214e-02
   7737.18    7.185010e-02
   7737.47    7.180442e-02
   7737.76    7.190154e-02
   7738.04    7.215044e-02
   7738.33    7.252982e-02
   7738.62    7.303076e-02
   7738.91    7.364363e-02
   7739.20    7.435897e-02
   7739.49    7.516802e-02
   7739.78    7.606931e-02
   7740.07    7.706447e-02
   7740.36    7.815722e-02
   7740.64    7.924998e-02
   7740.93    8.034274e-02
   7741.22    8.149435e-02
   7741.51    8.266363e-02
   7741.80    8.383290e-02
   7742.09    8.496861e-02
   7742.38    8.602881e-02
   7742.67    8.708900e-02
   7742.96    8.814920e-02
   7743.24    8.895702e-02
   7743.53    8.971895e-02
   7743.82    9.048088e-02
   7744.11    9.108023e-02
   7744.40    9.141945e-02
   7744.69    9.175866e-02
   7744.98    9.209788e-02
   7745.27    9.205261e-02
   7745.56    9.197530e-02
   7745.84    9.189799e-02
   7746.13    9.168742e-02
   7746.42    9.132137e-02
   7746.71    9.095532e-02
   7747.00    9.058927e-02
   7747.29    9.009838e-02
   7747.58    8.960749e-02
   7747.87    8.911660e-02
   7748.16    8.862124e-02
   7748.44    8.812207e-02
   7748.73    8.762289e-02
   7749.02    8.712678e-02
   7749.31    8.666752e-02
   7749.60    8.620827e-02
   7749.89    8.574901e-02
   7750.18    8.531796e-02
   7750.47    8.490453e-02
   7750.76    8.449111e-02
   7751.04    8.408359e-02
   7751.33    8.370858e-02
   7751.62    8.333357e-02
   7751.91    8.295856e-02
   7752.20    8.260493e-02
   7752.49    8.226080e-02
   7752.78    8.191667e-02
   7753.07    8.157845e-02
   7753.36    8.125994e-02
   7753.64    8.094144e-02
   7753.93    8.062293e-02
   7754.22    8.032159e-02
   7754.51    8.002539e-02
   7754.80    7.972919e-02
   7755.09    7.943959e-02
   7755.38    7.916484e-02
   7755.67    7.889009e-02
   7755.96    7.861534e-02
   7756.24    7.836110e-02
   7756.53    7.811059e-02
   7756.82    7.786008e-02
   7757.11    7.762143e-02
   7757.40    7.740173e-02
   7757.69    7.718204e-02
   7757.98    7.696235e-02
   7758.27    7.677905e-02
   7758.56    7.659878e-02
   7758.84    7.641851e-02
   7759.13    7.625948e-02
   7759.42    7.612521e-02
   7759.71    7.599095e-02
   7760.00    7.585669e-02
