 FDMNES
  energy    <xanes>
   7695.00    5.360636e-04
   7695.29    5.415437e-04
   7695.58    5.470238e-04
   7695.87    5.525039e-04
   7696.16    5.581836e-04
   7696.44    5.640342e-04
   7696.73    5.698849e-04
   7697.02    5.757670e-04
   7697.31    5.820264e-04
   7697.60    5.882858e-04
   7697.89    5.945452e-04
   7698.18    6.010830e-04
   7698.47    6.077948e-04
   7698.76    6.145066e-04
   7699.04    6.212957e-04
   7699.33    6.285098e-04
   7699.62    6.357240e-04
   7699.91    6.429381e-04
   7700.20    6.505399e-04
   7700.49    6.583140e-04
   7700.78    6.660881e-04
   7701.07    6.740069e-04
   7701.36    6.824077e-04
   7701.64    6.908085e-04
   7701.93    6.992093e-04
   7702.22    7.081519e-04
   7702.51    7.172571e-04
   7702.80    7.263622e-04
   7703.09    7.357122e-04
   7703.38    7.456128e-04
   7703.67    7.555134e-04
   7703.96    7.654140e-04
   7704.24    7.760785e-04
   7704.53    7.868819e-04
   7704.82    7.976854e-04
   7705.11    8.088851e-04
   7705.40    8.207189e-04
   7705.69    8.325527e-04
   7705.98    8.443865e-04
   7706.27    8.573124e-04
   7706.56    8.703293e-04
   7706.84    8.833462e-04
   7707.13    8.969943e-04
   7707.42    9.113788e-04
   7707.71    9.257633e-04
   7708.00    9.401478e-04
   7708.29    9.561249e-04
   7708.58    9.721019e-04
   7708.87    9.880790e-04
   7709.16    1.005063e-03
   7709.44    1.022910e-03
   7709.73    1.040756e-03
   7710.02    1.058774e-03
   7710.31    1.078836e-03
   7710.60    1.098898e-03
   7710.89    1.118960e-03
   7711.18    1.140655e-03
   7711.47    1.163369e-03
   7711.76    1.186084e-03
   7712.04    1.209293e-03
   7712.33    1.235221e-03
   7712.62    1.261149e-03
   7712.91    1.287077e-03
   7713.20    1.315736e-03
   7713.49    1.345610e-03
   7713.78    1.375484e-03
   7714.07    1.406493e-03
   7714.36    1.441289e-03
   7714.64    1.476085e-03
   7714.93    1.510880e-03
   7715.22    1.550488e-03
   7715.51    1.591540e-03
   7715.80    1.632591e-03
   7716.09    1.676144e-03
   7716.38    1.725325e-03
   7716.67    1.774506e-03
   7716.96    1.823687e-03
   7717.24    1.882057e-03
   7717.53    1.942097e-03
   7717.82    2.002137e-03
   7718.11    2.067952e-03
   7718.40    2.143007e-03
   7718.69    2.218062e-03
   7718.98    2.293118e-03
   7719.27    2.388228e-03
   7719.56    2.485009e-03
   7719.84    2.581790e-03
   7720.13    2.694018e-03
   7720.42    2.824266e-03
   7720.71    2.954514e-03
   7721.00    3.084762e-03
   7721.29    3.271584e-03
   7721.58    3.458405e-03
   7721.87    3.645227e-03
   7722.16    3.892077e-03
   7722.44    4.190381e-03
   7722.73    4.488685e-03
   7723.02    4.809547e-03
   7723.31    5.401108e-03
   7723.60    5.992669e-03
   7723.89    6.584229e-03
   7724.18    7.854253e-03
   7724.47    9.548315e-03
   7724.76    1.124238e-02
   7725.04    1.308046e-02
   7725.33    1.568429e-02
   7725.62    1.813501e-02
   7725.91    2.042387e-02
   7726.20    2.270044e-02
   7726.49    2.514053e-02
   7726.78    2.786122e-02
   7727.07    3.108548e-02
   7727.36    3.491951e-02
   7727.64    3.955907e-02
   7727.93    4.513641e-02
   7728.22    5.165524e-02
   7728.51    5.909120e-02
   7728.80    6.695363e-02
   7729.09    7.448694e-02
   7729.38    8.092077e-02
   7729.67    8.541480e-02
   7729.96    8.813907e-02
   7730.24    8.951815e-02
   7730.53    9.006730e-02
   7730.82    9.019215e-02
   7731.11    8.998907e-02
   7731.40    8.946811e-02
   7731.69    8.867063e-02
   7731.98    8.770192e-02
   7732.27    8.671435e-02
   7732.56    8.586671e-02
   7732.84    8.525346e-02
   7733.13    8.493154e-02
   7733.42    8.492758e-02
   7733.71    8.524490e-02
   7734.00    8.586833e-02
   7734.29    8.679414e-02
   7734.58    8.793836e-02
   7734.87    8.924399e-02
   7735.16    9.064981e-02
   7735.44    9.209419e-02
   7735.73    9.351809e-02
   7736.02    9.485890e-02
   7736.31    9.606503e-02
   7736.60    9.710547e-02
   7736.89    9.795689e-02
   7737.18    9.860937e-02
   7737.47    9.906678e-02
   7737.76    9.934302e-02
   7738.04    9.945597e-02
   7738.33    9.945744e-02
   7738.62    9.938330e-02
   7738.91    9.926832e-02
   7739.20    9.914403e-02
   7739.49    9.903739e-02
   7739.78    9.897474e-02
   7740.07    9.899395e-02
   7740.36    9.913302e-02
   7740.64    9.927209e-02
   7740.93    9.941116e-02
   7741.22    9.974488e-02
   7741.51    1.001370e-01
   7741.80    1.005291e-01
   7742.09    1.009658e-01
   7742.38    1.015029e-01
   7742.67    1.020400e-01
   7742.96    1.025771e-01
   7743.24    1.030675e-01
   7743.53    1.035494e-01
   7743.82    1.040313e-01
   7744.11    1.044047e-01
   7744.40    1.046042e-01
   7744.69    1.048038e-01
   7744.98    1.050034e-01
   7745.27    1.047982e-01
   7745.56    1.045592e-01
   7745.84    1.043203e-01
   7746.13    1.038825e-01
   7746.42    1.032128e-01
   7746.71    1.025431e-01
   7747.00    1.018734e-01
   7747.29    1.009344e-01
   7747.58    9.999533e-02
   7747.87    9.905630e-02
   7748.16    9.808109e-02
   7748.44    9.707486e-02
   7748.73    9.606863e-02
   7749.02    9.506829e-02
   7749.31    9.413869e-02
   7749.60    9.320909e-02
   7749.89    9.227949e-02
   7750.18    9.143617e-02
   7750.47    9.064676e-02
   7750.76    8.985736e-02
   7751.04    8.909054e-02
   7751.33    8.844794e-02
   7751.62    8.780534e-02
   7751.91    8.716274e-02
   7752.20    8.660601e-02
   7752.49    8.608744e-02
   7752.78    8.556887e-02
   7753.07    8.507120e-02
   7753.36    8.464320e-02
   7753.64    8.421520e-02
   7753.93    8.378720e-02
   7754.22    8.340533e-02
   7754.51    8.303730e-02
   7754.80    8.266927e-02
   7755.09    8.231327e-02
   7755.38    8.198432e-02
   7755.67    8.165538e-02
   7755.96    8.132644e-02
   7756.24    8.101759e-02
   7756.53    8.071240e-02
   7756.82    8.040720e-02
   7757.11    8.010856e-02
   7757.40    7.982041e-02
   7757.69    7.953226e-02
   7757.98    7.924411e-02
   7758.27    7.897850e-02
   7758.56    7.871476e-02
   7758.84    7.845102e-02
   7759.13    7.820864e-02
   7759.42    7.799117e-02
   7759.71    7.777371e-02
   7760.00    7.755624e-02
