 FDMNES
  energy    <xanes>
   7695.00    5.454467e-04
   7695.29    5.510984e-04
   7695.58    5.567501e-04
   7695.87    5.624018e-04
   7696.16    5.682636e-04
   7696.44    5.743055e-04
   7696.73    5.803474e-04
   7697.02    5.864224e-04
   7697.31    5.928957e-04
   7697.60    5.993690e-04
   7697.89    6.058422e-04
   7698.18    6.126100e-04
   7698.47    6.195619e-04
   7698.76    6.265138e-04
   7699.04    6.335477e-04
   7699.33    6.410324e-04
   7699.62    6.485172e-04
   7699.91    6.560019e-04
   7700.20    6.638991e-04
   7700.49    6.719795e-04
   7700.78    6.800599e-04
   7701.07    6.882946e-04
   7701.36    6.970437e-04
   7701.64    7.057928e-04
   7701.93    7.145419e-04
   7702.22    7.238711e-04
   7702.51    7.333742e-04
   7702.80    7.428773e-04
   7703.09    7.526434e-04
   7703.38    7.630010e-04
   7703.67    7.733587e-04
   7703.96    7.837164e-04
   7704.24    7.948979e-04
   7704.53    8.062292e-04
   7704.82    8.175604e-04
   7705.11    8.293209e-04
   7705.40    8.417681e-04
   7705.69    8.542152e-04
   7705.98    8.666623e-04
   7706.27    8.802976e-04
   7706.56    8.940319e-04
   7706.84    9.077662e-04
   7707.13    9.221906e-04
   7707.42    9.374202e-04
   7707.71    9.526498e-04
   7708.00    9.678794e-04
   7708.29    9.848599e-04
   7708.58    1.001840e-03
   7708.87    1.018821e-03
   7709.16    1.036915e-03
   7709.44    1.055963e-03
   7709.73    1.075012e-03
   7710.02    1.094250e-03
   7710.31    1.115766e-03
   7710.60    1.137282e-03
   7710.89    1.158798e-03
   7711.18    1.182145e-03
   7711.47    1.206637e-03
   7711.76    1.231128e-03
   7712.04    1.256180e-03
   7712.33    1.284307e-03
   7712.62    1.312435e-03
   7712.91    1.340563e-03
   7713.20    1.371812e-03
   7713.49    1.404448e-03
   7713.78    1.437083e-03
   7714.07    1.471031e-03
   7714.36    1.509352e-03
   7714.64    1.547674e-03
   7714.93    1.585995e-03
   7715.22    1.629945e-03
   7715.51    1.675584e-03
   7715.80    1.721223e-03
   7716.09    1.769832e-03
   7716.38    1.825122e-03
   7716.67    1.880413e-03
   7716.96    1.935704e-03
   7717.24    2.002096e-03
   7717.53    2.070506e-03
   7717.82    2.138917e-03
   7718.11    2.214455e-03
   7718.40    2.301395e-03
   7718.69    2.388335e-03
   7718.98    2.475276e-03
   7719.27    2.587619e-03
   7719.56    2.702079e-03
   7719.84    2.816540e-03
   7720.13    2.951221e-03
   7720.42    3.109493e-03
   7720.71    3.267765e-03
   7721.00    3.426037e-03
   7721.29    3.661611e-03
   7721.58    3.897185e-03
   7721.87    4.132759e-03
   7722.16    4.455183e-03
   7722.44    4.852049e-03
   7722.73    5.248914e-03
   7723.02    5.680979e-03
   7723.31    6.535432e-03
   7723.60    7.389884e-03
   7723.89    8.244337e-03
   7724.18    1.021528e-02
   7724.47    1.288403e-02
   7724.76    1.555278e-02
   7725.04    1.843285e-02
   7725.33    2.234857e-02
   7725.62    2.579457e-02
   7725.91    2.885012e-02
   7726.20    3.185488e-02
   7726.49    3.508023e-02
   7726.78    3.865277e-02
   7727.07    4.276995e-02
   7727.36    4.746219e-02
   7727.64    5.280062e-02
   7727.93    5.874667e-02
   7728.22    6.512059e-02
   7728.51    7.165826e-02
   7728.80    7.796808e-02
   7729.09    8.347891e-02
   7729.38    8.799969e-02
   7729.67    9.118644e-02
   7729.96    9.321753e-02
   7730.24    9.425100e-02
   7730.53    9.445313e-02
   7730.82    9.409388e-02
   7731.11    9.335029e-02
   7731.40    9.236155e-02
   7731.69    9.124519e-02
   7731.98    9.010146e-02
   7732.27    8.902248e-02
   7732.56    8.808771e-02
   7732.84    8.734038e-02
   7733.13    8.681567e-02
   7733.42    8.653935e-02
   7733.71    8.652797e-02
   7734.00    8.678736e-02
   7734.29    8.734060e-02
   7734.58    8.813392e-02
   7734.87    8.913517e-02
   7735.16    9.030355e-02
   7735.44    9.159160e-02
   7735.73    9.294702e-02
   7736.02    9.431084e-02
   7736.31    9.561713e-02
   7736.60    9.681021e-02
   7736.89    9.783972e-02
   7737.18    9.866391e-02
   7737.47    9.925285e-02
   7737.76    9.958684e-02
   7738.04    9.964760e-02
   7738.33    9.948204e-02
   7738.62    9.912473e-02
   7738.91    9.861969e-02
   7739.20    9.801554e-02
   7739.49    9.736050e-02
   7739.78    9.670057e-02
   7740.07    9.610100e-02
   7740.36    9.562396e-02
   7740.64    9.514691e-02
   7740.93    9.466987e-02
   7741.22    9.445077e-02
   7741.51    9.430905e-02
   7741.80    9.416734e-02
   7742.09    9.409766e-02
   7742.38    9.419004e-02
   7742.67    9.428243e-02
   7742.96    9.437482e-02
   7743.24    9.448538e-02
   7743.53    9.459925e-02
   7743.82    9.471312e-02
   7744.11    9.476412e-02
   7744.40    9.471453e-02
   7744.69    9.466494e-02
   7744.98    9.461535e-02
   7745.27    9.434965e-02
   7745.56    9.406593e-02
   7745.84    9.378222e-02
   7746.13    9.341065e-02
   7746.42    9.293656e-02
   7746.71    9.246247e-02
   7747.00    9.198838e-02
   7747.29    9.141799e-02
   7747.58    9.084760e-02
   7747.87    9.027721e-02
   7748.16    8.970094e-02
   7748.44    8.911963e-02
   7748.73    8.853833e-02
   7749.02    8.796049e-02
   7749.31    8.742426e-02
   7749.60    8.688802e-02
   7749.89    8.635179e-02
   7750.18    8.586228e-02
   7750.47    8.540198e-02
   7750.76    8.494167e-02
   7751.04    8.449502e-02
   7751.33    8.412352e-02
   7751.62    8.375201e-02
   7751.91    8.338050e-02
   7752.20    8.306890e-02
   7752.49    8.278391e-02
   7752.78    8.249892e-02
   7753.07    8.223043e-02
   7753.36    8.201689e-02
   7753.64    8.180336e-02
   7753.93    8.158982e-02
   7754.22    8.141376e-02
   7754.51    8.124893e-02
   7754.80    8.108411e-02
   7755.09    8.092676e-02
   7755.38    8.078622e-02
   7755.67    8.064568e-02
   7755.96    8.050515e-02
   7756.24    8.036672e-02
   7756.53    8.022867e-02
   7756.82    8.009063e-02
   7757.11    7.994842e-02
   7757.40    7.979956e-02
   7757.69    7.965071e-02
   7757.98    7.950185e-02
   7758.27    7.934504e-02
   7758.56    7.918757e-02
   7758.84    7.903010e-02
   7759.13    7.887895e-02
   7759.42    7.873515e-02
   7759.71    7.859136e-02
   7760.00    7.844757e-02
