 FDMNES
  energy    <xanes>
   7695.00    5.487660e-04
   7695.29    5.547310e-04
   7695.58    5.606960e-04
   7695.87    5.666609e-04
   7696.16    5.728562e-04
   7696.44    5.792488e-04
   7696.73    5.856415e-04
   7697.02    5.920706e-04
   7697.31    5.989373e-04
   7697.60    6.058041e-04
   7697.89    6.126708e-04
   7698.18    6.198622e-04
   7698.47    6.272564e-04
   7698.76    6.346507e-04
   7699.04    6.421355e-04
   7699.33    6.501189e-04
   7699.62    6.581022e-04
   7699.91    6.660855e-04
   7700.20    6.745261e-04
   7700.49    6.831699e-04
   7700.78    6.918137e-04
   7701.07    7.006291e-04
   7701.36    7.100167e-04
   7701.64    7.194042e-04
   7701.93    7.287918e-04
   7702.22    7.388266e-04
   7702.51    7.490555e-04
   7702.80    7.592844e-04
   7703.09    7.698077e-04
   7703.38    7.809933e-04
   7703.67    7.921789e-04
   7703.96    8.033645e-04
   7704.24    8.154755e-04
   7704.53    8.277547e-04
   7704.82    8.400340e-04
   7705.11    8.527970e-04
   7705.40    8.663339e-04
   7705.69    8.798709e-04
   7705.98    8.934079e-04
   7706.27    9.082887e-04
   7706.56    9.232814e-04
   7706.84    9.382742e-04
   7707.13    9.540503e-04
   7707.42    9.707403e-04
   7707.71    9.874302e-04
   7708.00    1.004120e-03
   7708.29    1.022804e-03
   7708.58    1.041488e-03
   7708.87    1.060173e-03
   7709.16    1.080130e-03
   7709.44    1.101177e-03
   7709.73    1.122225e-03
   7710.02    1.143491e-03
   7710.31    1.167368e-03
   7710.60    1.191245e-03
   7710.89    1.215122e-03
   7711.18    1.241106e-03
   7711.47    1.268407e-03
   7711.76    1.295708e-03
   7712.04    1.323655e-03
   7712.33    1.355151e-03
   7712.62    1.386647e-03
   7712.91    1.418143e-03
   7713.20    1.453249e-03
   7713.49    1.489959e-03
   7713.78    1.526670e-03
   7714.07    1.564900e-03
   7714.36    1.608199e-03
   7714.64    1.651497e-03
   7714.93    1.694796e-03
   7715.22    1.744623e-03
   7715.51    1.796408e-03
   7715.80    1.848193e-03
   7716.09    1.903421e-03
   7716.38    1.966393e-03
   7716.67    2.029366e-03
   7716.96    2.092338e-03
   7717.24    2.168144e-03
   7717.53    2.246283e-03
   7717.82    2.324421e-03
   7718.11    2.410749e-03
   7718.40    2.510179e-03
   7718.69    2.609610e-03
   7718.98    2.709040e-03
   7719.27    2.837338e-03
   7719.56    2.968043e-03
   7719.84    3.098747e-03
   7720.13    3.251991e-03
   7720.42    3.431534e-03
   7720.71    3.611076e-03
   7721.00    3.790618e-03
   7721.29    4.053528e-03
   7721.58    4.316438e-03
   7721.87    4.579349e-03
   7722.16    4.930698e-03
   7722.44    5.357852e-03
   7722.73    5.785006e-03
   7723.02    6.244632e-03
   7723.31    7.093922e-03
   7723.60    7.943212e-03
   7723.89    8.792502e-03
   7724.18    1.058611e-02
   7724.47    1.296991e-02
   7724.76    1.535371e-02
   7725.04    1.795704e-02
   7725.33    2.182228e-02
   7725.62    2.581766e-02
   7725.91    3.009272e-02
   7726.20    3.482060e-02
   7726.49    4.028252e-02
   7726.78    4.636702e-02
   7727.07    5.306006e-02
   7727.36    6.008856e-02
   7727.64    6.723015e-02
   7727.93    7.437277e-02
   7728.22    8.158835e-02
   7728.51    8.907251e-02
   7728.80    9.689597e-02
   7729.09    1.050898e-01
   7729.38    1.133814e-01
   7729.67    1.213378e-01
   7729.96    1.284233e-01
   7730.24    1.339532e-01
   7730.53    1.370695e-01
   7730.82    1.375950e-01
   7731.11    1.357491e-01
   7731.40    1.320874e-01
   7731.69    1.273158e-01
   7731.98    1.220811e-01
   7732.27    1.168752e-01
   7732.56    1.120198e-01
   7732.84    1.076352e-01
   7733.13    1.037685e-01
   7733.42    1.004176e-01
   7733.71    9.755091e-02
   7734.00    9.512017e-02
   7734.29    9.310813e-02
   7734.58    9.140696e-02
   7734.87    8.996111e-02
   7735.16    8.871941e-02
   7735.44    8.763751e-02
   7735.73    8.668021e-02
   7736.02    8.582862e-02
   7736.31    8.506698e-02
   7736.60    8.438907e-02
   7736.89    8.380098e-02
   7737.18    8.331357e-02
   7737.47    8.293987e-02
   7737.76    8.269506e-02
   7738.04    8.260243e-02
   7738.33    8.265490e-02
   7738.62    8.285403e-02
   7738.91    8.319678e-02
   7739.20    8.367573e-02
   7739.49    8.427964e-02
   7739.78    8.500191e-02
   7740.07    8.582595e-02
   7740.36    8.673193e-02
   7740.64    8.763791e-02
   7740.93    8.854390e-02
   7741.22    8.939011e-02
   7741.51    9.021840e-02
   7741.80    9.104669e-02
   7742.09    9.177181e-02
   7742.38    9.226481e-02
   7742.67    9.275781e-02
   7742.96    9.325081e-02
   7743.24    9.336948e-02
   7743.53    9.342008e-02
   7743.82    9.347069e-02
   7744.11    9.336888e-02
   7744.40    9.302324e-02
   7744.69    9.267759e-02
   7744.98    9.233195e-02
   7745.27    9.174728e-02
   7745.56    9.114270e-02
   7745.84    9.053812e-02
   7746.13    8.988739e-02
   7746.42    8.918281e-02
   7746.71    8.847824e-02
   7747.00    8.777367e-02
   7747.29    8.709263e-02
   7747.58    8.641160e-02
   7747.87    8.573057e-02
   7748.16    8.510078e-02
   7748.44    8.451491e-02
   7748.73    8.392904e-02
   7749.02    8.335254e-02
   7749.31    8.288860e-02
   7749.60    8.242465e-02
   7749.89    8.196070e-02
   7750.18    8.156882e-02
   7750.47    8.122198e-02
   7750.76    8.087515e-02
   7751.04    8.054269e-02
   7751.33    8.028934e-02
   7751.62    8.003599e-02
   7751.91    7.978264e-02
   7752.20    7.957147e-02
   7752.49    7.937904e-02
   7752.78    7.918661e-02
   7753.07    7.900037e-02
   7753.36    7.883477e-02
   7753.64    7.866916e-02
   7753.93    7.850355e-02
   7754.22    7.833545e-02
   7754.51    7.816660e-02
   7754.80    7.799775e-02
   7755.09    7.782112e-02
   7755.38    7.762699e-02
   7755.67    7.743286e-02
   7755.96    7.723873e-02
   7756.24    7.701349e-02
   7756.53    7.678260e-02
   7756.82    7.655170e-02
   7757.11    7.630776e-02
   7757.40    7.604294e-02
   7757.69    7.577812e-02
   7757.98    7.551331e-02
   7758.27    7.523834e-02
   7758.56    7.496253e-02
   7758.84    7.468672e-02
   7759.13    7.442637e-02
   7759.42    7.418406e-02
   7759.71    7.394175e-02
   7760.00    7.369944e-02
