 FDMNES
  energy    <xanes>
   7695.00    5.484044e-04
   7695.29    5.542043e-04
   7695.58    5.600042e-04
   7695.87    5.658040e-04
   7696.16    5.718233e-04
   7696.44    5.780306e-04
   7696.73    5.842380e-04
   7697.02    5.904800e-04
   7697.31    5.971385e-04
   7697.60    6.037970e-04
   7697.89    6.104555e-04
   7698.18    6.174225e-04
   7698.47    6.245823e-04
   7698.76    6.317421e-04
   7699.04    6.389880e-04
   7699.33    6.467068e-04
   7699.62    6.544257e-04
   7699.91    6.621446e-04
   7700.20    6.702969e-04
   7700.49    6.786418e-04
   7700.78    6.869867e-04
   7701.07    6.954941e-04
   7701.36    7.045430e-04
   7701.64    7.135919e-04
   7701.93    7.226408e-04
   7702.22    7.323016e-04
   7702.51    7.421459e-04
   7702.80    7.519902e-04
   7703.09    7.621124e-04
   7703.38    7.728599e-04
   7703.67    7.836074e-04
   7703.96    7.943549e-04
   7704.24    8.059751e-04
   7704.53    8.177539e-04
   7704.82    8.295327e-04
   7705.11    8.417671e-04
   7705.40    8.547305e-04
   7705.69    8.676938e-04
   7705.98    8.806572e-04
   7706.27    8.948850e-04
   7706.56    9.092180e-04
   7706.84    9.235511e-04
   7707.13    9.386205e-04
   7707.42    9.545488e-04
   7707.71    9.704771e-04
   7708.00    9.864054e-04
   7708.29    1.004207e-03
   7708.58    1.022008e-03
   7708.87    1.039809e-03
   7709.16    1.058805e-03
   7709.44    1.078825e-03
   7709.73    1.098844e-03
   7710.02    1.119068e-03
   7710.31    1.141743e-03
   7710.60    1.164417e-03
   7710.89    1.187091e-03
   7711.18    1.211742e-03
   7711.47    1.237629e-03
   7711.76    1.263515e-03
   7712.04    1.290008e-03
   7712.33    1.319832e-03
   7712.62    1.349656e-03
   7712.91    1.379481e-03
   7713.20    1.412696e-03
   7713.49    1.447419e-03
   7713.78    1.482142e-03
   7714.07    1.518296e-03
   7714.36    1.559219e-03
   7714.64    1.600143e-03
   7714.93    1.641066e-03
   7715.22    1.688149e-03
   7715.51    1.737081e-03
   7715.80    1.786012e-03
   7716.09    1.838204e-03
   7716.38    1.897734e-03
   7716.67    1.957263e-03
   7716.96    2.016792e-03
   7717.24    2.088545e-03
   7717.53    2.162520e-03
   7717.82    2.236496e-03
   7718.11    2.318332e-03
   7718.40    2.412746e-03
   7718.69    2.507159e-03
   7718.98    2.601573e-03
   7719.27    2.723993e-03
   7719.56    2.848748e-03
   7719.84    2.973502e-03
   7720.13    3.120445e-03
   7720.42    3.293275e-03
   7720.71    3.466104e-03
   7721.00    3.638934e-03
   7721.29    3.895476e-03
   7721.58    4.152017e-03
   7721.87    4.408559e-03
   7722.16    4.756318e-03
   7722.44    5.182264e-03
   7722.73    5.608210e-03
   7723.02    6.068824e-03
   7723.31    6.945455e-03
   7723.60    7.822086e-03
   7723.89    8.698717e-03
   7724.18    1.061474e-02
   7724.47    1.318038e-02
   7724.76    1.574602e-02
   7725.04    1.855239e-02
   7725.33    2.272825e-02
   7725.62    2.699143e-02
   7725.91    3.149283e-02
   7726.20    3.645980e-02
   7726.49    4.225790e-02
   7726.78    4.879540e-02
   7727.07    5.600504e-02
   7727.36    6.338682e-02
   7727.64    7.032138e-02
   7727.93    7.634976e-02
   7728.22    8.148433e-02
   7728.51    8.596809e-02
   7728.80    9.019882e-02
   7729.09    9.418200e-02
   7729.38    9.775497e-02
   7729.67    1.004252e-01
   7729.96    1.019346e-01
   7730.24    1.020990e-01
   7730.53    1.009341e-01
   7730.82    9.888526e-02
   7731.11    9.635969e-02
   7731.40    9.368586e-02
   7731.69    9.110414e-02
   7731.98    8.878273e-02
   7732.27    8.686050e-02
   7732.56    8.542177e-02
   7732.84    8.446283e-02
   7733.13    8.397608e-02
   7733.42    8.393032e-02
   7733.71    8.427774e-02
   7734.00    8.496056e-02
   7734.29    8.594147e-02
   7734.58    8.711943e-02
   7734.87    8.843344e-02
   7735.16    8.982485e-02
   7735.44    9.123753e-02
   7735.73    9.261814e-02
   7736.02    9.390772e-02
   7736.31    9.505581e-02
   7736.60    9.602861e-02
   7736.89    9.679592e-02
   7737.18    9.733805e-02
   7737.47    9.764789e-02
   7737.76    9.772897e-02
   7738.04    9.758961e-02
   7738.33    9.728936e-02
   7738.62    9.687320e-02
   7738.91    9.638953e-02
   7739.20    9.588536e-02
   7739.49    9.540204e-02
   7739.78    9.497849e-02
   7740.07    9.466171e-02
   7740.36    9.449256e-02
   7740.64    9.432340e-02
   7740.93    9.415425e-02
   7741.22    9.416561e-02
   7741.51    9.423112e-02
   7741.80    9.429663e-02
   7742.09    9.436827e-02
   7742.38    9.445370e-02
   7742.67    9.453912e-02
   7742.96    9.462455e-02
   7743.24    9.456916e-02
   7743.53    9.448818e-02
   7743.82    9.440719e-02
   7744.11    9.424604e-02
   7744.40    9.395663e-02
   7744.69    9.366721e-02
   7744.98    9.337779e-02
   7745.27    9.297300e-02
   7745.56    9.255860e-02
   7745.84    9.214420e-02
   7746.13    9.172073e-02
   7746.42    9.128668e-02
   7746.71    9.085264e-02
   7747.00    9.041860e-02
   7747.29    9.001932e-02
   7747.58    8.962004e-02
   7747.87    8.922076e-02
   7748.16    8.884239e-02
   7748.44    8.848196e-02
   7748.73    8.812153e-02
   7749.02    8.776299e-02
   7749.31    8.742723e-02
   7749.60    8.709146e-02
   7749.89    8.675570e-02
   7750.18    8.642903e-02
   7750.47    8.610805e-02
   7750.76    8.578706e-02
   7751.04    8.546808e-02
   7751.33    8.516010e-02
   7751.62    8.485211e-02
   7751.91    8.454413e-02
   7752.20    8.424440e-02
   7752.49    8.394833e-02
   7752.78    8.365226e-02
   7753.07    8.335845e-02
   7753.36    8.307218e-02
   7753.64    8.278591e-02
   7753.93    8.249964e-02
   7754.22    8.221862e-02
   7754.51    8.193919e-02
   7754.80    8.165975e-02
   7755.09    8.138105e-02
   7755.38    8.110402e-02
   7755.67    8.082698e-02
   7755.96    8.054994e-02
   7756.24    8.027151e-02
   7756.53    7.999283e-02
   7756.82    7.971415e-02
   7757.11    7.943546e-02
   7757.40    7.915676e-02
   7757.69    7.887807e-02
   7757.98    7.859937e-02
   7758.27    7.833391e-02
   7758.56    7.806956e-02
   7758.84    7.780521e-02
   7759.13    7.756098e-02
   7759.42    7.734024e-02
   7759.71    7.711950e-02
   7760.00    7.689875e-02
