 FDMNES
  energy    <xanes>
   7695.00    5.525894e-04
   7695.29    5.581457e-04
   7695.58    5.637019e-04
   7695.87    5.692582e-04
   7696.16    5.750147e-04
   7696.44    5.809429e-04
   7696.73    5.868710e-04
   7697.02    5.928306e-04
   7697.31    5.991687e-04
   7697.60    6.055067e-04
   7697.89    6.118447e-04
   7698.18    6.184618e-04
   7698.47    6.252532e-04
   7698.76    6.320445e-04
   7699.04    6.389133e-04
   7699.33    6.462079e-04
   7699.62    6.535024e-04
   7699.91    6.607969e-04
   7700.20    6.684794e-04
   7700.49    6.763344e-04
   7700.78    6.841894e-04
   7701.07    6.921890e-04
   7701.36    7.006707e-04
   7701.64    7.091525e-04
   7701.93    7.176343e-04
   7702.22    7.266576e-04
   7702.51    7.358433e-04
   7702.80    7.450291e-04
   7703.09    7.544593e-04
   7703.38    7.644395e-04
   7703.67    7.744196e-04
   7703.96    7.843998e-04
   7704.24    7.951423e-04
   7704.53    8.060234e-04
   7704.82    8.169045e-04
   7705.11    8.281808e-04
   7705.40    8.400894e-04
   7705.69    8.519980e-04
   7705.98    8.639065e-04
   7706.27    8.769032e-04
   7706.56    8.899905e-04
   7706.84    9.030779e-04
   7707.13    9.167935e-04
   7707.42    9.312422e-04
   7707.71    9.456910e-04
   7708.00    9.601397e-04
   7708.29    9.761723e-04
   7708.58    9.922049e-04
   7708.87    1.008237e-03
   7709.16    1.025270e-03
   7709.44    1.043161e-03
   7709.73    1.061051e-03
   7710.02    1.079111e-03
   7710.31    1.099200e-03
   7710.60    1.119290e-03
   7710.89    1.139379e-03
   7711.18    1.161087e-03
   7711.47    1.183807e-03
   7711.76    1.206526e-03
   7712.04    1.229735e-03
   7712.33    1.255637e-03
   7712.62    1.281539e-03
   7712.91    1.307441e-03
   7713.20    1.336045e-03
   7713.49    1.365850e-03
   7713.78    1.395655e-03
   7714.07    1.426582e-03
   7714.36    1.461250e-03
   7714.64    1.495918e-03
   7714.93    1.530586e-03
   7715.22    1.570001e-03
   7715.51    1.610840e-03
   7715.80    1.651679e-03
   7716.09    1.694983e-03
   7716.38    1.743830e-03
   7716.67    1.792678e-03
   7716.96    1.841525e-03
   7717.24    1.899410e-03
   7717.53    1.958937e-03
   7717.82    2.018465e-03
   7718.11    2.083663e-03
   7718.40    2.157934e-03
   7718.69    2.232205e-03
   7718.98    2.306476e-03
   7719.27    2.400409e-03
   7719.56    2.495980e-03
   7719.84    2.591551e-03
   7720.13    2.702248e-03
   7720.42    2.830592e-03
   7720.71    2.958936e-03
   7721.00    3.087279e-03
   7721.29    3.271015e-03
   7721.58    3.454751e-03
   7721.87    3.638487e-03
   7722.16    3.881147e-03
   7722.44    4.174314e-03
   7722.73    4.467480e-03
   7723.02    4.782976e-03
   7723.31    5.366431e-03
   7723.60    5.949885e-03
   7723.89    6.533340e-03
   7724.18    7.791856e-03
   7724.47    9.472285e-03
   7724.76    1.115271e-02
   7725.04    1.296957e-02
   7725.33    1.549365e-02
   7725.62    1.783139e-02
   7725.91    2.001341e-02
   7726.20    2.219856e-02
   7726.49    2.451963e-02
   7726.78    2.703849e-02
   7727.07    2.990134e-02
   7727.36    3.319011e-02
   7727.64    3.706138e-02
   7727.93    4.164160e-02
   7728.22    4.700231e-02
   7728.51    5.331000e-02
   7728.80    6.042523e-02
   7729.09    6.836351e-02
   7729.38    7.662249e-02
   7729.67    8.455178e-02
   7729.96    9.137260e-02
   7730.24    9.629817e-02
   7730.53    9.869148e-02
   7730.82    9.886505e-02
   7731.11    9.740871e-02
   7731.40    9.499348e-02
   7731.69    9.221026e-02
   7731.98    8.948272e-02
   7732.27    8.709288e-02
   7732.56    8.518909e-02
   7732.84    8.378259e-02
   7733.13    8.286823e-02
   7733.42    8.242144e-02
   7733.71    8.241027e-02
   7734.00    8.280018e-02
   7734.29    8.359229e-02
   7734.58    8.469600e-02
   7734.87    8.605900e-02
   7735.16    8.762007e-02
   7735.44    8.931129e-02
   7735.73    9.106159e-02
   7736.02    9.279530e-02
   7736.31    9.443845e-02
   7736.60    9.593748e-02
   7736.89    9.724965e-02
   7737.18    9.834632e-02
   7737.47    9.921433e-02
   7737.76    9.985280e-02
   7738.04    1.002653e-01
   7738.33    1.005071e-01
   7738.62    1.006181e-01
   7738.91    1.006411e-01
   7739.20    1.006182e-01
   7739.49    1.005872e-01
   7739.78    1.005828e-01
   7740.07    1.006489e-01
   7740.36    1.008242e-01
   7740.64    1.009994e-01
   7740.93    1.011746e-01
   7741.22    1.015108e-01
   7741.51    1.018952e-01
   7741.80    1.022797e-01
   7742.09    1.026820e-01
   7742.38    1.031246e-01
   7742.67    1.035671e-01
   7742.96    1.040097e-01
   7743.24    1.043290e-01
   7743.53    1.046259e-01
   7743.82    1.049227e-01
   7744.11    1.050996e-01
   7744.40    1.050844e-01
   7744.69    1.050692e-01
   7744.98    1.050541e-01
   7745.27    1.046964e-01
   7745.56    1.043101e-01
   7745.84    1.039239e-01
   7746.13    1.033998e-01
   7746.42    1.027148e-01
   7746.71    1.020299e-01
   7747.00    1.013449e-01
   7747.29    1.005146e-01
   7747.58    9.968424e-02
   7747.87    9.885391e-02
   7748.16    9.802583e-02
   7748.44    9.719968e-02
   7748.73    9.637354e-02
   7749.02    9.555482e-02
   7749.31    9.482521e-02
   7749.60    9.409560e-02
   7749.89    9.336600e-02
   7750.18    9.271431e-02
   7750.47    9.211132e-02
   7750.76    9.150833e-02
   7751.04    9.092314e-02
   7751.33    9.043580e-02
   7751.62    8.994847e-02
   7751.91    8.946113e-02
   7752.20    8.903436e-02
   7752.49    8.863451e-02
   7752.78    8.823467e-02
   7753.07    8.784841e-02
   7753.36    8.750744e-02
   7753.64    8.716647e-02
   7753.93    8.682551e-02
   7754.22    8.651617e-02
   7754.51    8.621633e-02
   7754.80    8.591649e-02
   7755.09    8.562770e-02
   7755.38    8.536376e-02
   7755.67    8.509982e-02
   7755.96    8.483589e-02
   7756.24    8.459894e-02
   7756.53    8.436690e-02
   7756.82    8.413486e-02
   7757.11    8.391338e-02
   7757.40    8.370881e-02
   7757.69    8.350424e-02
   7757.98    8.329967e-02
   7758.27    8.311996e-02
   7758.56    8.294233e-02
   7758.84    8.276469e-02
   7759.13    8.260296e-02
   7759.42    8.245979e-02
   7759.71    8.231662e-02
   7760.00    8.217344e-02
