 FDMNES
  energy    <xanes>
   7695.00    5.219763e-04
   7695.29    5.278702e-04
   7695.58    5.337641e-04
   7695.87    5.396580e-04
   7696.16    5.457834e-04
   7696.44    5.521070e-04
   7696.73    5.584307e-04
   7697.02    5.647911e-04
   7697.31    5.715915e-04
   7697.60    5.783920e-04
   7697.89    5.851924e-04
   7698.18    5.923195e-04
   7698.47    5.996508e-04
   7698.76    6.069820e-04
   7699.04    6.144045e-04
   7699.33    6.223289e-04
   7699.62    6.302533e-04
   7699.91    6.381777e-04
   7700.20    6.465628e-04
   7700.49    6.551526e-04
   7700.78    6.637424e-04
   7701.07    6.725053e-04
   7701.36    6.818450e-04
   7701.64    6.911846e-04
   7701.93    7.005243e-04
   7702.22    7.105169e-04
   7702.51    7.207053e-04
   7702.80    7.308937e-04
   7703.09    7.413793e-04
   7703.38    7.525334e-04
   7703.67    7.636875e-04
   7703.96    7.748416e-04
   7704.24    7.869303e-04
   7704.53    7.991890e-04
   7704.82    8.114477e-04
   7705.11    8.241953e-04
   7705.40    8.377252e-04
   7705.69    8.512550e-04
   7705.98    8.647848e-04
   7706.27    8.796737e-04
   7706.56    8.946758e-04
   7706.84    9.096779e-04
   7707.13    9.254728e-04
   7707.42    9.421924e-04
   7707.71    9.589121e-04
   7708.00    9.756318e-04
   7708.29    9.943711e-04
   7708.58    1.013110e-03
   7708.87    1.031850e-03
   7709.16    1.051879e-03
   7709.44    1.073014e-03
   7709.73    1.094149e-03
   7710.02    1.115505e-03
   7710.31    1.139511e-03
   7710.60    1.163516e-03
   7710.89    1.187522e-03
   7711.18    1.213667e-03
   7711.47    1.241150e-03
   7711.76    1.268633e-03
   7712.04    1.296772e-03
   7712.33    1.328522e-03
   7712.62    1.360271e-03
   7712.91    1.392021e-03
   7713.20    1.427447e-03
   7713.49    1.464509e-03
   7713.78    1.501570e-03
   7714.07    1.540183e-03
   7714.36    1.583970e-03
   7714.64    1.627756e-03
   7714.93    1.671543e-03
   7715.22    1.722013e-03
   7715.51    1.774489e-03
   7715.80    1.826964e-03
   7716.09    1.882976e-03
   7716.38    1.946947e-03
   7716.67    2.010919e-03
   7716.96    2.074890e-03
   7717.24    2.152116e-03
   7717.53    2.231753e-03
   7717.82    2.311390e-03
   7718.11    2.399547e-03
   7718.40    2.501336e-03
   7718.69    2.603126e-03
   7718.98    2.704916e-03
   7719.27    2.837058e-03
   7719.56    2.971730e-03
   7719.84    3.106401e-03
   7720.13    3.265146e-03
   7720.42    3.451978e-03
   7720.71    3.638809e-03
   7721.00    3.825640e-03
   7721.29    4.103696e-03
   7721.58    4.381752e-03
   7721.87    4.659808e-03
   7722.16    5.038519e-03
   7722.44    5.503505e-03
   7722.73    5.968491e-03
   7723.02    6.472897e-03
   7723.31    7.450345e-03
   7723.60    8.427792e-03
   7723.89    9.405240e-03
   7724.18    1.160824e-02
   7724.47    1.457720e-02
   7724.76    1.754617e-02
   7725.04    2.078355e-02
   7725.33    2.546180e-02
   7725.62    2.988318e-02
   7725.91    3.398898e-02
   7726.20    3.801908e-02
   7726.49    4.223893e-02
   7726.78    4.684423e-02
   7727.07    5.217164e-02
   7727.36    5.837030e-02
   7727.64    6.562940e-02
   7727.93    7.390723e-02
   7728.22    8.287627e-02
   7728.51    9.205693e-02
   7728.80    1.008097e-01
   7729.09    1.082325e-01
   7729.38    1.140514e-01
   7729.67    1.176878e-01
   7729.96    1.193982e-01
   7730.24    1.194594e-01
   7730.53    1.182665e-01
   7730.82    1.164078e-01
   7731.11    1.142772e-01
   7731.40    1.121480e-01
   7731.69    1.101941e-01
   7731.98    1.085065e-01
   7732.27    1.071336e-01
   7732.56    1.060784e-01
   7732.84    1.053034e-01
   7733.13    1.047862e-01
   7733.42    1.045007e-01
   7733.71    1.044178e-01
   7734.00    1.045044e-01
   7734.29    1.047318e-01
   7734.58    1.050337e-01
   7734.87    1.053568e-01
   7735.16    1.056436e-01
   7735.44    1.058355e-01
   7735.73    1.058773e-01
   7736.02    1.057058e-01
   7736.31    1.052884e-01
   7736.60    1.046245e-01
   7736.89    1.037231e-01
   7737.18    1.026122e-01
   7737.47    1.013356e-01
   7737.76    9.994641e-02
   7738.04    9.850620e-02
   7738.33    9.708112e-02
   7738.62    9.572034e-02
   7738.91    9.446379e-02
   7739.20    9.334121e-02
   7739.49    9.237222e-02
   7739.78    9.158109e-02
   7740.07    9.100615e-02
   7740.36    9.069245e-02
   7740.64    9.037876e-02
   7740.93    9.006507e-02
   7741.22    9.007891e-02
   7741.51    9.019101e-02
   7741.80    9.030312e-02
   7742.09    9.047731e-02
   7742.38    9.079119e-02
   7742.67    9.110508e-02
   7742.96    9.141896e-02
   7743.24    9.169008e-02
   7743.53    9.195343e-02
   7743.82    9.221677e-02
   7744.11    9.238397e-02
   7744.40    9.239733e-02
   7744.69    9.241070e-02
   7744.98    9.242407e-02
   7745.27    9.214930e-02
   7745.56    9.185053e-02
   7745.84    9.155175e-02
   7746.13    9.114807e-02
   7746.42    9.062201e-02
   7746.71    9.009594e-02
   7747.00    8.956987e-02
   7747.29    8.895376e-02
   7747.58    8.833766e-02
   7747.87    8.772155e-02
   7748.16    8.710630e-02
   7748.44    8.649180e-02
   7748.73    8.587729e-02
   7749.02    8.526485e-02
   7749.31    8.467708e-02
   7749.60    8.408932e-02
   7749.89    8.350155e-02
   7750.18    8.292286e-02
   7750.47    8.234983e-02
   7750.76    8.177680e-02
   7751.04    8.120302e-02
   7751.33    8.062510e-02
   7751.62    8.004718e-02
   7751.91    7.946926e-02
   7752.20    7.887907e-02
   7752.49    7.828343e-02
   7752.78    7.768779e-02
   7753.07    7.708761e-02
   7753.36    7.647232e-02
   7753.64    7.585703e-02
   7753.93    7.524173e-02
   7754.22    7.461741e-02
   7754.51    7.399038e-02
   7754.80    7.336335e-02
   7755.09    7.273738e-02
   7755.38    7.211383e-02
   7755.67    7.149027e-02
   7755.96    7.086671e-02
   7756.24    7.026367e-02
   7756.53    6.966436e-02
   7756.82    6.906504e-02
   7757.11    6.848481e-02
   7757.40    6.793510e-02
   7757.69    6.738539e-02
   7757.98    6.683567e-02
   7758.27    6.635846e-02
   7758.56    6.588728e-02
   7758.84    6.541610e-02
   7759.13    6.499401e-02
   7759.42    6.462919e-02
   7759.71    6.426437e-02
   7760.00    6.389955e-02
