 FDMNES
  energy    <xanes>
   7695.00    5.323229e-04
   7695.29    5.381963e-04
   7695.58    5.440697e-04
   7695.87    5.499432e-04
   7696.16    5.560447e-04
   7696.44    5.623417e-04
   7696.73    5.686388e-04
   7697.02    5.749719e-04
   7697.31    5.817386e-04
   7697.60    5.885054e-04
   7697.89    5.952721e-04
   7698.18    6.023604e-04
   7698.47    6.096497e-04
   7698.76    6.169390e-04
   7699.04    6.243180e-04
   7699.33    6.321909e-04
   7699.62    6.400638e-04
   7699.91    6.479367e-04
   7700.20    6.562625e-04
   7700.49    6.647897e-04
   7700.78    6.733169e-04
   7701.07    6.820141e-04
   7701.36    6.912780e-04
   7701.64    7.005419e-04
   7701.93    7.098058e-04
   7702.22    7.197108e-04
   7702.51    7.298080e-04
   7702.80    7.399053e-04
   7703.09    7.502940e-04
   7703.38    7.613387e-04
   7703.67    7.723833e-04
   7703.96    7.834279e-04
   7704.24    7.953888e-04
   7704.53    8.075162e-04
   7704.82    8.196436e-04
   7705.11    8.322498e-04
   7705.40    8.456221e-04
   7705.69    8.589944e-04
   7705.98    8.723667e-04
   7706.27    8.870687e-04
   7706.56    9.018814e-04
   7706.84    9.166942e-04
   7707.13    9.322816e-04
   7707.42    9.487730e-04
   7707.71    9.652643e-04
   7708.00    9.817557e-04
   7708.29    1.000218e-03
   7708.58    1.018681e-03
   7708.87    1.037144e-03
   7709.16    1.056864e-03
   7709.44    1.077663e-03
   7709.73    1.098461e-03
   7710.02    1.119474e-03
   7710.31    1.143066e-03
   7710.60    1.166658e-03
   7710.89    1.190250e-03
   7711.18    1.215921e-03
   7711.47    1.242892e-03
   7711.76    1.269863e-03
   7712.04    1.297470e-03
   7712.33    1.328577e-03
   7712.62    1.359685e-03
   7712.91    1.390792e-03
   7713.20    1.425457e-03
   7713.49    1.461702e-03
   7713.78    1.497947e-03
   7714.07    1.535690e-03
   7714.36    1.578422e-03
   7714.64    1.621155e-03
   7714.93    1.663888e-03
   7715.22    1.713045e-03
   7715.51    1.764130e-03
   7715.80    1.815214e-03
   7716.09    1.869685e-03
   7716.38    1.931775e-03
   7716.67    1.993865e-03
   7716.96    2.055956e-03
   7717.24    2.130672e-03
   7717.53    2.207684e-03
   7717.82    2.284697e-03
   7718.11    2.369774e-03
   7718.40    2.467758e-03
   7718.69    2.565741e-03
   7718.98    2.663724e-03
   7719.27    2.790219e-03
   7719.56    2.919090e-03
   7719.84    3.047960e-03
   7720.13    3.199227e-03
   7720.42    3.376622e-03
   7720.71    3.554017e-03
   7721.00    3.731412e-03
   7721.29    3.992662e-03
   7721.58    4.253913e-03
   7721.87    4.515163e-03
   7722.16    4.867645e-03
   7722.44    5.298326e-03
   7722.73    5.729007e-03
   7723.02    6.194939e-03
   7723.31    7.083897e-03
   7723.60    7.972854e-03
   7723.89    8.861811e-03
   7724.18    1.082852e-02
   7724.47    1.346883e-02
   7724.76    1.610914e-02
   7725.04    1.896900e-02
   7725.33    2.296752e-02
   7725.62    2.667343e-02
   7725.91    3.019030e-02
   7726.20    3.385150e-02
   7726.49    3.798266e-02
   7726.78    4.260968e-02
   7727.07    4.782460e-02
   7727.36    5.352172e-02
   7727.64    5.970345e-02
   7727.93    6.642953e-02
   7728.22    7.379829e-02
   7728.51    8.200746e-02
   7728.80    9.093591e-02
   7729.09    1.004889e-01
   7729.38    1.100828e-01
   7729.67    1.189135e-01
   7729.96    1.262544e-01
   7730.24    1.314199e-01
   7730.53    1.338780e-01
   7730.82    1.339813e-01
   7731.11    1.322522e-01
   7731.40    1.292552e-01
   7731.69    1.254972e-01
   7731.98    1.213800e-01
   7732.27    1.172165e-01
   7732.56    1.132597e-01
   7732.84    1.096577e-01
   7733.13    1.065062e-01
   7733.42    1.038543e-01
   7733.71    1.017109e-01
   7734.00    1.000524e-01
   7734.29    9.887353e-02
   7734.58    9.804677e-02
   7734.87    9.749145e-02
   7735.16    9.712277e-02
   7735.44    9.685757e-02
   7735.73    9.662034e-02
   7736.02    9.634383e-02
   7736.31    9.598272e-02
   7736.60    9.552393e-02
   7736.89    9.497298e-02
   7737.18    9.435220e-02
   7737.47    9.369492e-02
   7737.76    9.303981e-02
   7738.04    9.243114e-02
   7738.33    9.189757e-02
   7738.62    9.146049e-02
   7738.91    9.113246e-02
   7739.20    9.091769e-02
   7739.49    9.081298e-02
   7739.78    9.081637e-02
   7740.07    9.091836e-02
   7740.36    9.110853e-02
   7740.64    9.129870e-02
   7740.93    9.148886e-02
   7741.22    9.167719e-02
   7741.51    9.186496e-02
   7741.80    9.205273e-02
   7742.09    9.217866e-02
   7742.38    9.216543e-02
   7742.67    9.215221e-02
   7742.96    9.213898e-02
   7743.24    9.187004e-02
   7743.53    9.155460e-02
   7743.82    9.123916e-02
   7744.11    9.081326e-02
   7744.40    9.021062e-02
   7744.69    8.960798e-02
   7744.98    8.900534e-02
   7745.27    8.823754e-02
   7745.56    8.745597e-02
   7745.84    8.667440e-02
   7746.13    8.587623e-02
   7746.42    8.505869e-02
   7746.71    8.424115e-02
   7747.00    8.342361e-02
   7747.29    8.268522e-02
   7747.58    8.194683e-02
   7747.87    8.120845e-02
   7748.16    8.054259e-02
   7748.44    7.993891e-02
   7748.73    7.933523e-02
   7749.02    7.874203e-02
   7749.31    7.827472e-02
   7749.60    7.780741e-02
   7749.89    7.734010e-02
   7750.18    7.693832e-02
   7750.47    7.657748e-02
   7750.76    7.621665e-02
   7751.04    7.586588e-02
   7751.33    7.557043e-02
   7751.62    7.527498e-02
   7751.91    7.497953e-02
   7752.20    7.470293e-02
   7752.49    7.443472e-02
   7752.78    7.416650e-02
   7753.07    7.389851e-02
   7753.36    7.363124e-02
   7753.64    7.336397e-02
   7753.93    7.309670e-02
   7754.22    7.282210e-02
   7754.51    7.254530e-02
   7754.80    7.226850e-02
   7755.09    7.199009e-02
   7755.38    7.170810e-02
   7755.67    7.142610e-02
   7755.96    7.114410e-02
   7756.24    7.087013e-02
   7756.53    7.059762e-02
   7756.82    7.032511e-02
   7757.11    7.006344e-02
   7757.40    6.981909e-02
   7757.69    6.957475e-02
   7757.98    6.933041e-02
   7758.27    6.912688e-02
   7758.56    6.892675e-02
   7758.84    6.872662e-02
   7759.13    6.855063e-02
   7759.42    6.840280e-02
   7759.71    6.825498e-02
   7760.00    6.810716e-02
