 FDMNES
  energy    <xanes>
   7695.00    5.442165e-04
   7695.29    5.498724e-04
   7695.58    5.555283e-04
   7695.87    5.611842e-04
   7696.16    5.670503e-04
   7696.44    5.730967e-04
   7696.73    5.791430e-04
   7697.02    5.852225e-04
   7697.31    5.917004e-04
   7697.60    5.981784e-04
   7697.89    6.046563e-04
   7698.18    6.114289e-04
   7698.47    6.183856e-04
   7698.76    6.253423e-04
   7699.04    6.323810e-04
   7699.33    6.398707e-04
   7699.62    6.473604e-04
   7699.91    6.548501e-04
   7700.20    6.627522e-04
   7700.49    6.708377e-04
   7700.78    6.789231e-04
   7701.07    6.871628e-04
   7701.36    6.959168e-04
   7701.64    7.046709e-04
   7701.93    7.134249e-04
   7702.22    7.227588e-04
   7702.51    7.322666e-04
   7702.80    7.417745e-04
   7703.09    7.515451e-04
   7703.38    7.619071e-04
   7703.67    7.722690e-04
   7703.96    7.826310e-04
   7704.24    7.938162e-04
   7704.53    8.051510e-04
   7704.82    8.164859e-04
   7705.11    8.282495e-04
   7705.40    8.406991e-04
   7705.69    8.531486e-04
   7705.98    8.655982e-04
   7706.27    8.792343e-04
   7706.56    8.929694e-04
   7706.84    9.067044e-04
   7707.13    9.211283e-04
   7707.42    9.363561e-04
   7707.71    9.515838e-04
   7708.00    9.668116e-04
   7708.29    9.837864e-04
   7708.58    1.000761e-03
   7708.87    1.017736e-03
   7709.16    1.035822e-03
   7709.44    1.054859e-03
   7709.73    1.073897e-03
   7710.02    1.093123e-03
   7710.31    1.114620e-03
   7710.60    1.136116e-03
   7710.89    1.157613e-03
   7711.18    1.180933e-03
   7711.47    1.205393e-03
   7711.76    1.229854e-03
   7712.04    1.254871e-03
   7712.33    1.282949e-03
   7712.62    1.311026e-03
   7712.91    1.339104e-03
   7713.20    1.370283e-03
   7713.49    1.402841e-03
   7713.78    1.435398e-03
   7714.07    1.469257e-03
   7714.36    1.507454e-03
   7714.64    1.545651e-03
   7714.93    1.583848e-03
   7715.22    1.627617e-03
   7715.51    1.673057e-03
   7715.80    1.718498e-03
   7716.09    1.766868e-03
   7716.38    1.821833e-03
   7716.67    1.876798e-03
   7716.96    1.931763e-03
   7717.24    1.997637e-03
   7717.53    2.065494e-03
   7717.82    2.133351e-03
   7718.11    2.208170e-03
   7718.40    2.294126e-03
   7718.69    2.380082e-03
   7718.98    2.466039e-03
   7719.27    2.576586e-03
   7719.56    2.689183e-03
   7719.84    2.801780e-03
   7720.13    2.933684e-03
   7720.42    3.088113e-03
   7720.71    3.242543e-03
   7721.00    3.396972e-03
   7721.29    3.623605e-03
   7721.58    3.850238e-03
   7721.87    4.076871e-03
   7722.16    4.381689e-03
   7722.44    4.753523e-03
   7722.73    5.125356e-03
   7723.02    5.526971e-03
   7723.31    6.285958e-03
   7723.60    7.044945e-03
   7723.89    7.803931e-03
   7724.18    9.460353e-03
   7724.47    1.167767e-02
   7724.76    1.389499e-02
   7725.04    1.630833e-02
   7725.33    1.979618e-02
   7725.62    2.321566e-02
   7725.91    2.665005e-02
   7726.20    3.028955e-02
   7726.49    3.437593e-02
   7726.78    3.893943e-02
   7727.07    4.416112e-02
   7727.36    5.002281e-02
   7727.64    5.651236e-02
   7727.93    6.342912e-02
   7728.22    7.038737e-02
   7728.51    7.689307e-02
   7728.80    8.265619e-02
   7729.09    8.729787e-02
   7729.38    9.102388e-02
   7729.67    9.372849e-02
   7729.96    9.553526e-02
   7730.24    9.641908e-02
   7730.53    9.633318e-02
   7730.82    9.547924e-02
   7731.11    9.408986e-02
   7731.40    9.241770e-02
   7731.69    9.069436e-02
   7731.98    8.909277e-02
   7732.27    8.773147e-02
   7732.56    8.666355e-02
   7732.84    8.587578e-02
   7733.13    8.535593e-02
   7733.42    8.508662e-02
   7733.71    8.505021e-02
   7734.00    8.522980e-02
   7734.29    8.562927e-02
   7734.58    8.620239e-02
   7734.87    8.692358e-02
   7735.16    8.776219e-02
   7735.44    8.868247e-02
   7735.73    8.964448e-02
   7736.02    9.060254e-02
   7736.31    9.150797e-02
   7736.60    9.232260e-02
   7736.89    9.301471e-02
   7737.18    9.356195e-02
   7737.47    9.395318e-02
   7737.76    9.418664e-02
   7738.04    9.426460e-02
   7738.33    9.422569e-02
   7738.62    9.409817e-02
   7738.91    9.391262e-02
   7739.20    9.369911e-02
   7739.49    9.348504e-02
   7739.78    9.329707e-02
   7740.07    9.317433e-02
   7740.36    9.315614e-02
   7740.64    9.313794e-02
   7740.93    9.311975e-02
   7741.22    9.329505e-02
   7741.51    9.352841e-02
   7741.80    9.376177e-02
   7742.09    9.405115e-02
   7742.38    9.446656e-02
   7742.67    9.488197e-02
   7742.96    9.529738e-02
   7743.24    9.573352e-02
   7743.53    9.617343e-02
   7743.82    9.661335e-02
   7744.11    9.699831e-02
   7744.40    9.729534e-02
   7744.69    9.759238e-02
   7744.98    9.788942e-02
   7745.27    9.796444e-02
   7745.56    9.802095e-02
   7745.84    9.807747e-02
   7746.13    9.802337e-02
   7746.42    9.784022e-02
   7746.71    9.765707e-02
   7747.00    9.747392e-02
   7747.29    9.711583e-02
   7747.58    9.675773e-02
   7747.87    9.639964e-02
   7748.16    9.598946e-02
   7748.44    9.553463e-02
   7748.73    9.507981e-02
   7749.02    9.462225e-02
   7749.31    9.413187e-02
   7749.60    9.364148e-02
   7749.89    9.315110e-02
   7750.18    9.266032e-02
   7750.47    9.216930e-02
   7750.76    9.167828e-02
   7751.04    9.118910e-02
   7751.33    9.071001e-02
   7751.62    9.023091e-02
   7751.91    8.975182e-02
   7752.20    8.928053e-02
   7752.49    8.881270e-02
   7752.78    8.834488e-02
   7753.07    8.787853e-02
   7753.36    8.741709e-02
   7753.64    8.695564e-02
   7753.93    8.649420e-02
   7754.22    8.603769e-02
   7754.51    8.558266e-02
   7754.80    8.512763e-02
   7755.09    8.467686e-02
   7755.38    8.423567e-02
   7755.67    8.379448e-02
   7755.96    8.335329e-02
   7756.24    8.292820e-02
   7756.53    8.250603e-02
   7756.82    8.208387e-02
   7757.11    8.167168e-02
   7757.40    8.127544e-02
   7757.69    8.087921e-02
   7757.98    8.048298e-02
   7758.27    8.012567e-02
   7758.56    7.977161e-02
   7758.84    7.941754e-02
   7759.13    7.909548e-02
   7759.42    7.881074e-02
   7759.71    7.852600e-02
   7760.00    7.824126e-02
