 FDMNES
  energy    <xanes>
   7695.00    5.443934e-04
   7695.29    5.500996e-04
   7695.58    5.558058e-04
   7695.87    5.615121e-04
   7696.16    5.674338e-04
   7696.44    5.735403e-04
   7696.73    5.796468e-04
   7697.02    5.857874e-04
   7697.31    5.923372e-04
   7697.60    5.988870e-04
   7697.89    6.054368e-04
   7698.18    6.122898e-04
   7698.47    6.193322e-04
   7698.76    6.263746e-04
   7699.04    6.335016e-04
   7699.33    6.410936e-04
   7699.62    6.486856e-04
   7699.91    6.562776e-04
   7700.20    6.642957e-04
   7700.49    6.725031e-04
   7700.78    6.807106e-04
   7701.07    6.890779e-04
   7701.36    6.979778e-04
   7701.64    7.068776e-04
   7701.93    7.157775e-04
   7702.22    7.252793e-04
   7702.51    7.349616e-04
   7702.80    7.446440e-04
   7703.09    7.545999e-04
   7703.38    7.651711e-04
   7703.67    7.757424e-04
   7703.96    7.863136e-04
   7704.24    7.977440e-04
   7704.53    8.093306e-04
   7704.82    8.209172e-04
   7705.11    8.329526e-04
   7705.40    8.457059e-04
   7705.69    8.584593e-04
   7705.98    8.712127e-04
   7706.27    8.852120e-04
   7706.56    8.993151e-04
   7706.84    9.134182e-04
   7707.13    9.282473e-04
   7707.42    9.439232e-04
   7707.71    9.595991e-04
   7708.00    9.752751e-04
   7708.29    9.927986e-04
   7708.58    1.010322e-03
   7708.87    1.027846e-03
   7709.16    1.046548e-03
   7709.44    1.066262e-03
   7709.73    1.085976e-03
   7710.02    1.105891e-03
   7710.31    1.128227e-03
   7710.60    1.150562e-03
   7710.89    1.172898e-03
   7711.18    1.197188e-03
   7711.47    1.222700e-03
   7711.76    1.248211e-03
   7712.04    1.274322e-03
   7712.33    1.303729e-03
   7712.62    1.333136e-03
   7712.91    1.362543e-03
   7713.20    1.395309e-03
   7713.49    1.429568e-03
   7713.78    1.463827e-03
   7714.07    1.499504e-03
   7714.36    1.539909e-03
   7714.64    1.580315e-03
   7714.93    1.620720e-03
   7715.22    1.667240e-03
   7715.51    1.715594e-03
   7715.80    1.763949e-03
   7716.09    1.815545e-03
   7716.38    1.874433e-03
   7716.67    1.933322e-03
   7716.96    1.992211e-03
   7717.24    2.063273e-03
   7717.53    2.136548e-03
   7717.82    2.209823e-03
   7718.11    2.290944e-03
   7718.40    2.384620e-03
   7718.69    2.478295e-03
   7718.98    2.571970e-03
   7719.27    2.693690e-03
   7719.56    2.817746e-03
   7719.84    2.941803e-03
   7720.13    3.088183e-03
   7720.42    3.260606e-03
   7720.71    3.433030e-03
   7721.00    3.605454e-03
   7721.29    3.862722e-03
   7721.58    4.119991e-03
   7721.87    4.377260e-03
   7722.16    4.728137e-03
   7722.44    5.159249e-03
   7722.73    5.590362e-03
   7723.02    6.057807e-03
   7723.31    6.961240e-03
   7723.60    7.864674e-03
   7723.89    8.768107e-03
   7724.18    1.078707e-02
   7724.47    1.350323e-02
   7724.76    1.621939e-02
   7725.04    1.919237e-02
   7725.33    2.360660e-02
   7725.62    2.802043e-02
   7725.91    3.248553e-02
   7726.20    3.716589e-02
   7726.49    4.224624e-02
   7726.78    4.767739e-02
   7727.07    5.346956e-02
   7727.36    5.949154e-02
   7727.64    6.561388e-02
   7727.93    7.167762e-02
   7728.22    7.753384e-02
   7728.51    8.301248e-02
   7728.80    8.805884e-02
   7729.09    9.242374e-02
   7729.38    9.610058e-02
   7729.67    9.882689e-02
   7729.96    1.006379e-01
   7730.24    1.015539e-01
   7730.53    1.016307e-01
   7730.82    1.010928e-01
   7731.11    1.001196e-01
   7731.40    9.886970e-02
   7731.69    9.747902e-02
   7731.98    9.605100e-02
   7732.27    9.466401e-02
   7732.56    9.338196e-02
   7732.84    9.224047e-02
   7733.13    9.126118e-02
   7733.42    9.044726e-02
   7733.71    8.978543e-02
   7734.00    8.924975e-02
   7734.29    8.881294e-02
   7734.58    8.842451e-02
   7734.87    8.805195e-02
   7735.16    8.767028e-02
   7735.44    8.726431e-02
   7735.73    8.682934e-02
   7736.02    8.636942e-02
   7736.31    8.589949e-02
   7736.60    8.543756e-02
   7736.89    8.500150e-02
   7737.18    8.460863e-02
   7737.47    8.427465e-02
   7737.76    8.401442e-02
   7738.04    8.384691e-02
   7738.33    8.377188e-02
   7738.62    8.379408e-02
   7738.91    8.391561e-02
   7739.20    8.413614e-02
   7739.49    8.445307e-02
   7739.78    8.486891e-02
   7740.07    8.538736e-02
   7740.36    8.601311e-02
   7740.64    8.663886e-02
   7740.93    8.726461e-02
   7741.22    8.795302e-02
   7741.51    8.866022e-02
   7741.80    8.936743e-02
   7742.09    9.003658e-02
   7742.38    9.062012e-02
   7742.67    9.120365e-02
   7742.96    9.178719e-02
   7743.24    9.211173e-02
   7743.53    9.238919e-02
   7743.82    9.266664e-02
   7744.11    9.279350e-02
   7744.40    9.267941e-02
   7744.69    9.256531e-02
   7744.98    9.245121e-02
   7745.27    9.202205e-02
   7745.56    9.156664e-02
   7745.84    9.111122e-02
   7746.13    9.056535e-02
   7746.42    8.991395e-02
   7746.71    8.926255e-02
   7747.00    8.861114e-02
   7747.29    8.791860e-02
   7747.58    8.722605e-02
   7747.87    8.653350e-02
   7748.16    8.587439e-02
   7748.44    8.524393e-02
   7748.73    8.461347e-02
   7749.02    8.399101e-02
   7749.31    8.346449e-02
   7749.60    8.293797e-02
   7749.89    8.241146e-02
   7750.18    8.194955e-02
   7750.47    8.152803e-02
   7750.76    8.110651e-02
   7751.04    8.069866e-02
   7751.33    8.036595e-02
   7751.62    8.003324e-02
   7751.91    7.970054e-02
   7752.20    7.941671e-02
   7752.49    7.915460e-02
   7752.78    7.889249e-02
   7753.07    7.864372e-02
   7753.36    7.843943e-02
   7753.64    7.823513e-02
   7753.93    7.803084e-02
   7754.22    7.786697e-02
   7754.51    7.771522e-02
   7754.80    7.756347e-02
   7755.09    7.742783e-02
   7755.38    7.732844e-02
   7755.67    7.722904e-02
   7755.96    7.712965e-02
   7756.24    7.707353e-02
   7756.53    7.702528e-02
   7756.82    7.697704e-02
   7757.11    7.694477e-02
   7757.40    7.693809e-02
   7757.69    7.693140e-02
   7757.98    7.692471e-02
   7758.27    7.693828e-02
   7758.56    7.695353e-02
   7758.84    7.696878e-02
   7759.13    7.698519e-02
   7759.42    7.700294e-02
   7759.71    7.702069e-02
   7760.00    7.703844e-02
