 FDMNES
  energy    <xanes>
   7695.00    5.432775e-04
   7695.29    5.492372e-04
   7695.58    5.551968e-04
   7695.87    5.611565e-04
   7696.16    5.673469e-04
   7696.44    5.737350e-04
   7696.73    5.801231e-04
   7697.02    5.865478e-04
   7697.31    5.934109e-04
   7697.60    6.002740e-04
   7697.89    6.071371e-04
   7698.18    6.143253e-04
   7698.47    6.217168e-04
   7698.76    6.291084e-04
   7699.04    6.365906e-04
   7699.33    6.445722e-04
   7699.62    6.525537e-04
   7699.91    6.605353e-04
   7700.20    6.689747e-04
   7700.49    6.776177e-04
   7700.78    6.862607e-04
   7701.07    6.950755e-04
   7701.36    7.044632e-04
   7701.64    7.138508e-04
   7701.93    7.232385e-04
   7702.22    7.332741e-04
   7702.51    7.435040e-04
   7702.80    7.537339e-04
   7703.09    7.642584e-04
   7703.38    7.754458e-04
   7703.67    7.866331e-04
   7703.96    7.978204e-04
   7704.24    8.099336e-04
   7704.53    8.222151e-04
   7704.82    8.344967e-04
   7705.11    8.472620e-04
   7705.40    8.608014e-04
   7705.69    8.743408e-04
   7705.98    8.878803e-04
   7706.27    9.027632e-04
   7706.56    9.177581e-04
   7706.84    9.327530e-04
   7707.13    9.485307e-04
   7707.42    9.652216e-04
   7707.71    9.819126e-04
   7708.00    9.986036e-04
   7708.29    1.017286e-03
   7708.58    1.035969e-03
   7708.87    1.054652e-03
   7709.16    1.074606e-03
   7709.44    1.095649e-03
   7709.73    1.116692e-03
   7710.02    1.137952e-03
   7710.31    1.161818e-03
   7710.60    1.185684e-03
   7710.89    1.209550e-03
   7711.18    1.235517e-03
   7711.47    1.262798e-03
   7711.76    1.290079e-03
   7712.04    1.318003e-03
   7712.33    1.349466e-03
   7712.62    1.380929e-03
   7712.91    1.412392e-03
   7713.20    1.447451e-03
   7713.49    1.484109e-03
   7713.78    1.520767e-03
   7714.07    1.558940e-03
   7714.36    1.602161e-03
   7714.64    1.645382e-03
   7714.93    1.688602e-03
   7715.22    1.738326e-03
   7715.51    1.790000e-03
   7715.80    1.841674e-03
   7716.09    1.896778e-03
   7716.38    1.959600e-03
   7716.67    2.022422e-03
   7716.96    2.085243e-03
   7717.24    2.160868e-03
   7717.53    2.238820e-03
   7717.82    2.316772e-03
   7718.11    2.402914e-03
   7718.40    2.502161e-03
   7718.69    2.601407e-03
   7718.98    2.700654e-03
   7719.27    2.828912e-03
   7719.56    2.959587e-03
   7719.84    3.090263e-03
   7720.13    3.243795e-03
   7720.42    3.423994e-03
   7720.71    3.604193e-03
   7721.00    3.784392e-03
   7721.29    4.050555e-03
   7721.58    4.316717e-03
   7721.87    4.582880e-03
   7722.16    4.943171e-03
   7722.44    5.384143e-03
   7722.73    5.825116e-03
   7723.02    6.302753e-03
   7723.31    7.220369e-03
   7723.60    8.137986e-03
   7723.89    9.055602e-03
   7724.18    1.110998e-02
   7724.47    1.387483e-02
   7724.76    1.663968e-02
   7725.04    1.964862e-02
   7725.33    2.394878e-02
   7725.62    2.795397e-02
   7725.91    3.162797e-02
   7726.20    3.524053e-02
   7726.49    3.907075e-02
   7726.78    4.327301e-02
   7727.07    4.806329e-02
   7727.36    5.344709e-02
   7727.64    5.944630e-02
   7727.93    6.600842e-02
   7728.22    7.306668e-02
   7728.51    8.068783e-02
   7728.80    8.881549e-02
   7729.09    9.753465e-02
   7729.38    1.065827e-01
   7729.67    1.156306e-01
   7729.96    1.241488e-01
   7730.24    1.314519e-01
   7730.53    1.366080e-01
   7730.82    1.392030e-01
   7731.11    1.391666e-01
   7731.40    1.368039e-01
   7731.69    1.327056e-01
   7731.98    1.275653e-01
   7732.27    1.220344e-01
   7732.56    1.166739e-01
   7732.84    1.118061e-01
   7733.13    1.075974e-01
   7733.42    1.041128e-01
   7733.71    1.013476e-01
   7734.00    9.925350e-02
   7734.29    9.781563e-02
   7734.58    9.686268e-02
   7734.87    9.629455e-02
   7735.16    9.600878e-02
   7735.44    9.590490e-02
   7735.73    9.588907e-02
   7736.02    9.587489e-02
   7736.31    9.579025e-02
   7736.60    9.559622e-02
   7736.89    9.527538e-02
   7737.18    9.483064e-02
   7737.47    9.428145e-02
   7737.76    9.365801e-02
   7738.04    9.299817e-02
   7738.33    9.234431e-02
   7738.62    9.172682e-02
   7738.91    9.116871e-02
   7739.20    9.068481e-02
   7739.49    9.028206e-02
   7739.78    8.996700e-02
   7740.07    8.974410e-02
   7740.36    8.961803e-02
   7740.64    8.949197e-02
   7740.93    8.936591e-02
   7741.22    8.931667e-02
   7741.51    8.929048e-02
   7741.80    8.926429e-02
   7742.09    8.923934e-02
   7742.38    8.921718e-02
   7742.67    8.919501e-02
   7742.96    8.917285e-02
   7743.24    8.910972e-02
   7743.53    8.903914e-02
   7743.82    8.896856e-02
   7744.11    8.886481e-02
   7744.40    8.870801e-02
   7744.69    8.855121e-02
   7744.98    8.839441e-02
   7745.27    8.813375e-02
   7745.56    8.786443e-02
   7745.84    8.759512e-02
   7746.13    8.727954e-02
   7746.42    8.690999e-02
   7746.71    8.654044e-02
   7747.00    8.617089e-02
   7747.29    8.575049e-02
   7747.58    8.533008e-02
   7747.87    8.490968e-02
   7748.16    8.449219e-02
   7748.44    8.407722e-02
   7748.73    8.366224e-02
   7749.02    8.325036e-02
   7749.31    8.287560e-02
   7749.60    8.250085e-02
   7749.89    8.212609e-02
   7750.18    8.177954e-02
   7750.47    8.145062e-02
   7750.76    8.112169e-02
   7751.04    8.079747e-02
   7751.33    8.049907e-02
   7751.62    8.020068e-02
   7751.91    7.990229e-02
   7752.20    7.960876e-02
   7752.49    7.931738e-02
   7752.78    7.902601e-02
   7753.07    7.873151e-02
   7753.36    7.842657e-02
   7753.64    7.812163e-02
   7753.93    7.781669e-02
   7754.22    7.749330e-02
   7754.51    7.716438e-02
   7754.80    7.683545e-02
   7755.09    7.649981e-02
   7755.38    7.614904e-02
   7755.67    7.579828e-02
   7755.96    7.544751e-02
   7756.24    7.508950e-02
   7756.53    7.473017e-02
   7756.82    7.437084e-02
   7757.11    7.401639e-02
   7757.40    7.366974e-02
   7757.69    7.332309e-02
   7757.98    7.297645e-02
   7758.27    7.266562e-02
   7758.56    7.235779e-02
   7758.84    7.204995e-02
   7759.13    7.177220e-02
   7759.42    7.152956e-02
   7759.71    7.128691e-02
   7760.00    7.104427e-02
