 FDMNES
  energy    <xanes>
   7695.00    5.363186e-04
   7695.29    5.419866e-04
   7695.58    5.476546e-04
   7695.87    5.533226e-04
   7696.16    5.592037e-04
   7696.44    5.652675e-04
   7696.73    5.713313e-04
   7697.02    5.774288e-04
   7697.31    5.839303e-04
   7697.60    5.904319e-04
   7697.89    5.969335e-04
   7698.18    6.037341e-04
   7698.47    6.107217e-04
   7698.76    6.177092e-04
   7699.04    6.247800e-04
   7699.33    6.323089e-04
   7699.62    6.398378e-04
   7699.91    6.473666e-04
   7700.20    6.553146e-04
   7700.49    6.634489e-04
   7700.78    6.715832e-04
   7701.07    6.798744e-04
   7701.36    6.886886e-04
   7701.64    6.975028e-04
   7701.93    7.063170e-04
   7702.22    7.157211e-04
   7702.51    7.253023e-04
   7702.80    7.348835e-04
   7703.09    7.447322e-04
   7703.38    7.551829e-04
   7703.67    7.656335e-04
   7703.96    7.760842e-04
   7704.24    7.873733e-04
   7704.53    7.988149e-04
   7704.82    8.102565e-04
   7705.11    8.221350e-04
   7705.40    8.347124e-04
   7705.69    8.472898e-04
   7705.98    8.598672e-04
   7706.27    8.736541e-04
   7706.56    8.875417e-04
   7706.84    9.014294e-04
   7707.13    9.160194e-04
   7707.42    9.314289e-04
   7707.71    9.468385e-04
   7708.00    9.622480e-04
   7708.29    9.794389e-04
   7708.58    9.966298e-04
   7708.87    1.013821e-03
   7709.16    1.032144e-03
   7709.44    1.051438e-03
   7709.73    1.070732e-03
   7710.02    1.090218e-03
   7710.31    1.112018e-03
   7710.60    1.133818e-03
   7710.89    1.155619e-03
   7711.18    1.179277e-03
   7711.47    1.204096e-03
   7711.76    1.228915e-03
   7712.04    1.254301e-03
   7712.33    1.282802e-03
   7712.62    1.311303e-03
   7712.91    1.339804e-03
   7713.20    1.371456e-03
   7713.49    1.404509e-03
   7713.78    1.437562e-03
   7714.07    1.471935e-03
   7714.36    1.510709e-03
   7714.64    1.549482e-03
   7714.93    1.588255e-03
   7715.22    1.632664e-03
   7715.51    1.678762e-03
   7715.80    1.724861e-03
   7716.09    1.773913e-03
   7716.38    1.829607e-03
   7716.67    1.885301e-03
   7716.96    1.940996e-03
   7717.24    2.007623e-03
   7717.53    2.076237e-03
   7717.82    2.144852e-03
   7718.11    2.220391e-03
   7718.40    2.307011e-03
   7718.69    2.393630e-03
   7718.98    2.480250e-03
   7719.27    2.591087e-03
   7719.56    2.703942e-03
   7719.84    2.816796e-03
   7720.13    2.948397e-03
   7720.42    3.101866e-03
   7720.71    3.255336e-03
   7721.00    3.408806e-03
   7721.29    3.630961e-03
   7721.58    3.853116e-03
   7721.87    4.075271e-03
   7722.16    4.369607e-03
   7722.44    4.725811e-03
   7722.73    5.082016e-03
   7723.02    5.464534e-03
   7723.31    6.162817e-03
   7723.60    6.861099e-03
   7723.89    7.559382e-03
   7724.18    9.020343e-03
   7724.47    1.095798e-02
   7724.76    1.289562e-02
   7725.04    1.500671e-02
   7725.33    1.809803e-02
   7725.62    2.122351e-02
   7725.91    2.446467e-02
   7726.20    2.797499e-02
   7726.49    3.201440e-02
   7726.78    3.661075e-02
   7727.07    4.196436e-02
   7727.36    4.803731e-02
   7727.64    5.481630e-02
   7727.93    6.213376e-02
   7728.22    6.968463e-02
   7728.51    7.713315e-02
   7728.80    8.424709e-02
   7729.09    9.084068e-02
   7729.38    9.705220e-02
   7729.67    1.028253e-01
   7729.96    1.080251e-01
   7730.24    1.122390e-01
   7730.53    1.148098e-01
   7730.82    1.154936e-01
   7731.11    1.143359e-01
   7731.40    1.116633e-01
   7731.69    1.079868e-01
   7731.98    1.038511e-01
   7732.27    9.973978e-02
   7732.56    9.602267e-02
   7732.84    9.286242e-02
   7733.13    9.032796e-02
   7733.42    8.842305e-02
   7733.71    8.711447e-02
   7734.00    8.634990e-02
   7734.29    8.611655e-02
   7734.58    8.628267e-02
   7734.87    8.677568e-02
   7735.16    8.751919e-02
   7735.44    8.843323e-02
   7735.73    8.943536e-02
   7736.02    9.043780e-02
   7736.31    9.135199e-02
   7736.60    9.211446e-02
   7736.89    9.267967e-02
   7737.18    9.302387e-02
   7737.47    9.314555e-02
   7737.76    9.306008e-02
   7738.04    9.279190e-02
   7738.33    9.240516e-02
   7738.62    9.194513e-02
   7738.91    9.145395e-02
   7739.20    9.096766e-02
   7739.49    9.051464e-02
   7739.78    9.012110e-02
   7740.07    8.982244e-02
   7740.36    8.965456e-02
   7740.64    8.948667e-02
   7740.93    8.931878e-02
   7741.22    8.935822e-02
   7741.51    8.945985e-02
   7741.80    8.956149e-02
   7742.09    8.972596e-02
   7742.38    9.003181e-02
   7742.67    9.033767e-02
   7742.96    9.064352e-02
   7743.24    9.102888e-02
   7743.53    9.142870e-02
   7743.82    9.182851e-02
   7744.11    9.221129e-02
   7744.40    9.256683e-02
   7744.69    9.292236e-02
   7744.98    9.327789e-02
   7745.27    9.347512e-02
   7745.56    9.365915e-02
   7745.84    9.384318e-02
   7746.13    9.392102e-02
   7746.42    9.387498e-02
   7746.71    9.382893e-02
   7747.00    9.378288e-02
   7747.29    9.353318e-02
   7747.58    9.328348e-02
   7747.87    9.303379e-02
   7748.16    9.271139e-02
   7748.44    9.232669e-02
   7748.73    9.194199e-02
   7749.02    9.155188e-02
   7749.31    9.109693e-02
   7749.60    9.064197e-02
   7749.89    9.018702e-02
   7750.18    8.971760e-02
   7750.47    8.923913e-02
   7750.76    8.876067e-02
   7751.04    8.828325e-02
   7751.33    8.781159e-02
   7751.62    8.733993e-02
   7751.91    8.686827e-02
   7752.20    8.641164e-02
   7752.49    8.596170e-02
   7752.78    8.551175e-02
   7753.07    8.506689e-02
   7753.36    8.463900e-02
   7753.64    8.421111e-02
   7753.93    8.378322e-02
   7754.22    8.336417e-02
   7754.51    8.294777e-02
   7754.80    8.253136e-02
   7755.09    8.211403e-02
   7755.38    8.169461e-02
   7755.67    8.127518e-02
   7755.96    8.085576e-02
   7756.24    8.042595e-02
   7756.53    7.999426e-02
   7756.82    7.956256e-02
   7757.11    7.912843e-02
   7757.40    7.869041e-02
   7757.69    7.825238e-02
   7757.98    7.781436e-02
   7758.27    7.739959e-02
   7758.56    7.698677e-02
   7758.84    7.657394e-02
   7759.13    7.619656e-02
   7759.42    7.586051e-02
   7759.71    7.552447e-02
   7760.00    7.518842e-02
