 FDMNES
  energy    <xanes>
   7695.00    5.307169e-04
   7695.29    5.366005e-04
   7695.58    5.424841e-04
   7695.87    5.483676e-04
   7696.16    5.544801e-04
   7696.44    5.607888e-04
   7696.73    5.670974e-04
   7697.02    5.734424e-04
   7697.31    5.802224e-04
   7697.60    5.870024e-04
   7697.89    5.937825e-04
   7698.18    6.008853e-04
   7698.47    6.081898e-04
   7698.76    6.154943e-04
   7699.04    6.228890e-04
   7699.33    6.307792e-04
   7699.62    6.386695e-04
   7699.91    6.465598e-04
   7700.20    6.549047e-04
   7700.49    6.634517e-04
   7700.78    6.719987e-04
   7701.07    6.807164e-04
   7701.36    6.900029e-04
   7701.64    6.992894e-04
   7701.93    7.085759e-04
   7702.22    7.185058e-04
   7702.51    7.286288e-04
   7702.80    7.387517e-04
   7703.09    7.491673e-04
   7703.38    7.602411e-04
   7703.67    7.713150e-04
   7703.96    7.823888e-04
   7704.24    7.943823e-04
   7704.53    8.065429e-04
   7704.82    8.187036e-04
   7705.11    8.313447e-04
   7705.40    8.447547e-04
   7705.69    8.581648e-04
   7705.98    8.715748e-04
   7706.27    8.863191e-04
   7706.56    9.011746e-04
   7706.84    9.160302e-04
   7707.13    9.316630e-04
   7707.42    9.482028e-04
   7707.71    9.647425e-04
   7708.00    9.812822e-04
   7708.29    9.997995e-04
   7708.58    1.018317e-03
   7708.87    1.036834e-03
   7709.16    1.056613e-03
   7709.44    1.077472e-03
   7709.73    1.098331e-03
   7710.02    1.119406e-03
   7710.31    1.143066e-03
   7710.60    1.166726e-03
   7710.89    1.190385e-03
   7711.18    1.216128e-03
   7711.47    1.243172e-03
   7711.76    1.270217e-03
   7712.04    1.297899e-03
   7712.33    1.329084e-03
   7712.62    1.360270e-03
   7712.91    1.391455e-03
   7713.20    1.426198e-03
   7713.49    1.462521e-03
   7713.78    1.498844e-03
   7714.07    1.536662e-03
   7714.36    1.579463e-03
   7714.64    1.622264e-03
   7714.93    1.665064e-03
   7715.22    1.714267e-03
   7715.51    1.765391e-03
   7715.80    1.816514e-03
   7716.09    1.871003e-03
   7716.38    1.933063e-03
   7716.67    1.995123e-03
   7716.96    2.057183e-03
   7717.24    2.131740e-03
   7717.53    2.208569e-03
   7717.82    2.285398e-03
   7718.11    2.370165e-03
   7718.40    2.467631e-03
   7718.69    2.565097e-03
   7718.98    2.662563e-03
   7719.27    2.787844e-03
   7719.56    2.915443e-03
   7719.84    3.043042e-03
   7720.13    3.192199e-03
   7720.42    3.366506e-03
   7720.71    3.540813e-03
   7721.00    3.715121e-03
   7721.29    3.968400e-03
   7721.58    4.221680e-03
   7721.87    4.474960e-03
   7722.16    4.810979e-03
   7722.44    5.217916e-03
   7722.73    5.624853e-03
   7723.02    6.061677e-03
   7723.31    6.857139e-03
   7723.60    7.652601e-03
   7723.89    8.448062e-03
   7724.18    1.010439e-02
   7724.47    1.229875e-02
   7724.76    1.449311e-02
   7725.04    1.689514e-02
   7725.33    2.050995e-02
   7725.62    2.428733e-02
   7725.91    2.829695e-02
   7726.20    3.262594e-02
   7726.49    3.743105e-02
   7726.78    4.261466e-02
   7727.07    4.817952e-02
   7727.36    5.406714e-02
   7727.64    6.043460e-02
   7727.93    6.758326e-02
   7728.22    7.578448e-02
   7728.51    8.531542e-02
   7728.80    9.587215e-02
   7729.09    1.071818e-01
   7729.38    1.184389e-01
   7729.67    1.286791e-01
   7729.96    1.371143e-01
   7730.24    1.429252e-01
   7730.53    1.452771e-01
   7730.82    1.443369e-01
   7731.11    1.406375e-01
   7731.40    1.350138e-01
   7731.69    1.284007e-01
   7731.98    1.216023e-01
   7732.27    1.152140e-01
   7732.56    1.095819e-01
   7732.84    1.047724e-01
   7733.13    1.007882e-01
   7733.42    9.758115e-02
   7733.71    9.507792e-02
   7734.00    9.319490e-02
   7734.29    9.189887e-02
   7734.58    9.103363e-02
   7734.87    9.051735e-02
   7735.16    9.027185e-02
   7735.44    9.022342e-02
   7735.73    9.030411e-02
   7736.02    9.045463e-02
   7736.31    9.061774e-02
   7736.60    9.075552e-02
   7736.89    9.084685e-02
   7737.18    9.088443e-02
   7737.47    9.087350e-02
   7737.76    9.082912e-02
   7738.04    9.077511e-02
   7738.33    9.073856e-02
   7738.62    9.074111e-02
   7738.91    9.079909e-02
   7739.20    9.092167e-02
   7739.49    9.110999e-02
   7739.78    9.136084e-02
   7740.07    9.164729e-02
   7740.36    9.193004e-02
   7740.64    9.221278e-02
   7740.93    9.249552e-02
   7741.22    9.259817e-02
   7741.51    9.264679e-02
   7741.80    9.269541e-02
   7742.09    9.264910e-02
   7742.38    9.238921e-02
   7742.67    9.212932e-02
   7742.96    9.186942e-02
   7743.24    9.148885e-02
   7743.53    9.108635e-02
   7743.82    9.068384e-02
   7744.11    9.028522e-02
   7744.40    8.989283e-02
   7744.69    8.950043e-02
   7744.98    8.910804e-02
   7745.27    8.873828e-02
   7745.56    8.837040e-02
   7745.84    8.800253e-02
   7746.13    8.762050e-02
   7746.42    8.722197e-02
   7746.71    8.682343e-02
   7747.00    8.642490e-02
   7747.29    8.596652e-02
   7747.58    8.550814e-02
   7747.87    8.504976e-02
   7748.16    8.457050e-02
   7748.44    8.407335e-02
   7748.73    8.357619e-02
   7749.02    8.307916e-02
   7749.31    8.258360e-02
   7749.60    8.208804e-02
   7749.89    8.159249e-02
   7750.18    8.111494e-02
   7750.47    8.064865e-02
   7750.76    8.018236e-02
   7751.04    7.972144e-02
   7751.33    7.929003e-02
   7751.62    7.885863e-02
   7751.91    7.842722e-02
   7752.20    7.801296e-02
   7752.49    7.760631e-02
   7752.78    7.719966e-02
   7753.07    7.679505e-02
   7753.36    7.639727e-02
   7753.64    7.599949e-02
   7753.93    7.560171e-02
   7754.22    7.520058e-02
   7754.51    7.479844e-02
   7754.80    7.439630e-02
   7755.09    7.399138e-02
   7755.38    7.358018e-02
   7755.67    7.316899e-02
   7755.96    7.275780e-02
   7756.24    7.234501e-02
   7756.53    7.193193e-02
   7756.82    7.151885e-02
   7757.11    7.111260e-02
   7757.40    7.071728e-02
   7757.69    7.032196e-02
   7757.98    6.992664e-02
   7758.27    6.957448e-02
   7758.56    6.922592e-02
   7758.84    6.887735e-02
   7759.13    6.856377e-02
   7759.42    6.829099e-02
   7759.71    6.801822e-02
   7760.00    6.774544e-02
