 FDMNES
  energy    <xanes>
   7695.00    5.444360e-04
   7695.29    5.500508e-04
   7695.58    5.556656e-04
   7695.87    5.612803e-04
   7696.16    5.671008e-04
   7696.44    5.730977e-04
   7696.73    5.790946e-04
   7697.02    5.851239e-04
   7697.31    5.915423e-04
   7697.60    5.979608e-04
   7697.89    6.043793e-04
   7698.18    6.110851e-04
   7698.47    6.179704e-04
   7698.76    6.248557e-04
   7699.04    6.318208e-04
   7699.33    6.392247e-04
   7699.62    6.466286e-04
   7699.91    6.540326e-04
   7700.20    6.618369e-04
   7700.49    6.698191e-04
   7700.78    6.778013e-04
   7701.07    6.859330e-04
   7701.36    6.945628e-04
   7701.64    7.031925e-04
   7701.93    7.118223e-04
   7702.22    7.210121e-04
   7702.51    7.303699e-04
   7702.80    7.397277e-04
   7703.09    7.493387e-04
   7703.38    7.595190e-04
   7703.67    7.696994e-04
   7703.96    7.798798e-04
   7704.24    7.908505e-04
   7704.53    8.019648e-04
   7704.82    8.130792e-04
   7705.11    8.246037e-04
   7705.40    8.367845e-04
   7705.69    8.489652e-04
   7705.98    8.611460e-04
   7706.27    8.744576e-04
   7706.56    8.878633e-04
   7706.84    9.012691e-04
   7707.13    9.153287e-04
   7707.42    9.301511e-04
   7707.71    9.449735e-04
   7708.00    9.597959e-04
   7708.29    9.762686e-04
   7708.58    9.927414e-04
   7708.87    1.009214e-03
   7709.16    1.026731e-03
   7709.44    1.045142e-03
   7709.73    1.063553e-03
   7710.02    1.082141e-03
   7710.31    1.102850e-03
   7710.60    1.123559e-03
   7710.89    1.144268e-03
   7711.18    1.166670e-03
   7711.47    1.190131e-03
   7711.76    1.213593e-03
   7712.04    1.237567e-03
   7712.33    1.264364e-03
   7712.62    1.291161e-03
   7712.91    1.317958e-03
   7713.20    1.347592e-03
   7713.49    1.378488e-03
   7713.78    1.409383e-03
   7714.07    1.441459e-03
   7714.36    1.477470e-03
   7714.64    1.513481e-03
   7714.93    1.549493e-03
   7715.22    1.590509e-03
   7715.51    1.633027e-03
   7715.80    1.675545e-03
   7716.09    1.720667e-03
   7716.38    1.771650e-03
   7716.67    1.822633e-03
   7716.96    1.873616e-03
   7717.24    1.934181e-03
   7717.53    1.996489e-03
   7717.82    2.058796e-03
   7718.11    2.127141e-03
   7718.40    2.205145e-03
   7718.69    2.283148e-03
   7718.98    2.361152e-03
   7719.27    2.460199e-03
   7719.56    2.561000e-03
   7719.84    2.661801e-03
   7720.13    2.778912e-03
   7720.42    2.915051e-03
   7720.71    3.051189e-03
   7721.00    3.187328e-03
   7721.29    3.383836e-03
   7721.58    3.580344e-03
   7721.87    3.776852e-03
   7722.16    4.038569e-03
   7722.44    4.356181e-03
   7722.73    4.673793e-03
   7723.02    5.016617e-03
   7723.31    5.661982e-03
   7723.60    6.307347e-03
   7723.89    6.952712e-03
   7724.18    8.375776e-03
   7724.47    1.028490e-02
   7724.76    1.219403e-02
   7725.04    1.426442e-02
   7725.33    1.717698e-02
   7725.62    1.987660e-02
   7725.91    2.236910e-02
   7726.20    2.482776e-02
   7726.49    2.738839e-02
   7726.78    3.010990e-02
   7727.07    3.307790e-02
   7727.36    3.630581e-02
   7727.64    3.985033e-02
   7727.93    4.376996e-02
   7728.22    4.812236e-02
   7728.51    5.303906e-02
   7728.80    5.846542e-02
   7729.09    6.443980e-02
   7729.38    7.068872e-02
   7729.67    7.697336e-02
   7729.96    8.301947e-02
   7730.24    8.860061e-02
   7730.53    9.350011e-02
   7730.82    9.765968e-02
   7731.11    1.010276e-01
   7731.40    1.035591e-01
   7731.69    1.052300e-01
   7731.98    1.060483e-01
   7732.27    1.060316e-01
   7732.56    1.052995e-01
   7732.84    1.040842e-01
   7733.13    1.026001e-01
   7733.42    1.010592e-01
   7733.71    9.963625e-02
   7734.00    9.845082e-02
   7734.29    9.760542e-02
   7734.58    9.707792e-02
   7734.87    9.684783e-02
   7735.16    9.687516e-02
   7735.44    9.710748e-02
   7735.73    9.748509e-02
   7736.02    9.794664e-02
   7736.31    9.842123e-02
   7736.60    9.885204e-02
   7736.89    9.919695e-02
   7737.18    9.942771e-02
   7737.47    9.953135e-02
   7737.76    9.950791e-02
   7738.04    9.936574e-02
   7738.33    9.914343e-02
   7738.62    9.887143e-02
   7738.91    9.858129e-02
   7739.20    9.830284e-02
   7739.49    9.806211e-02
   7739.78    9.788603e-02
   7740.07    9.781281e-02
   7740.36    9.788040e-02
   7740.64    9.794799e-02
   7740.93    9.801558e-02
   7741.22    9.828137e-02
   7741.51    9.860663e-02
   7741.80    9.893189e-02
   7742.09    9.929038e-02
   7742.38    9.972364e-02
   7742.67    1.001569e-01
   7742.96    1.005902e-01
   7743.24    1.009610e-01
   7743.53    1.013204e-01
   7743.82    1.016799e-01
   7744.11    1.019589e-01
   7744.40    1.021091e-01
   7744.69    1.022593e-01
   7744.98    1.024095e-01
   7745.27    1.023131e-01
   7745.56    1.021962e-01
   7745.84    1.020793e-01
   7746.13    1.018460e-01
   7746.42    1.014769e-01
   7746.71    1.011077e-01
   7747.00    1.007386e-01
   7747.29    1.001784e-01
   7747.58    9.961817e-02
   7747.87    9.905795e-02
   7748.16    9.843455e-02
   7748.44    9.775701e-02
   7748.73    9.707947e-02
   7749.02    9.639774e-02
   7749.31    9.566588e-02
   7749.60    9.493402e-02
   7749.89    9.420216e-02
   7750.18    9.347053e-02
   7750.47    9.273906e-02
   7750.76    9.200758e-02
   7751.04    9.128362e-02
   7751.33    9.060097e-02
   7751.62    8.991832e-02
   7751.91    8.923567e-02
   7752.20    8.859895e-02
   7752.49    8.798265e-02
   7752.78    8.736634e-02
   7753.07    8.676520e-02
   7753.36    8.621460e-02
   7753.64    8.566400e-02
   7753.93    8.511340e-02
   7754.22    8.461036e-02
   7754.51    8.412160e-02
   7754.80    8.363284e-02
   7755.09    8.316155e-02
   7755.38    8.272957e-02
   7755.67    8.229759e-02
   7755.96    8.186561e-02
   7756.24    8.147753e-02
   7756.53    8.109743e-02
   7756.82    8.071733e-02
   7757.11    8.035605e-02
   7757.40    8.002489e-02
   7757.69    7.969373e-02
   7757.98    7.936256e-02
   7758.27    7.907817e-02
   7758.56    7.879766e-02
   7758.84    7.851716e-02
   7759.13    7.826438e-02
   7759.42    7.804394e-02
   7759.71    7.782350e-02
   7760.00    7.760306e-02
