 FDMNES
  energy    <xanes>
   7695.00    5.406379e-04
   7695.29    5.460940e-04
   7695.58    5.515500e-04
   7695.87    5.570061e-04
   7696.16    5.626593e-04
   7696.44    5.684816e-04
   7696.73    5.743038e-04
   7697.02    5.801571e-04
   7697.31    5.863831e-04
   7697.60    5.926091e-04
   7697.89    5.988351e-04
   7698.18    6.053360e-04
   7698.47    6.120087e-04
   7698.76    6.186814e-04
   7699.04    6.254304e-04
   7699.33    6.325990e-04
   7699.62    6.397676e-04
   7699.91    6.469362e-04
   7700.20    6.544873e-04
   7700.49    6.622085e-04
   7700.78    6.699297e-04
   7701.07    6.777935e-04
   7701.36    6.861329e-04
   7701.64    6.944723e-04
   7701.93    7.028116e-04
   7702.22    7.116854e-04
   7702.51    7.207194e-04
   7702.80    7.297534e-04
   7703.09    7.390287e-04
   7703.38    7.488470e-04
   7703.67    7.586652e-04
   7703.96    7.684835e-04
   7704.24    7.790547e-04
   7704.53    7.897628e-04
   7704.82    8.004709e-04
   7705.11    8.115695e-04
   7705.40    8.232930e-04
   7705.69    8.350165e-04
   7705.98    8.467399e-04
   7706.27    8.595395e-04
   7706.56    8.724287e-04
   7706.84    8.853178e-04
   7707.13    8.988289e-04
   7707.42    9.130654e-04
   7707.71    9.273019e-04
   7708.00    9.415384e-04
   7708.29    9.573438e-04
   7708.58    9.731491e-04
   7708.87    9.889545e-04
   7709.16    1.005752e-03
   7709.44    1.023399e-03
   7709.73    1.041047e-03
   7710.02    1.058862e-03
   7710.31    1.078692e-03
   7710.60    1.098523e-03
   7710.89    1.118353e-03
   7711.18    1.139793e-03
   7711.47    1.162238e-03
   7711.76    1.184683e-03
   7712.04    1.207615e-03
   7712.33    1.233229e-03
   7712.62    1.258843e-03
   7712.91    1.284457e-03
   7713.20    1.312767e-03
   7713.49    1.342275e-03
   7713.78    1.371783e-03
   7714.07    1.402414e-03
   7714.36    1.436786e-03
   7714.64    1.471158e-03
   7714.93    1.505530e-03
   7715.22    1.544664e-03
   7715.51    1.585227e-03
   7715.80    1.625790e-03
   7716.09    1.668835e-03
   7716.38    1.717461e-03
   7716.67    1.766088e-03
   7716.96    1.814715e-03
   7717.24    1.872484e-03
   7717.53    1.931916e-03
   7717.82    1.991347e-03
   7718.11    2.056550e-03
   7718.40    2.130986e-03
   7718.69    2.205422e-03
   7718.98    2.279858e-03
   7719.27    2.374459e-03
   7719.56    2.470739e-03
   7719.84    2.567020e-03
   7720.13    2.678966e-03
   7720.42    2.809189e-03
   7720.71    2.939412e-03
   7721.00    3.069635e-03
   7721.29    3.257949e-03
   7721.58    3.446264e-03
   7721.87    3.634579e-03
   7722.16    3.885607e-03
   7722.44    4.190390e-03
   7722.73    4.495173e-03
   7723.02    4.824038e-03
   7723.31    5.441897e-03
   7723.60    6.059756e-03
   7723.89    6.677614e-03
   7724.18    8.033598e-03
   7724.47    9.850909e-03
   7724.76    1.166822e-02
   7725.04    1.364532e-02
   7725.33    1.648226e-02
   7725.62    1.918769e-02
   7725.91    2.175645e-02
   7726.20    2.431931e-02
   7726.49    2.699660e-02
   7726.78    2.985008e-02
   7727.07    3.300009e-02
   7727.36    3.649033e-02
   7727.64    4.039768e-02
   7727.93    4.474415e-02
   7728.22    4.947901e-02
   7728.51    5.454586e-02
   7728.80    5.975716e-02
   7729.09    6.491900e-02
   7729.38    6.984405e-02
   7729.67    7.429947e-02
   7729.96    7.823060e-02
   7730.24    8.161009e-02
   7730.53    8.443489e-02
   7730.82    8.679683e-02
   7731.11    8.873085e-02
   7731.40    9.022829e-02
   7731.69    9.125281e-02
   7731.98    9.176360e-02
   7732.27    9.171899e-02
   7732.56    9.115577e-02
   7732.84    9.021376e-02
   7733.13    8.903823e-02
   7733.42    8.778852e-02
   7733.71    8.661080e-02
   7734.00    8.562005e-02
   7734.29    8.493019e-02
   7734.58    8.455006e-02
   7734.87    8.448715e-02
   7735.16    8.472955e-02
   7735.44    8.525127e-02
   7735.73    8.601573e-02
   7736.02    8.698759e-02
   7736.31    8.810357e-02
   7736.60    8.929924e-02
   7736.89    9.052231e-02
   7737.18    9.172633e-02
   7737.47    9.287304e-02
   7737.76    9.393237e-02
   7738.04    9.487785e-02
   7738.33    9.571633e-02
   7738.62    9.645578e-02
   7738.91    9.711225e-02
   7739.20    9.770701e-02
   7739.49    9.826331e-02
   7739.78    9.880361e-02
   7740.07    9.935541e-02
   7740.36    9.993940e-02
   7740.64    1.005234e-01
   7740.93    1.011074e-01
   7741.22    1.017306e-01
   7741.51    1.023656e-01
   7741.80    1.030007e-01
   7742.09    1.036098e-01
   7742.38    1.041609e-01
   7742.67    1.047119e-01
   7742.96    1.052630e-01
   7743.24    1.055976e-01
   7743.53    1.058928e-01
   7743.82    1.061880e-01
   7744.11    1.063392e-01
   7744.40    1.062601e-01
   7744.69    1.061809e-01
   7744.98    1.061018e-01
   7745.27    1.056605e-01
   7745.56    1.051891e-01
   7745.84    1.047177e-01
   7746.13    1.041050e-01
   7746.42    1.033275e-01
   7746.71    1.025500e-01
   7747.00    1.017724e-01
   7747.29    1.008338e-01
   7747.58    9.989516e-02
   7747.87    9.895652e-02
   7748.16    9.800532e-02
   7748.44    9.704337e-02
   7748.73    9.608142e-02
   7749.02    9.512471e-02
   7749.31    9.423092e-02
   7749.60    9.333712e-02
   7749.89    9.244332e-02
   7750.18    9.161822e-02
   7750.47    9.083605e-02
   7750.76    9.005389e-02
   7751.04    8.929056e-02
   7751.33    8.863082e-02
   7751.62    8.797109e-02
   7751.91    8.731136e-02
   7752.20    8.673171e-02
   7752.49    8.618765e-02
   7752.78    8.564360e-02
   7753.07    8.512304e-02
   7753.36    8.468079e-02
   7753.64    8.423855e-02
   7753.93    8.379631e-02
   7754.22    8.342133e-02
   7754.51    8.306655e-02
   7754.80    8.271176e-02
   7755.09    8.238026e-02
   7755.38    8.210118e-02
   7755.67    8.182209e-02
   7755.96    8.154301e-02
   7756.24    8.131937e-02
   7756.53    8.110581e-02
   7756.82    8.089226e-02
   7757.11    8.069926e-02
   7757.40    8.053915e-02
   7757.69    8.037904e-02
   7757.98    8.021892e-02
   7758.27    8.009602e-02
   7758.56    7.997621e-02
   7758.84    7.985641e-02
   7759.13    7.975127e-02
   7759.42    7.966325e-02
   7759.71    7.957522e-02
   7760.00    7.948719e-02
