 FDMNES
  energy    <xanes>
   7695.00    5.326336e-04
   7695.29    5.381303e-04
   7695.58    5.436269e-04
   7695.87    5.491236e-04
   7696.16    5.548216e-04
   7696.44    5.606922e-04
   7696.73    5.665628e-04
   7697.02    5.724652e-04
   7697.31    5.787485e-04
   7697.60    5.850318e-04
   7697.89    5.913152e-04
   7698.18    5.978797e-04
   7698.47    6.046200e-04
   7698.76    6.113602e-04
   7699.04    6.181786e-04
   7699.33    6.254266e-04
   7699.62    6.326746e-04
   7699.91    6.399226e-04
   7700.20    6.475626e-04
   7700.49    6.553769e-04
   7700.78    6.631911e-04
   7701.07    6.711517e-04
   7701.36    6.796001e-04
   7701.64    6.880484e-04
   7701.93    6.964968e-04
   7702.22    7.054938e-04
   7702.51    7.146553e-04
   7702.80    7.238169e-04
   7703.09    7.332264e-04
   7703.38    7.431938e-04
   7703.67    7.531613e-04
   7703.96    7.631288e-04
   7704.24    7.738708e-04
   7704.53    7.847537e-04
   7704.82    7.956366e-04
   7705.11    8.069217e-04
   7705.40    8.188503e-04
   7705.69    8.307788e-04
   7705.98    8.427074e-04
   7706.27    8.557453e-04
   7706.56    8.688756e-04
   7706.84    8.820060e-04
   7707.13    8.957781e-04
   7707.42    9.102991e-04
   7707.71    9.248200e-04
   7708.00    9.393410e-04
   7708.29    9.554832e-04
   7708.58    9.716254e-04
   7708.87    9.877676e-04
   7709.16    1.004936e-03
   7709.44    1.022984e-03
   7709.73    1.041032e-03
   7710.02    1.059255e-03
   7710.31    1.079565e-03
   7710.60    1.099875e-03
   7710.89    1.120185e-03
   7711.18    1.142164e-03
   7711.47    1.165187e-03
   7711.76    1.188209e-03
   7712.04    1.211739e-03
   7712.33    1.238055e-03
   7712.62    1.264370e-03
   7712.91    1.290686e-03
   7713.20    1.319809e-03
   7713.49    1.350178e-03
   7713.78    1.380548e-03
   7714.07    1.412088e-03
   7714.36    1.447530e-03
   7714.64    1.482972e-03
   7714.93    1.518414e-03
   7715.22    1.558832e-03
   7715.51    1.600744e-03
   7715.80    1.642656e-03
   7716.09    1.687166e-03
   7716.38    1.737525e-03
   7716.67    1.787883e-03
   7716.96    1.838242e-03
   7717.24    1.898203e-03
   7717.53    1.959909e-03
   7717.82    2.021616e-03
   7718.11    2.089405e-03
   7718.40    2.166925e-03
   7718.69    2.244445e-03
   7718.98    2.321964e-03
   7719.27    2.420822e-03
   7719.56    2.521458e-03
   7719.84    2.622094e-03
   7720.13    2.739400e-03
   7720.42    2.876153e-03
   7720.71    3.012906e-03
   7721.00    3.149659e-03
   7721.29    3.348705e-03
   7721.58    3.547752e-03
   7721.87    3.746798e-03
   7722.16    4.013877e-03
   7722.44    4.339271e-03
   7722.73    4.664664e-03
   7723.02    5.016652e-03
   7723.31    5.687778e-03
   7723.60    6.358903e-03
   7723.89    7.030028e-03
   7724.18    8.529172e-03
   7724.47    1.054583e-02
   7724.76    1.256248e-02
   7725.04    1.475430e-02
   7725.33    1.787029e-02
   7725.62    2.077546e-02
   7725.91    2.343253e-02
   7726.20    2.597861e-02
   7726.49    2.852499e-02
   7726.78    3.120316e-02
   7727.07    3.418369e-02
   7727.36    3.753852e-02
   7727.64    4.136851e-02
   7727.93    4.573971e-02
   7728.22    5.067576e-02
   7728.51    5.625414e-02
   7728.80    6.231741e-02
   7729.09    6.873483e-02
   7729.38    7.510081e-02
   7729.67    8.089459e-02
   7729.96    8.572602e-02
   7730.24    8.927855e-02
   7730.53    9.137014e-02
   7730.82    9.227189e-02
   7731.11    9.228863e-02
   7731.40    9.172051e-02
   7731.69    9.082983e-02
   7731.98    8.981873e-02
   7732.27    8.883847e-02
   7732.56    8.800177e-02
   7732.84    8.736689e-02
   7733.13    8.697348e-02
   7733.42    8.684377e-02
   7733.71    8.698557e-02
   7734.00    8.739490e-02
   7734.29    8.808629e-02
   7734.58    8.900510e-02
   7734.87    9.012061e-02
   7735.16    9.139426e-02
   7735.44    9.277975e-02
   7735.73    9.422384e-02
   7736.02    9.566363e-02
   7736.31    9.702889e-02
   7736.60    9.826112e-02
   7736.89    9.930820e-02
   7737.18    1.001293e-01
   7737.47    1.006986e-01
   7737.76    1.010029e-01
   7738.04    1.010328e-01
   7738.33    1.008432e-01
   7738.62    1.004738e-01
   7738.91    9.997134e-02
   7739.20    9.938517e-02
   7739.49    9.876325e-02
   7739.78    9.815260e-02
   7740.07    9.762557e-02
   7740.36    9.725589e-02
   7740.64    9.688621e-02
   7740.93    9.651653e-02
   7741.22    9.649437e-02
   7741.51    9.657647e-02
   7741.80    9.665857e-02
   7742.09    9.686494e-02
   7742.38    9.735091e-02
   7742.67    9.783688e-02
   7742.96    9.832285e-02
   7743.24    9.897575e-02
   7743.53    9.965900e-02
   7743.82    1.003422e-01
   7744.11    1.010012e-01
   7744.40    1.016213e-01
   7744.69    1.022414e-01
   7744.98    1.028615e-01
   7745.27    1.032149e-01
   7745.56    1.035460e-01
   7745.84    1.038771e-01
   7746.13    1.040192e-01
   7746.42    1.039407e-01
   7746.71    1.038622e-01
   7747.00    1.037837e-01
   7747.29    1.033118e-01
   7747.58    1.028399e-01
   7747.87    1.023680e-01
   7748.16    1.017506e-01
   7748.44    1.010085e-01
   7748.73    1.002664e-01
   7749.02    9.951535e-02
   7749.31    9.865749e-02
   7749.60    9.779962e-02
   7749.89    9.694176e-02
   7750.18    9.608629e-02
   7750.47    9.523231e-02
   7750.76    9.437833e-02
   7751.04    9.353449e-02
   7751.33    9.274637e-02
   7751.62    9.195826e-02
   7751.91    9.117014e-02
   7752.20    9.043824e-02
   7752.49    8.973133e-02
   7752.78    8.902442e-02
   7753.07    8.833464e-02
   7753.36    8.770196e-02
   7753.64    8.706929e-02
   7753.93    8.643661e-02
   7754.22    8.585145e-02
   7754.51    8.528054e-02
   7754.80    8.470962e-02
   7755.09    8.415203e-02
   7755.38    8.362442e-02
   7755.67    8.309680e-02
   7755.96    8.256918e-02
   7756.24    8.206526e-02
   7756.53    8.156564e-02
   7756.82    8.106603e-02
   7757.11    8.057630e-02
   7757.40    8.010239e-02
   7757.69    7.962848e-02
   7757.98    7.915457e-02
   7758.27    7.871982e-02
   7758.56    7.828834e-02
   7758.84    7.785686e-02
   7759.13    7.746190e-02
   7759.42    7.710955e-02
   7759.71    7.675719e-02
   7760.00    7.640484e-02
