 FDMNES
  energy    <xanes>
   7695.00    5.373604e-04
   7695.29    5.431305e-04
   7695.58    5.489005e-04
   7695.87    5.546706e-04
   7696.16    5.606592e-04
   7696.44    5.668353e-04
   7696.73    5.730113e-04
   7697.02    5.792219e-04
   7697.31    5.858472e-04
   7697.60    5.924726e-04
   7697.89    5.990979e-04
   7698.18    6.060303e-04
   7698.47    6.131545e-04
   7698.76    6.202787e-04
   7699.04    6.274885e-04
   7699.33    6.351687e-04
   7699.62    6.428490e-04
   7699.91    6.505292e-04
   7700.20    6.586401e-04
   7700.49    6.669424e-04
   7700.78    6.752447e-04
   7701.07    6.837082e-04
   7701.36    6.927094e-04
   7701.64    7.017106e-04
   7701.93    7.107118e-04
   7702.22    7.203198e-04
   7702.51    7.301098e-04
   7702.80    7.398998e-04
   7703.09    7.499651e-04
   7703.38    7.606498e-04
   7703.67    7.713346e-04
   7703.96    7.820193e-04
   7704.24    7.935673e-04
   7704.53    8.052723e-04
   7704.82    8.169773e-04
   7705.11    8.291323e-04
   7705.40    8.420076e-04
   7705.69    8.548828e-04
   7705.98    8.677580e-04
   7706.27    8.818803e-04
   7706.56    8.961065e-04
   7706.84    9.103326e-04
   7707.13    9.252837e-04
   7707.42    9.410804e-04
   7707.71    9.568772e-04
   7708.00    9.726739e-04
   7708.29    9.903110e-04
   7708.58    1.007948e-03
   7708.87    1.025585e-03
   7709.16    1.044393e-03
   7709.44    1.064206e-03
   7709.73    1.084018e-03
   7710.02    1.104030e-03
   7710.31    1.126438e-03
   7710.60    1.148847e-03
   7710.89    1.171256e-03
   7711.18    1.195593e-03
   7711.47    1.221135e-03
   7711.76    1.246677e-03
   7712.04    1.272808e-03
   7712.33    1.302180e-03
   7712.62    1.331551e-03
   7712.91    1.360923e-03
   7713.20    1.393583e-03
   7713.49    1.427704e-03
   7713.78    1.461824e-03
   7714.07    1.497327e-03
   7714.36    1.537438e-03
   7714.64    1.577548e-03
   7714.93    1.617658e-03
   7715.22    1.663697e-03
   7715.51    1.711514e-03
   7715.80    1.759330e-03
   7716.09    1.810272e-03
   7716.38    1.868245e-03
   7716.67    1.926218e-03
   7716.96    1.984191e-03
   7717.24    2.053828e-03
   7717.53    2.125585e-03
   7717.82    2.197342e-03
   7718.11    2.276567e-03
   7718.40    2.367739e-03
   7718.69    2.458910e-03
   7718.98    2.550082e-03
   7719.27    2.667741e-03
   7719.56    2.787608e-03
   7719.84    2.907474e-03
   7720.13    3.048245e-03
   7720.42    3.213404e-03
   7720.71    3.378563e-03
   7721.00    3.543722e-03
   7721.29    3.787547e-03
   7721.58    4.031373e-03
   7721.87    4.275199e-03
   7722.16    4.604767e-03
   7722.44    5.007831e-03
   7722.73    5.410894e-03
   7723.02    5.846713e-03
   7723.31    6.675591e-03
   7723.60    7.504470e-03
   7723.89    8.333349e-03
   7724.18    1.015691e-02
   7724.47    1.260214e-02
   7724.76    1.504737e-02
   7725.04    1.772851e-02
   7725.33    2.175396e-02
   7725.62    2.583471e-02
   7725.91    2.999867e-02
   7726.20    3.438284e-02
   7726.49    3.919452e-02
   7726.78    4.441566e-02
   7727.07    5.008539e-02
   7727.36    5.602624e-02
   7727.64    6.200672e-02
   7727.93    6.776753e-02
   7728.22    7.316959e-02
   7728.51    7.818005e-02
   7728.80    8.290016e-02
   7729.09    8.712968e-02
   7729.38    9.068190e-02
   7729.67    9.309262e-02
   7729.96    9.433688e-02
   7730.24    9.449811e-02
   7730.53    9.381839e-02
   7730.82    9.273059e-02
   7731.11    9.154685e-02
   7731.40    9.048494e-02
   7731.69    8.968478e-02
   7731.98    8.922824e-02
   7732.27    8.917544e-02
   7732.56    8.953695e-02
   7732.84    9.026024e-02
   7733.13    9.130060e-02
   7733.42    9.260130e-02
   7733.71    9.409942e-02
   7734.00    9.573051e-02
   7734.29    9.743281e-02
   7734.58    9.913276e-02
   7734.87    1.007736e-01
   7735.16    1.023006e-01
   7735.44    1.036621e-01
   7735.73    1.048113e-01
   7736.02    1.056907e-01
   7736.31    1.062774e-01
   7736.60    1.065795e-01
   7736.89    1.066101e-01
   7737.18    1.063991e-01
   7737.47    1.059907e-01
   7737.76    1.054373e-01
   7738.04    1.047973e-01
   7738.33    1.041404e-01
   7738.62    1.035166e-01
   7738.91    1.029666e-01
   7739.20    1.025198e-01
   7739.49    1.021940e-01
   7739.78    1.020063e-01
   7740.07    1.019670e-01
   7740.36    1.020807e-01
   7740.64    1.021945e-01
   7740.93    1.023083e-01
   7741.22    1.024789e-01
   7741.51    1.026666e-01
   7741.80    1.028543e-01
   7742.09    1.029701e-01
   7742.38    1.029242e-01
   7742.67    1.028783e-01
   7742.96    1.028324e-01
   7743.24    1.024651e-01
   7743.53    1.020393e-01
   7743.82    1.016136e-01
   7744.11    1.010620e-01
   7744.40    1.003093e-01
   7744.69    9.955656e-02
   7744.98    9.880382e-02
   7745.27    9.789624e-02
   7745.56    9.697576e-02
   7745.84    9.605528e-02
   7746.13    9.512906e-02
   7746.42    9.419614e-02
   7746.71    9.326322e-02
   7747.00    9.233031e-02
   7747.29    9.148969e-02
   7747.58    9.064907e-02
   7747.87    8.980845e-02
   7748.16    8.904593e-02
   7748.44    8.835035e-02
   7748.73    8.765477e-02
   7749.02    8.697070e-02
   7749.31    8.642476e-02
   7749.60    8.587882e-02
   7749.89    8.533289e-02
   7750.18    8.486482e-02
   7750.47    8.444543e-02
   7750.76    8.402604e-02
   7751.04    8.362073e-02
   7751.33    8.329290e-02
   7751.62    8.296507e-02
   7751.91    8.263723e-02
   7752.20    8.234492e-02
   7752.49    8.206838e-02
   7752.78    8.179184e-02
   7753.07    8.151776e-02
   7753.36    8.125184e-02
   7753.64    8.098592e-02
   7753.93    8.072001e-02
   7754.22    8.043483e-02
   7754.51    8.014389e-02
   7754.80    7.985294e-02
   7755.09    7.954664e-02
   7755.38    7.920579e-02
   7755.67    7.886494e-02
   7755.96    7.852409e-02
   7756.24    7.813371e-02
   7756.53    7.773433e-02
   7756.82    7.733495e-02
   7757.11    7.691827e-02
   7757.40    7.647391e-02
   7757.69    7.602956e-02
   7757.98    7.558520e-02
   7758.27    7.513708e-02
   7758.56    7.468864e-02
   7758.84    7.424019e-02
   7759.13    7.382049e-02
   7759.42    7.343432e-02
   7759.71    7.304814e-02
   7760.00    7.266197e-02
