 FDMNES
  energy    <xanes>
   7695.00    5.313682e-04
   7695.29    5.372623e-04
   7695.58    5.431564e-04
   7695.87    5.490505e-04
   7696.16    5.551746e-04
   7696.44    5.614957e-04
   7696.73    5.678168e-04
   7697.02    5.741744e-04
   7697.31    5.809692e-04
   7697.60    5.877640e-04
   7697.89    5.945589e-04
   7698.18    6.016782e-04
   7698.47    6.090004e-04
   7698.76    6.163225e-04
   7699.04    6.237353e-04
   7699.33    6.316467e-04
   7699.62    6.395581e-04
   7699.91    6.474695e-04
   7700.20    6.558385e-04
   7700.49    6.644110e-04
   7700.78    6.729834e-04
   7701.07    6.817277e-04
   7701.36    6.910450e-04
   7701.64    7.003623e-04
   7701.93    7.096795e-04
   7702.22    7.196454e-04
   7702.51    7.298058e-04
   7702.80    7.399662e-04
   7703.09    7.504218e-04
   7703.38    7.615415e-04
   7703.67    7.726612e-04
   7703.96    7.837809e-04
   7704.24    7.958292e-04
   7704.53    8.080463e-04
   7704.82    8.202634e-04
   7705.11    8.329662e-04
   7705.40    8.464462e-04
   7705.69    8.599262e-04
   7705.98    8.734062e-04
   7706.27    8.882366e-04
   7706.56    9.031794e-04
   7706.84    9.181223e-04
   7707.13    9.338529e-04
   7707.42    9.505025e-04
   7707.71    9.671521e-04
   7708.00    9.838018e-04
   7708.29    1.002458e-03
   7708.58    1.021115e-03
   7708.87    1.039772e-03
   7709.16    1.059711e-03
   7709.44    1.080748e-03
   7709.73    1.101786e-03
   7710.02    1.123044e-03
   7710.31    1.146934e-03
   7710.60    1.170825e-03
   7710.89    1.194716e-03
   7711.18    1.220733e-03
   7711.47    1.248080e-03
   7711.76    1.275426e-03
   7712.04    1.303425e-03
   7712.33    1.335011e-03
   7712.62    1.366598e-03
   7712.91    1.398184e-03
   7713.20    1.433423e-03
   7713.49    1.470286e-03
   7713.78    1.507148e-03
   7714.07    1.545552e-03
   7714.36    1.589091e-03
   7714.64    1.632631e-03
   7714.93    1.676170e-03
   7715.22    1.726338e-03
   7715.51    1.778494e-03
   7715.80    1.830650e-03
   7716.09    1.886308e-03
   7716.38    1.949846e-03
   7716.67    2.013384e-03
   7716.96    2.076922e-03
   7717.24    2.153549e-03
   7717.53    2.232556e-03
   7717.82    2.311564e-03
   7718.11    2.398950e-03
   7718.40    2.499744e-03
   7718.69    2.600538e-03
   7718.98    2.701331e-03
   7719.27    2.831783e-03
   7719.56    2.964706e-03
   7719.84    3.097629e-03
   7720.13    3.253835e-03
   7720.42    3.437204e-03
   7720.71    3.620572e-03
   7721.00    3.803941e-03
   7721.29    4.074075e-03
   7721.58    4.344210e-03
   7721.87    4.614345e-03
   7722.16    4.977591e-03
   7722.44    5.420647e-03
   7722.73    5.863703e-03
   7723.02    6.341600e-03
   7723.31    7.237587e-03
   7723.60    8.133574e-03
   7723.89    9.029561e-03
   7724.18    1.095704e-02
   7724.47    1.352921e-02
   7724.76    1.610137e-02
   7725.04    1.890500e-02
   7725.33    2.300463e-02
   7725.62    2.711844e-02
   7725.91    3.136883e-02
   7726.20    3.596431e-02
   7726.49    4.120185e-02
   7726.78    4.704643e-02
   7727.07    5.359225e-02
   7727.36    6.070774e-02
   7727.64    6.840396e-02
   7727.93    7.674452e-02
   7728.22    8.573812e-02
   7728.51    9.530439e-02
   7728.80    1.049884e-01
   7729.09    1.140067e-01
   7729.38    1.216749e-01
   7729.67    1.269159e-01
   7729.96    1.295833e-01
   7730.24    1.297782e-01
   7730.53    1.279848e-01
   7730.82    1.251430e-01
   7731.11    1.218788e-01
   7731.40    1.185600e-01
   7731.69    1.153640e-01
   7731.98    1.123551e-01
   7732.27    1.095551e-01
   7732.56    1.069556e-01
   7732.84    1.045311e-01
   7733.13    1.022767e-01
   7733.42    1.001949e-01
   7733.71    9.829147e-02
   7734.00    9.657227e-02
   7734.29    9.506169e-02
   7734.58    9.373368e-02
   7734.87    9.257851e-02
   7735.16    9.158115e-02
   7735.44    9.072246e-02
   7735.73    8.998106e-02
   7736.02    8.934056e-02
   7736.31    8.877790e-02
   7736.60    8.827480e-02
   7736.89    8.782332e-02
   7737.18    8.742116e-02
   7737.47    8.707077e-02
   7737.76    8.677904e-02
   7738.04    8.655994e-02
   7738.33    8.641488e-02
   7738.62    8.634996e-02
   7738.91    8.636934e-02
   7739.20    8.647497e-02
   7739.49    8.666660e-02
   7739.78    8.694850e-02
   7740.07    8.732737e-02
   7740.36    8.781107e-02
   7740.64    8.829478e-02
   7740.93    8.877848e-02
   7741.22    8.933635e-02
   7741.51    8.991648e-02
   7741.80    9.049660e-02
   7742.09    9.104737e-02
   7742.38    9.153209e-02
   7742.67    9.201680e-02
   7742.96    9.250152e-02
   7743.24    9.275106e-02
   7743.53    9.295783e-02
   7743.82    9.316461e-02
   7744.11    9.323220e-02
   7744.40    9.307709e-02
   7744.69    9.292198e-02
   7744.98    9.276686e-02
   7745.27    9.233113e-02
   7745.56    9.187201e-02
   7745.84    9.141290e-02
   7746.13    9.087895e-02
   7746.42    9.025769e-02
   7746.71    8.963644e-02
   7747.00    8.901518e-02
   7747.29    8.836527e-02
   7747.58    8.771536e-02
   7747.87    8.706544e-02
   7748.16    8.644078e-02
   7748.44    8.583775e-02
   7748.73    8.523473e-02
   7749.02    8.463645e-02
   7749.31    8.409517e-02
   7749.60    8.355388e-02
   7749.89    8.301260e-02
   7750.18    8.249878e-02
   7750.47    8.200211e-02
   7750.76    8.150544e-02
   7751.04    8.101203e-02
   7751.33    8.053655e-02
   7751.62    8.006107e-02
   7751.91    7.958558e-02
   7752.20    7.911305e-02
   7752.49    7.864184e-02
   7752.78    7.817062e-02
   7753.07    7.769901e-02
   7753.36    7.722610e-02
   7753.64    7.675319e-02
   7753.93    7.628028e-02
   7754.22    7.580934e-02
   7754.51    7.533900e-02
   7754.80    7.486866e-02
   7755.09    7.440237e-02
   7755.38    7.394518e-02
   7755.67    7.348800e-02
   7755.96    7.303082e-02
   7756.24    7.259546e-02
   7756.53    7.216406e-02
   7756.82    7.173267e-02
   7757.11    7.131616e-02
   7757.40    7.092348e-02
   7757.69    7.053080e-02
   7757.98    7.013812e-02
   7758.27    6.979506e-02
   7758.56    6.945614e-02
   7758.84    6.911722e-02
   7759.13    6.881186e-02
   7759.42    6.854565e-02
   7759.71    6.827945e-02
   7760.00    6.801324e-02
