 FDMNES
  energy    <xanes>
   7695.00    5.407276e-04
   7695.29    5.462552e-04
   7695.58    5.517827e-04
   7695.87    5.573103e-04
   7696.16    5.630386e-04
   7696.44    5.689389e-04
   7696.73    5.748393e-04
   7697.02    5.807713e-04
   7697.31    5.870828e-04
   7697.60    5.933943e-04
   7697.89    5.997058e-04
   7698.18    6.062972e-04
   7698.47    6.130636e-04
   7698.76    6.198299e-04
   7699.04    6.266739e-04
   7699.33    6.339451e-04
   7699.62    6.412162e-04
   7699.91    6.484874e-04
   7700.20    6.561480e-04
   7700.49    6.639817e-04
   7700.78    6.718154e-04
   7701.07    6.797943e-04
   7701.36    6.882572e-04
   7701.64    6.967201e-04
   7701.93    7.051830e-04
   7702.22    7.141897e-04
   7702.51    7.233594e-04
   7702.80    7.325291e-04
   7703.09    7.419443e-04
   7703.38    7.519118e-04
   7703.67    7.618792e-04
   7703.96    7.718467e-04
   7704.24    7.825797e-04
   7704.53    7.934520e-04
   7704.82    8.043242e-04
   7705.11    8.155934e-04
   7705.40    8.274975e-04
   7705.69    8.394017e-04
   7705.98    8.513059e-04
   7706.27    8.643029e-04
   7706.56    8.773910e-04
   7706.84    8.904791e-04
   7707.13    9.041982e-04
   7707.42    9.186536e-04
   7707.71    9.331090e-04
   7708.00    9.475644e-04
   7708.29    9.636104e-04
   7708.58    9.796565e-04
   7708.87    9.957025e-04
   7709.16    1.012753e-03
   7709.44    1.030664e-03
   7709.73    1.048576e-03
   7710.02    1.066657e-03
   7710.31    1.086776e-03
   7710.60    1.106896e-03
   7710.89    1.127015e-03
   7711.18    1.148758e-03
   7711.47    1.171517e-03
   7711.76    1.194276e-03
   7712.04    1.217525e-03
   7712.33    1.243477e-03
   7712.62    1.269428e-03
   7712.91    1.295380e-03
   7713.20    1.324041e-03
   7713.49    1.353906e-03
   7713.78    1.383771e-03
   7714.07    1.414761e-03
   7714.36    1.449500e-03
   7714.64    1.484239e-03
   7714.93    1.518977e-03
   7715.22    1.558471e-03
   7715.51    1.599390e-03
   7715.80    1.640309e-03
   7716.09    1.683694e-03
   7716.38    1.732628e-03
   7716.67    1.781561e-03
   7716.96    1.830495e-03
   7717.24    1.888464e-03
   7717.53    1.948076e-03
   7717.82    2.007688e-03
   7718.11    2.072966e-03
   7718.40    2.147308e-03
   7718.69    2.221651e-03
   7718.98    2.295993e-03
   7719.27    2.389967e-03
   7719.56    2.485577e-03
   7719.84    2.581187e-03
   7720.13    2.691898e-03
   7720.42    2.820225e-03
   7720.71    2.948553e-03
   7721.00    3.076880e-03
   7721.29    3.260559e-03
   7721.58    3.444238e-03
   7721.87    3.627917e-03
   7722.16    3.870655e-03
   7722.44    4.164016e-03
   7722.73    4.457377e-03
   7723.02    4.773262e-03
   7723.31    5.359439e-03
   7723.60    5.945615e-03
   7723.89    6.531791e-03
   7724.18    7.803833e-03
   7724.47    9.504541e-03
   7724.76    1.120525e-02
   7725.04    1.304405e-02
   7725.33    1.559354e-02
   7725.62    1.793697e-02
   7725.91    2.011131e-02
   7726.20    2.229428e-02
   7726.49    2.462257e-02
   7726.78    2.712982e-02
   7727.07    2.990052e-02
   7727.36    3.297098e-02
   7727.64    3.644699e-02
   7727.93    4.042233e-02
   7728.22    4.495148e-02
   7728.51    5.015892e-02
   7728.80    5.596683e-02
   7729.09    6.247759e-02
   7729.38    6.944675e-02
   7729.67    7.669390e-02
   7729.96    8.384492e-02
   7730.24    9.047204e-02
   7730.53    9.601167e-02
   7730.82    1.001403e-01
   7731.11    1.026860e-01
   7731.40    1.036600e-01
   7731.69    1.032604e-01
   7731.98    1.018150e-01
   7732.27    9.969183e-02
   7732.56    9.729713e-02
   7732.84    9.495214e-02
   7733.13    9.285544e-02
   7733.42    9.112546e-02
   7733.71    8.981446e-02
   7734.00    8.893050e-02
   7734.29    8.850135e-02
   7734.58    8.844257e-02
   7734.87    8.871334e-02
   7735.16    8.926838e-02
   7735.44    9.005923e-02
   7735.73    9.103515e-02
   7736.02    9.214906e-02
   7736.31    9.333809e-02
   7736.60    9.454443e-02
   7736.89    9.571982e-02
   7737.18    9.682112e-02
   7737.47    9.781233e-02
   7737.76    9.866366e-02
   7738.04    9.934424e-02
   7738.33    9.986508e-02
   7738.62    1.002327e-01
   7738.91    1.004623e-01
   7739.20    1.005752e-01
   7739.49    1.005971e-01
   7739.78    1.005519e-01
   7740.07    1.004795e-01
   7740.36    1.004197e-01
   7740.64    1.003599e-01
   7740.93    1.003001e-01
   7741.22    1.003827e-01
   7741.51    1.005079e-01
   7741.80    1.006331e-01
   7742.09    1.008304e-01
   7742.38    1.011898e-01
   7742.67    1.015492e-01
   7742.96    1.019085e-01
   7743.24    1.023687e-01
   7743.53    1.028471e-01
   7743.82    1.033256e-01
   7744.11    1.037696e-01
   7744.40    1.041587e-01
   7744.69    1.045478e-01
   7744.98    1.049369e-01
   7745.27    1.050584e-01
   7745.56    1.051576e-01
   7745.84    1.052567e-01
   7746.13    1.051793e-01
   7746.42    1.048960e-01
   7746.71    1.046126e-01
   7747.00    1.043292e-01
   7747.29    1.037147e-01
   7747.58    1.031001e-01
   7747.87    1.024856e-01
   7748.16    1.017694e-01
   7748.44    1.009659e-01
   7748.73    1.001625e-01
   7749.02    9.935564e-02
   7749.31    9.850777e-02
   7749.60    9.765989e-02
   7749.89    9.681201e-02
   7750.18    9.599431e-02
   7750.47    9.519548e-02
   7750.76    9.439664e-02
   7751.04    9.361161e-02
   7751.33    9.290253e-02
   7751.62    9.219345e-02
   7751.91    9.148438e-02
   7752.20    9.084154e-02
   7752.49    9.022815e-02
   7752.78    8.961475e-02
   7753.07    8.901952e-02
   7753.36    8.848481e-02
   7753.64    8.795011e-02
   7753.93    8.741540e-02
   7754.22    8.692214e-02
   7754.51    8.644132e-02
   7754.80    8.596049e-02
   7755.09    8.548910e-02
   7755.38    8.503896e-02
   7755.67    8.458881e-02
   7755.96    8.413867e-02
   7756.24    8.370053e-02
   7756.53    8.326457e-02
   7756.82    8.282862e-02
   7757.11    8.239671e-02
   7757.40    8.197127e-02
   7757.69    8.154583e-02
   7757.98    8.112038e-02
   7758.27    8.072012e-02
   7758.56    8.032196e-02
   7758.84    7.992379e-02
   7759.13    7.955644e-02
   7759.42    7.922503e-02
   7759.71    7.889363e-02
   7760.00    7.856222e-02
