 FDMNES
  energy    <xanes>
   7695.00    5.129565e-04
   7695.29    5.186922e-04
   7695.58    5.244279e-04
   7695.87    5.301636e-04
   7696.16    5.361222e-04
   7696.44    5.422720e-04
   7696.73    5.484219e-04
   7697.02    5.546070e-04
   7697.31    5.612158e-04
   7697.60    5.678246e-04
   7697.89    5.744334e-04
   7698.18    5.813564e-04
   7698.47    5.884757e-04
   7698.76    5.955951e-04
   7699.04    6.028021e-04
   7699.33    6.104912e-04
   7699.62    6.181804e-04
   7699.91    6.258696e-04
   7700.20    6.340008e-04
   7700.49    6.423285e-04
   7700.78    6.506563e-04
   7701.07    6.591499e-04
   7701.36    6.681962e-04
   7701.64    6.772426e-04
   7701.93    6.862889e-04
   7702.22    6.959602e-04
   7702.51    7.058190e-04
   7702.80    7.156777e-04
   7703.09    7.258205e-04
   7703.38    7.366021e-04
   7703.67    7.473838e-04
   7703.96    7.581655e-04
   7704.24    7.698391e-04
   7704.53    7.816749e-04
   7704.82    7.935106e-04
   7705.11    8.058122e-04
   7705.40    8.188589e-04
   7705.69    8.319056e-04
   7705.98    8.449523e-04
   7706.27    8.592913e-04
   7706.56    8.737380e-04
   7706.84    8.881847e-04
   7707.13    9.033837e-04
   7707.42    9.194604e-04
   7707.71    9.355371e-04
   7708.00    9.516137e-04
   7708.29    9.696028e-04
   7708.58    9.875918e-04
   7708.87    1.005581e-03
   7709.16    1.024788e-03
   7709.44    1.045041e-03
   7709.73    1.065293e-03
   7710.02    1.085753e-03
   7710.31    1.108709e-03
   7710.60    1.131665e-03
   7710.89    1.154621e-03
   7711.18    1.179587e-03
   7711.47    1.205808e-03
   7711.76    1.232030e-03
   7712.04    1.258866e-03
   7712.33    1.289081e-03
   7712.62    1.319296e-03
   7712.91    1.349511e-03
   7713.20    1.383155e-03
   7713.49    1.418321e-03
   7713.78    1.453488e-03
   7714.07    1.490095e-03
   7714.36    1.531504e-03
   7714.64    1.572912e-03
   7714.93    1.614320e-03
   7715.22    1.661898e-03
   7715.51    1.711326e-03
   7715.80    1.760755e-03
   7716.09    1.813428e-03
   7716.38    1.873402e-03
   7716.67    1.933375e-03
   7716.96    1.993349e-03
   7717.24    2.065388e-03
   7717.53    2.139620e-03
   7717.82    2.213853e-03
   7718.11    2.295767e-03
   7718.40    2.389970e-03
   7718.69    2.484174e-03
   7718.98    2.578378e-03
   7719.27    2.699608e-03
   7719.56    2.823091e-03
   7719.84    2.946573e-03
   7720.13    3.091138e-03
   7720.42    3.260298e-03
   7720.71    3.429459e-03
   7721.00    3.598620e-03
   7721.29    3.845822e-03
   7721.58    4.093025e-03
   7721.87    4.340228e-03
   7722.16    4.670606e-03
   7722.44    5.072278e-03
   7722.73    5.473949e-03
   7723.02    5.906538e-03
   7723.31    6.710143e-03
   7723.60    7.513748e-03
   7723.89    8.317353e-03
   7724.18    1.003140e-02
   7724.47    1.231448e-02
   7724.76    1.459755e-02
   7725.04    1.708389e-02
   7725.33    2.070785e-02
   7725.62    2.434611e-02
   7725.91    2.811238e-02
   7726.20    3.219064e-02
   7726.49    3.685785e-02
   7726.78    4.211795e-02
   7727.07    4.814484e-02
   7727.36    5.485092e-02
   7727.64    6.215581e-02
   7727.93    6.986457e-02
   7728.22    7.773002e-02
   7728.51    8.548623e-02
   7728.80    9.285694e-02
   7729.09    9.930741e-02
   7729.38    1.046626e-01
   7729.67    1.084687e-01
   7729.96    1.108438e-01
   7730.24    1.119435e-01
   7730.53    1.120569e-01
   7730.82    1.116592e-01
   7731.11    1.110497e-01
   7731.40    1.103843e-01
   7731.69    1.097140e-01
   7731.98    1.090338e-01
   7732.27    1.083206e-01
   7732.56    1.075683e-01
   7732.84    1.068045e-01
   7733.13    1.060729e-01
   7733.42    1.054202e-01
   7733.71    1.048830e-01
   7734.00    1.044783e-01
   7734.29    1.042130e-01
   7734.58    1.040394e-01
   7734.87    1.039110e-01
   7735.16    1.037738e-01
   7735.44    1.035738e-01
   7735.73    1.032645e-01
   7736.02    1.028022e-01
   7736.31    1.021749e-01
   7736.60    1.013981e-01
   7736.89    1.004957e-01
   7737.18    9.950298e-02
   7737.47    9.846154e-02
   7737.76    9.741532e-02
   7738.04    9.641272e-02
   7738.33    9.548706e-02
   7738.62    9.466473e-02
   7738.91    9.396465e-02
   7739.20    9.339860e-02
   7739.49    9.297197e-02
   7739.78    9.269592e-02
   7740.07    9.258928e-02
   7740.36    9.267568e-02
   7740.64    9.276207e-02
   7740.93    9.284847e-02
   7741.22    9.312931e-02
   7741.51    9.346848e-02
   7741.80    9.380765e-02
   7742.09    9.414772e-02
   7742.38    9.448980e-02
   7742.67    9.483189e-02
   7742.96    9.517398e-02
   7743.24    9.530184e-02
   7743.53    9.539076e-02
   7743.82    9.547968e-02
   7744.11    9.541335e-02
   7744.40    9.509863e-02
   7744.69    9.478391e-02
   7744.98    9.446920e-02
   7745.27    9.381698e-02
   7745.56    9.313664e-02
   7745.84    9.245630e-02
   7746.13    9.169179e-02
   7746.42    9.082908e-02
   7746.71    8.996637e-02
   7747.00    8.910366e-02
   7747.29    8.825030e-02
   7747.58    8.739694e-02
   7747.87    8.654358e-02
   7748.16    8.574816e-02
   7748.44    8.500240e-02
   7748.73    8.425665e-02
   7749.02    8.352029e-02
   7749.31    8.289666e-02
   7749.60    8.227303e-02
   7749.89    8.164940e-02
   7750.18    8.108367e-02
   7750.47    8.055413e-02
   7750.76    8.002459e-02
   7751.04    7.950285e-02
   7751.33    7.902407e-02
   7751.62    7.854528e-02
   7751.91    7.806650e-02
   7752.20    7.759316e-02
   7752.49    7.712223e-02
   7752.78    7.665131e-02
   7753.07    7.617467e-02
   7753.36    7.567898e-02
   7753.64    7.518330e-02
   7753.93    7.468761e-02
   7754.22    7.416068e-02
   7754.51    7.362437e-02
   7754.80    7.308806e-02
   7755.09    7.254056e-02
   7755.38    7.196788e-02
   7755.67    7.139520e-02
   7755.96    7.082252e-02
   7756.24    7.023896e-02
   7756.53    6.965342e-02
   7756.82    6.906787e-02
   7757.11    6.849185e-02
   7757.40    6.793107e-02
   7757.69    6.737028e-02
   7757.98    6.680950e-02
   7758.27    6.631206e-02
   7758.56    6.581989e-02
   7758.84    6.532773e-02
   7759.13    6.488541e-02
   7759.42    6.450124e-02
   7759.71    6.411708e-02
   7760.00    6.373291e-02
