 FDMNES
  energy    <xanes>
   7695.00    5.397567e-04
   7695.29    5.451919e-04
   7695.58    5.506272e-04
   7695.87    5.560624e-04
   7696.16    5.616957e-04
   7696.44    5.674987e-04
   7696.73    5.733017e-04
   7697.02    5.791360e-04
   7697.31    5.853451e-04
   7697.60    5.915542e-04
   7697.89    5.977633e-04
   7698.18    6.042493e-04
   7698.47    6.109083e-04
   7698.76    6.175674e-04
   7699.04    6.243034e-04
   7699.33    6.314628e-04
   7699.62    6.386222e-04
   7699.91    6.457816e-04
   7700.20    6.533276e-04
   7700.49    6.610456e-04
   7700.78    6.687635e-04
   7701.07    6.766260e-04
   7701.36    6.849701e-04
   7701.64    6.933142e-04
   7701.93    7.016584e-04
   7702.22    7.105449e-04
   7702.51    7.195942e-04
   7702.80    7.286435e-04
   7703.09    7.379384e-04
   7703.38    7.477857e-04
   7703.67    7.576331e-04
   7703.96    7.674805e-04
   7704.24    7.780962e-04
   7704.53    7.888516e-04
   7704.82    7.996070e-04
   7705.11    8.107621e-04
   7705.40    8.225567e-04
   7705.69    8.343514e-04
   7705.98    8.461460e-04
   7706.27    8.590457e-04
   7706.56    8.720374e-04
   7706.84    8.850292e-04
   7707.13    8.986619e-04
   7707.42    9.130423e-04
   7707.71    9.274228e-04
   7708.00    9.418033e-04
   7708.29    9.578075e-04
   7708.58    9.738117e-04
   7708.87    9.898159e-04
   7709.16    1.006851e-03
   7709.44    1.024771e-03
   7709.73    1.042690e-03
   7710.02    1.060785e-03
   7710.31    1.080986e-03
   7710.60    1.101187e-03
   7710.89    1.121388e-03
   7711.18    1.143280e-03
   7711.47    1.166229e-03
   7711.76    1.189178e-03
   7712.04    1.212642e-03
   7712.33    1.238944e-03
   7712.62    1.265245e-03
   7712.91    1.291546e-03
   7713.20    1.320720e-03
   7713.49    1.351171e-03
   7713.78    1.381623e-03
   7714.07    1.413280e-03
   7714.36    1.448956e-03
   7714.64    1.484633e-03
   7714.93    1.520309e-03
   7715.22    1.561150e-03
   7715.51    1.603541e-03
   7715.80    1.645931e-03
   7716.09    1.691041e-03
   7716.38    1.742269e-03
   7716.67    1.793498e-03
   7716.96    1.844727e-03
   7717.24    1.906098e-03
   7717.53    1.969314e-03
   7717.82    2.032529e-03
   7718.11    2.102238e-03
   7718.40    2.182336e-03
   7718.69    2.262433e-03
   7718.98    2.342531e-03
   7719.27    2.445686e-03
   7719.56    2.550762e-03
   7719.84    2.655839e-03
   7720.13    2.779171e-03
   7720.42    2.923803e-03
   7720.71    3.068434e-03
   7721.00    3.213065e-03
   7721.29    3.426923e-03
   7721.58    3.640781e-03
   7721.87    3.854639e-03
   7722.16    4.145261e-03
   7722.44    4.501680e-03
   7722.73    4.858100e-03
   7723.02    5.244973e-03
   7723.31    5.997294e-03
   7723.60    6.749616e-03
   7723.89    7.501937e-03
   7724.18    9.206788e-03
   7724.47    1.150697e-02
   7724.76    1.380715e-02
   7725.04    1.630028e-02
   7725.33    1.978483e-02
   7725.62    2.297066e-02
   7725.91    2.589103e-02
   7726.20    2.879388e-02
   7726.49    3.190022e-02
   7726.78    3.531912e-02
   7727.07    3.925725e-02
   7727.36    4.378704e-02
   7727.64    4.903159e-02
   7727.93    5.498620e-02
   7728.22    6.145469e-02
   7728.51    6.809865e-02
   7728.80    7.441702e-02
   7729.09    7.973897e-02
   7729.38    8.396902e-02
   7729.67    8.691757e-02
   7729.96    8.887378e-02
   7730.24    8.999168e-02
   7730.53    9.029495e-02
   7730.82    8.983958e-02
   7731.11    8.865389e-02
   7731.40    8.684316e-02
   7731.69    8.460323e-02
   7731.98    8.217562e-02
   7732.27    7.980299e-02
   7732.56    7.768562e-02
   7732.84    7.591507e-02
   7733.13    7.453458e-02
   7733.42    7.354999e-02
   7733.71    7.294497e-02
   7734.00    7.269265e-02
   7734.29    7.279776e-02
   7734.58    7.319009e-02
   7734.87    7.384204e-02
   7735.16    7.472658e-02
   7735.44    7.581588e-02
   7735.73    7.707986e-02
   7736.02    7.849209e-02
   7736.31    8.000641e-02
   7736.60    8.157263e-02
   7736.89    8.314359e-02
   7737.18    8.467105e-02
   7737.47    8.611036e-02
   7737.76    8.742218e-02
   7738.04    8.856548e-02
   7738.33    8.954191e-02
   7738.62    9.035080e-02
   7738.91    9.100132e-02
   7739.20    9.151063e-02
   7739.49    9.190131e-02
   7739.78    9.219303e-02
   7740.07    9.241507e-02
   7740.36    9.259253e-02
   7740.64    9.277000e-02
   7740.93    9.294746e-02
   7741.22    9.315908e-02
   7741.51    9.338095e-02
   7741.80    9.360282e-02
   7742.09    9.385089e-02
   7742.38    9.415793e-02
   7742.67    9.446498e-02
   7742.96    9.477202e-02
   7743.24    9.509093e-02
   7743.53    9.541201e-02
   7743.82    9.573308e-02
   7744.11    9.601552e-02
   7744.40    9.623614e-02
   7744.69    9.645676e-02
   7744.98    9.667738e-02
   7745.27    9.671167e-02
   7745.56    9.673042e-02
   7745.84    9.674917e-02
   7746.13    9.665692e-02
   7746.42    9.643514e-02
   7746.71    9.621337e-02
   7747.00    9.599160e-02
   7747.29    9.557525e-02
   7747.58    9.515890e-02
   7747.87    9.474255e-02
   7748.16    9.427544e-02
   7748.44    9.376482e-02
   7748.73    9.325420e-02
   7749.02    9.274377e-02
   7749.31    9.223551e-02
   7749.60    9.172725e-02
   7749.89    9.121900e-02
   7750.18    9.074729e-02
   7750.47    9.029844e-02
   7750.76    8.984958e-02
   7751.04    8.941252e-02
   7751.33    8.904032e-02
   7751.62    8.866812e-02
   7751.91    8.829591e-02
   7752.20    8.797158e-02
   7752.49    8.766852e-02
   7752.78    8.736546e-02
   7753.07    8.707411e-02
   7753.36    8.682177e-02
   7753.64    8.656944e-02
   7753.93    8.631711e-02
   7754.22    8.608797e-02
   7754.51    8.586579e-02
   7754.80    8.564361e-02
   7755.09    8.542510e-02
   7755.38    8.521484e-02
   7755.67    8.500458e-02
   7755.96    8.479432e-02
   7756.24    8.458261e-02
   7756.53    8.437064e-02
   7756.82    8.415866e-02
   7757.11    8.394373e-02
   7757.40    8.372408e-02
   7757.69    8.350443e-02
   7757.98    8.328477e-02
   7758.27    8.306573e-02
   7758.56    8.284674e-02
   7758.84    8.262775e-02
   7759.13    8.242204e-02
   7759.42    8.223181e-02
   7759.71    8.204158e-02
   7760.00    8.185135e-02
