 FDMNES
  energy    <xanes>
   7695.00    5.453272e-04
   7695.29    5.512809e-04
   7695.58    5.572345e-04
   7695.87    5.631881e-04
   7696.16    5.693720e-04
   7696.44    5.757532e-04
   7696.73    5.821344e-04
   7697.02    5.885520e-04
   7697.31    5.954072e-04
   7697.60    6.022625e-04
   7697.89    6.091177e-04
   7698.18    6.162974e-04
   7698.47    6.236800e-04
   7698.76    6.310626e-04
   7699.04    6.385358e-04
   7699.33    6.465072e-04
   7699.62    6.544787e-04
   7699.91    6.624502e-04
   7700.20    6.708787e-04
   7700.49    6.795103e-04
   7700.78    6.881420e-04
   7701.07    6.969452e-04
   7701.36    7.063201e-04
   7701.64    7.156951e-04
   7701.93    7.250700e-04
   7702.22    7.350917e-04
   7702.51    7.453075e-04
   7702.80    7.555232e-04
   7703.09    7.660329e-04
   7703.38    7.772044e-04
   7703.67    7.883758e-04
   7703.96    7.995472e-04
   7704.24    8.116429e-04
   7704.53    8.239066e-04
   7704.82    8.361703e-04
   7705.11    8.489170e-04
   7705.40    8.624364e-04
   7705.69    8.759558e-04
   7705.98    8.894752e-04
   7706.27    9.043358e-04
   7706.56    9.193081e-04
   7706.84    9.342804e-04
   7707.13    9.500341e-04
   7707.42    9.666993e-04
   7707.71    9.833646e-04
   7708.00    1.000030e-03
   7708.29    1.018683e-03
   7708.58    1.037337e-03
   7708.87    1.055990e-03
   7709.16    1.075911e-03
   7709.44    1.096919e-03
   7709.73    1.117928e-03
   7710.02    1.139152e-03
   7710.31    1.162977e-03
   7710.60    1.186801e-03
   7710.89    1.210626e-03
   7711.18    1.236545e-03
   7711.47    1.263775e-03
   7711.76    1.291004e-03
   7712.04    1.318874e-03
   7712.33    1.350270e-03
   7712.62    1.381666e-03
   7712.91    1.413062e-03
   7713.20    1.448038e-03
   7713.49    1.484606e-03
   7713.78    1.521174e-03
   7714.07    1.559247e-03
   7714.36    1.602337e-03
   7714.64    1.645428e-03
   7714.93    1.688519e-03
   7715.22    1.738061e-03
   7715.51    1.789538e-03
   7715.80    1.841015e-03
   7716.09    1.895885e-03
   7716.38    1.958389e-03
   7716.67    2.020893e-03
   7716.96    2.083397e-03
   7717.24    2.158512e-03
   7717.53    2.235921e-03
   7717.82    2.313329e-03
   7718.11    2.398757e-03
   7718.40    2.497014e-03
   7718.69    2.595271e-03
   7718.98    2.693528e-03
   7719.27    2.819930e-03
   7719.56    2.948678e-03
   7719.84    3.077425e-03
   7720.13    3.228037e-03
   7720.42    3.404157e-03
   7720.71    3.580277e-03
   7721.00    3.756397e-03
   7721.29    4.012937e-03
   7721.58    4.269477e-03
   7721.87    4.526017e-03
   7722.16    4.867491e-03
   7722.44    5.281763e-03
   7722.73    5.696036e-03
   7723.02    6.141540e-03
   7723.31    6.961817e-03
   7723.60    7.782094e-03
   7723.89    8.602371e-03
   7724.18    1.033711e-02
   7724.47    1.264339e-02
   7724.76    1.494967e-02
   7725.04    1.746008e-02
   7725.33    2.110143e-02
   7725.62    2.468905e-02
   7725.91    2.826596e-02
   7726.20    3.203276e-02
   7726.49    3.631743e-02
   7726.78    4.124822e-02
   7727.07    4.716846e-02
   7727.36    5.411563e-02
   7727.64    6.214708e-02
   7727.93    7.111170e-02
   7728.22    8.072779e-02
   7728.51    9.078021e-02
   7728.80    1.009279e-01
   7729.09    1.107715e-01
   7729.38    1.199878e-01
   7729.67    1.279920e-01
   7729.96    1.344343e-01
   7730.24    1.388038e-01
   7730.53    1.405189e-01
   7730.82    1.397417e-01
   7731.11    1.368842e-01
   7731.40    1.325493e-01
   7731.69    1.273876e-01
   7731.98    1.219584e-01
   7732.27    1.166994e-01
   7732.56    1.119148e-01
   7732.84    1.077158e-01
   7733.13    1.041440e-01
   7733.42    1.011860e-01
   7733.71    9.879612e-02
   7734.00    9.691259e-02
   7734.29    9.551059e-02
   7734.58    9.446231e-02
   7734.87    9.370021e-02
   7735.16    9.315881e-02
   7735.44    9.277451e-02
   7735.73    9.248568e-02
   7736.02    9.223276e-02
   7736.31    9.195637e-02
   7736.60    9.161556e-02
   7736.89    9.118477e-02
   7737.18    9.065429e-02
   7737.47    9.003005e-02
   7737.76    8.933073e-02
   7738.04    8.858610e-02
   7738.33    8.783816e-02
   7738.62    8.712154e-02
   7738.91    8.646739e-02
   7739.20    8.590132e-02
   7739.49    8.544226e-02
   7739.78    8.511264e-02
   7740.07    8.494543e-02
   7740.36    8.497651e-02
   7740.64    8.500758e-02
   7740.93    8.503866e-02
   7741.22    8.530815e-02
   7741.51    8.564917e-02
   7741.80    8.599019e-02
   7742.09    8.636279e-02
   7742.38    8.680646e-02
   7742.67    8.725013e-02
   7742.96    8.769380e-02
   7743.24    8.803754e-02
   7743.53    8.836311e-02
   7743.82    8.868869e-02
   7744.11    8.891395e-02
   7744.40    8.897873e-02
   7744.69    8.904350e-02
   7744.98    8.910827e-02
   7745.27    8.891107e-02
   7745.56    8.869204e-02
   7745.84    8.847301e-02
   7746.13    8.815733e-02
   7746.42    8.772888e-02
   7746.71    8.730044e-02
   7747.00    8.687200e-02
   7747.29    8.634762e-02
   7747.58    8.582325e-02
   7747.87    8.529888e-02
   7748.16    8.477635e-02
   7748.44    8.425539e-02
   7748.73    8.373444e-02
   7749.02    8.321814e-02
   7749.31    8.275767e-02
   7749.60    8.229720e-02
   7749.89    8.183674e-02
   7750.18    8.142119e-02
   7750.47    8.103373e-02
   7750.76    8.064627e-02
   7751.04    8.026735e-02
   7751.33    7.993544e-02
   7751.62    7.960353e-02
   7751.91    7.927162e-02
   7752.20    7.895862e-02
   7752.49    7.865402e-02
   7752.78    7.834942e-02
   7753.07    7.804561e-02
   7753.36    7.774442e-02
   7753.64    7.744324e-02
   7753.93    7.714205e-02
   7754.22    7.683512e-02
   7754.51    7.652647e-02
   7754.80    7.621782e-02
   7755.09    7.590852e-02
   7755.38    7.559779e-02
   7755.67    7.528705e-02
   7755.96    7.497631e-02
   7756.24    7.467929e-02
   7756.53    7.438476e-02
   7756.82    7.409024e-02
   7757.11    7.381058e-02
   7757.40    7.355472e-02
   7757.69    7.329886e-02
   7757.98    7.304300e-02
   7758.27    7.283770e-02
   7758.56    7.263661e-02
   7758.84    7.243552e-02
   7759.13    7.226103e-02
   7759.42    7.211757e-02
   7759.71    7.197411e-02
   7760.00    7.183065e-02
