 FDMNES
  energy    <xanes>
   7695.00    5.554974e-04
   7695.29    5.611946e-04
   7695.58    5.668918e-04
   7695.87    5.725889e-04
   7696.16    5.784964e-04
   7696.44    5.845842e-04
   7696.73    5.906720e-04
   7697.02    5.967930e-04
   7697.31    6.033125e-04
   7697.60    6.098319e-04
   7697.89    6.163514e-04
   7698.18    6.231654e-04
   7698.47    6.301636e-04
   7698.76    6.371617e-04
   7699.04    6.442418e-04
   7699.33    6.517726e-04
   7699.62    6.593035e-04
   7699.91    6.668343e-04
   7700.20    6.747772e-04
   7700.49    6.829032e-04
   7700.78    6.910292e-04
   7701.07    6.993093e-04
   7701.36    7.081031e-04
   7701.64    7.168968e-04
   7701.93    7.256905e-04
   7702.22    7.350631e-04
   7702.51    7.446094e-04
   7702.80    7.541556e-04
   7703.09    7.639641e-04
   7703.38    7.743626e-04
   7703.67    7.847612e-04
   7703.96    7.951597e-04
   7704.24    8.063793e-04
   7704.53    8.177482e-04
   7704.82    8.291170e-04
   7705.11    8.409133e-04
   7705.40    8.533934e-04
   7705.69    8.658736e-04
   7705.98    8.783537e-04
   7706.27    8.920160e-04
   7706.56    9.057768e-04
   7706.84    9.195376e-04
   7707.13    9.339845e-04
   7707.42    9.492316e-04
   7707.71    9.644788e-04
   7708.00    9.797260e-04
   7708.29    9.967115e-04
   7708.58    1.013697e-03
   7708.87    1.030683e-03
   7709.16    1.048772e-03
   7709.44    1.067809e-03
   7709.73    1.086845e-03
   7710.02    1.106069e-03
   7710.31    1.127548e-03
   7710.60    1.149027e-03
   7710.89    1.170506e-03
   7711.18    1.193794e-03
   7711.47    1.218214e-03
   7711.76    1.242633e-03
   7712.04    1.267605e-03
   7712.33    1.295609e-03
   7712.62    1.323613e-03
   7712.91    1.351618e-03
   7713.20    1.382691e-03
   7713.49    1.415127e-03
   7713.78    1.447563e-03
   7714.07    1.481285e-03
   7714.36    1.519291e-03
   7714.64    1.557297e-03
   7714.93    1.595303e-03
   7715.22    1.638799e-03
   7715.51    1.683942e-03
   7715.80    1.729084e-03
   7716.09    1.777106e-03
   7716.38    1.831605e-03
   7716.67    1.886105e-03
   7716.96    1.940604e-03
   7717.24    2.005782e-03
   7717.53    2.072902e-03
   7717.82    2.140021e-03
   7718.11    2.213924e-03
   7718.40    2.298678e-03
   7718.69    2.383432e-03
   7718.98    2.468187e-03
   7719.27    2.576760e-03
   7719.56    2.687318e-03
   7719.84    2.797876e-03
   7720.13    2.926991e-03
   7720.42    3.077757e-03
   7720.71    3.228523e-03
   7721.00    3.379289e-03
   7721.29    3.598753e-03
   7721.58    3.818216e-03
   7721.87    4.037680e-03
   7722.16    4.330536e-03
   7722.44    4.686300e-03
   7722.73    5.042064e-03
   7723.02    5.425292e-03
   7723.31    6.138088e-03
   7723.60    6.850884e-03
   7723.89    7.563680e-03
   7724.18    9.093856e-03
   7724.47    1.113490e-02
   7724.76    1.317593e-02
   7725.04    1.540015e-02
   7725.33    1.864250e-02
   7725.62    2.185611e-02
   7725.91    2.509500e-02
   7726.20    2.851682e-02
   7726.49    3.234406e-02
   7726.78    3.661364e-02
   7727.07    4.149906e-02
   7727.36    4.698535e-02
   7727.64    5.307541e-02
   7727.93    5.962491e-02
   7728.22    6.634901e-02
   7728.51    7.290247e-02
   7728.80    7.902533e-02
   7729.09    8.441159e-02
   7729.38    8.918864e-02
   7729.67    9.337452e-02
   7729.96    9.715190e-02
   7730.24    1.005407e-01
   7730.53    1.033563e-01
   7730.82    1.053958e-01
   7731.11    1.064878e-01
   7731.40    1.065795e-01
   7731.69    1.057593e-01
   7731.98    1.042229e-01
   7732.27    1.021954e-01
   7732.56    9.991395e-02
   7732.84    9.755763e-02
   7733.13    9.523146e-02
   7733.42    9.301251e-02
   7733.71    9.095998e-02
   7734.00    8.911860e-02
   7734.29    8.754971e-02
   7734.58    8.624000e-02
   7734.87    8.518929e-02
   7735.16    8.438610e-02
   7735.44    8.380960e-02
   7735.73    8.343166e-02
   7736.02    8.322764e-02
   7736.31    8.315320e-02
   7736.60    8.316414e-02
   7736.89    8.322716e-02
   7737.18    8.331405e-02
   7737.47    8.340377e-02
   7737.76    8.348383e-02
   7738.04    8.355101e-02
   7738.33    8.361452e-02
   7738.62    8.368881e-02
   7738.91    8.379218e-02
   7739.20    8.394409e-02
   7739.49    8.416273e-02
   7739.78    8.447097e-02
   7740.07    8.490479e-02
   7740.36    8.550189e-02
   7740.64    8.609899e-02
   7740.93    8.669609e-02
   7741.22    8.751761e-02
   7741.51    8.840645e-02
   7741.80    8.929529e-02
   7742.09    9.023008e-02
   7742.38    9.126824e-02
   7742.67    9.230641e-02
   7742.96    9.334457e-02
   7743.24    9.433422e-02
   7743.53    9.531504e-02
   7743.82    9.629587e-02
   7744.11    9.716865e-02
   7744.40    9.786858e-02
   7744.69    9.856852e-02
   7744.98    9.926845e-02
   7745.27    9.956730e-02
   7745.56    9.983274e-02
   7745.84    1.000982e-01
   7746.13    1.001603e-01
   7746.42    9.998524e-02
   7746.71    9.981018e-02
   7747.00    9.963512e-02
   7747.29    9.915297e-02
   7747.58    9.867081e-02
   7747.87    9.818866e-02
   7748.16    9.763826e-02
   7748.44    9.702936e-02
   7748.73    9.642046e-02
   7749.02    9.581233e-02
   7749.31    9.521346e-02
   7749.60    9.461459e-02
   7749.89    9.401572e-02
   7750.18    9.346336e-02
   7750.47    9.294007e-02
   7750.76    9.241677e-02
   7751.04    9.190695e-02
   7751.33    9.147118e-02
   7751.62    9.103542e-02
   7751.91    9.059965e-02
   7752.20    9.021298e-02
   7752.49    8.984812e-02
   7752.78    8.948326e-02
   7753.07    8.912849e-02
   7753.36    8.880732e-02
   7753.64    8.848615e-02
   7753.93    8.816498e-02
   7754.22    8.785734e-02
   7754.51    8.755377e-02
   7754.80    8.725019e-02
   7755.09    8.694643e-02
   7755.38    8.664222e-02
   7755.67    8.633802e-02
   7755.96    8.603382e-02
   7756.24    8.572279e-02
   7756.53    8.541052e-02
   7756.82    8.509824e-02
   7757.11    8.478581e-02
   7757.40    8.447313e-02
   7757.69    8.416045e-02
   7757.98    8.384776e-02
   7758.27    8.355669e-02
   7758.56    8.326741e-02
   7758.84    8.297813e-02
   7759.13    8.271379e-02
   7759.42    8.247856e-02
   7759.71    8.224333e-02
   7760.00    8.200810e-02
