 FDMNES
  energy    <xanes>
   7695.00    5.245670e-04
   7695.29    5.302613e-04
   7695.58    5.359555e-04
   7695.87    5.416498e-04
   7696.16    5.475614e-04
   7696.44    5.536594e-04
   7696.73    5.597574e-04
   7697.02    5.658898e-04
   7697.31    5.724348e-04
   7697.60    5.789799e-04
   7697.89    5.855249e-04
   7698.18    5.923755e-04
   7698.47    5.994171e-04
   7698.76    6.064588e-04
   7699.04    6.135856e-04
   7699.33    6.211810e-04
   7699.62    6.287764e-04
   7699.91    6.363717e-04
   7700.20    6.443963e-04
   7700.49    6.526115e-04
   7700.78    6.608268e-04
   7701.07    6.692029e-04
   7701.36    6.781150e-04
   7701.64    6.870271e-04
   7701.93    6.959392e-04
   7702.22    7.054566e-04
   7702.51    7.151556e-04
   7702.80    7.248547e-04
   7703.09    7.348285e-04
   7703.38    7.454206e-04
   7703.67    7.560127e-04
   7703.96    7.666048e-04
   7704.24    7.780592e-04
   7704.53    7.896703e-04
   7704.82    8.012814e-04
   7705.11    8.133423e-04
   7705.40    8.261229e-04
   7705.69    8.389035e-04
   7705.98    8.516841e-04
   7706.27    8.657117e-04
   7706.56    8.798432e-04
   7706.84    8.939747e-04
   7707.13    9.088315e-04
   7707.42    9.245345e-04
   7707.71    9.402375e-04
   7708.00    9.559406e-04
   7708.29    9.734861e-04
   7708.58    9.910317e-04
   7708.87    1.008577e-03
   7709.16    1.027296e-03
   7709.44    1.047021e-03
   7709.73    1.066746e-03
   7710.02    1.086671e-03
   7710.31    1.108999e-03
   7710.60    1.131327e-03
   7710.89    1.153655e-03
   7711.18    1.177918e-03
   7711.47    1.203390e-03
   7711.76    1.228861e-03
   7712.04    1.254925e-03
   7712.33    1.284242e-03
   7712.62    1.313559e-03
   7712.91    1.342876e-03
   7713.20    1.375497e-03
   7713.49    1.409586e-03
   7713.78    1.443676e-03
   7714.07    1.479156e-03
   7714.36    1.519269e-03
   7714.64    1.559383e-03
   7714.93    1.599497e-03
   7715.22    1.645580e-03
   7715.51    1.693454e-03
   7715.80    1.741328e-03
   7716.09    1.792353e-03
   7716.38    1.850468e-03
   7716.67    1.908582e-03
   7716.96    1.966696e-03
   7717.24    2.036593e-03
   7717.53    2.108631e-03
   7717.82    2.180669e-03
   7718.11    2.260269e-03
   7718.40    2.351968e-03
   7718.69    2.443666e-03
   7718.98    2.535365e-03
   7719.27    2.653988e-03
   7719.56    2.774856e-03
   7719.84    2.895723e-03
   7720.13    3.037970e-03
   7720.42    3.205159e-03
   7720.71    3.372349e-03
   7721.00    3.539539e-03
   7721.29    3.788030e-03
   7721.58    4.036521e-03
   7721.87    4.285012e-03
   7722.16    4.623816e-03
   7722.44    5.040029e-03
   7722.73    5.456243e-03
   7723.02    5.908188e-03
   7723.31    6.788916e-03
   7723.60    7.669644e-03
   7723.89    8.550372e-03
   7724.18    1.054717e-02
   7724.47    1.324152e-02
   7724.76    1.593587e-02
   7725.04    1.886986e-02
   7725.33    2.308917e-02
   7725.62    2.711627e-02
   7725.91    3.099145e-02
   7726.20    3.492810e-02
   7726.49    3.910868e-02
   7726.78    4.356423e-02
   7727.07    4.836339e-02
   7727.36    5.341370e-02
   7727.64    5.857510e-02
   7727.93    6.367501e-02
   7728.22    6.863057e-02
   7728.51    7.346762e-02
   7728.80    7.826886e-02
   7729.09    8.297170e-02
   7729.38    8.740717e-02
   7729.67    9.124277e-02
   7729.96    9.436513e-02
   7730.24    9.673634e-02
   7730.53    9.839314e-02
   7730.82    9.950914e-02
   7731.11    1.001701e-01
   7731.40    1.004106e-01
   7731.69    1.002713e-01
   7731.98    9.983565e-02
   7732.27    9.922712e-02
   7732.56    9.860724e-02
   7732.84    9.810937e-02
   7733.13    9.782018e-02
   7733.42    9.778440e-02
   7733.71    9.800879e-02
   7734.00    9.847022e-02
   7734.29    9.913983e-02
   7734.58    9.992878e-02
   7734.87    1.007696e-01
   7735.16    1.015945e-01
   7735.44    1.023397e-01
   7735.73    1.029508e-01
   7736.02    1.033718e-01
   7736.31    1.035779e-01
   7736.60    1.035729e-01
   7736.89    1.033677e-01
   7737.18    1.029868e-01
   7737.47    1.024655e-01
   7737.76    1.018448e-01
   7738.04    1.011693e-01
   7738.33    1.004894e-01
   7738.62    9.984039e-02
   7738.91    9.925083e-02
   7739.20    9.874157e-02
   7739.49    9.832607e-02
   7739.78    9.801956e-02
   7740.07    9.784177e-02
   7740.36    9.781339e-02
   7740.64    9.778502e-02
   7740.93    9.775664e-02
   7741.22    9.786936e-02
   7741.51    9.802441e-02
   7741.80    9.817945e-02
   7742.09    9.831779e-02
   7742.38    9.841854e-02
   7742.67    9.851929e-02
   7742.96    9.862005e-02
   7743.24    9.848682e-02
   7743.53    9.831106e-02
   7743.82    9.813530e-02
   7744.11    9.782685e-02
   7744.40    9.730610e-02
   7744.69    9.678535e-02
   7744.98    9.626460e-02
   7745.27    9.552607e-02
   7745.56    9.476940e-02
   7745.84    9.401273e-02
   7746.13    9.322419e-02
   7746.42    9.239849e-02
   7746.71    9.157279e-02
   7747.00    9.074709e-02
   7747.29    8.996569e-02
   7747.58    8.918430e-02
   7747.87    8.840291e-02
   7748.16    8.766654e-02
   7748.44    8.696876e-02
   7748.73    8.627098e-02
   7749.02    8.557921e-02
   7749.31    8.495944e-02
   7749.60    8.433967e-02
   7749.89    8.371990e-02
   7750.18    8.313497e-02
   7750.47    8.257182e-02
   7750.76    8.200867e-02
   7751.04    8.145098e-02
   7751.33    8.092332e-02
   7751.62    8.039565e-02
   7751.91    7.986799e-02
   7752.20    7.935598e-02
   7752.49    7.885092e-02
   7752.78    7.834587e-02
   7753.07    7.784551e-02
   7753.36    7.736083e-02
   7753.64    7.687614e-02
   7753.93    7.639145e-02
   7754.22    7.592705e-02
   7754.51    7.546872e-02
   7754.80    7.501040e-02
   7755.09    7.456260e-02
   7755.38    7.413846e-02
   7755.67    7.371432e-02
   7755.96    7.329019e-02
   7756.24    7.289752e-02
   7756.53    7.251059e-02
   7756.82    7.212365e-02
   7757.11    7.175047e-02
   7757.40    7.139931e-02
   7757.69    7.104814e-02
   7757.98    7.069698e-02
   7758.27    7.038255e-02
   7758.56    7.007119e-02
   7758.84    6.975982e-02
   7759.13    6.947531e-02
   7759.42    6.922215e-02
   7759.71    6.896898e-02
   7760.00    6.871582e-02
