 FDMNES
  energy    <xanes>
   7695.00    5.090564e-04
   7695.29    5.147388e-04
   7695.58    5.204212e-04
   7695.87    5.261036e-04
   7696.16    5.320059e-04
   7696.44    5.380966e-04
   7696.73    5.441873e-04
   7697.02    5.503129e-04
   7697.31    5.568559e-04
   7697.60    5.633989e-04
   7697.89    5.699420e-04
   7698.18    5.767944e-04
   7698.47    5.838402e-04
   7698.76    5.908860e-04
   7699.04    5.980180e-04
   7699.33    6.056246e-04
   7699.62    6.132311e-04
   7699.91    6.208377e-04
   7700.20    6.288790e-04
   7700.49    6.371136e-04
   7700.78    6.453481e-04
   7701.07    6.537457e-04
   7701.36    6.626864e-04
   7701.64    6.716271e-04
   7701.93    6.805679e-04
   7702.22    6.901222e-04
   7702.51    6.998606e-04
   7702.80    7.095990e-04
   7703.09    7.196159e-04
   7703.38    7.302597e-04
   7703.67    7.409035e-04
   7703.96    7.515473e-04
   7704.24    7.630653e-04
   7704.53    7.747422e-04
   7704.82    7.864191e-04
   7705.11    7.985520e-04
   7705.40    8.114146e-04
   7705.69    8.242772e-04
   7705.98    8.371398e-04
   7706.27    8.512663e-04
   7706.56    8.654982e-04
   7706.84    8.797301e-04
   7707.13    8.946969e-04
   7707.42    9.105212e-04
   7707.71    9.263455e-04
   7708.00    9.421698e-04
   7708.29    9.598601e-04
   7708.58    9.775505e-04
   7708.87    9.952409e-04
   7709.16    1.014119e-03
   7709.44    1.034015e-03
   7709.73    1.053910e-03
   7710.02    1.074009e-03
   7710.31    1.096536e-03
   7710.60    1.119063e-03
   7710.89    1.141591e-03
   7711.18    1.166071e-03
   7711.47    1.191773e-03
   7711.76    1.217474e-03
   7712.04    1.243771e-03
   7712.33    1.273348e-03
   7712.62    1.302924e-03
   7712.91    1.332500e-03
   7713.20    1.365399e-03
   7713.49    1.399774e-03
   7713.78    1.434149e-03
   7714.07    1.469917e-03
   7714.36    1.510332e-03
   7714.64    1.550747e-03
   7714.93    1.591162e-03
   7715.22    1.637539e-03
   7715.51    1.685706e-03
   7715.80    1.733872e-03
   7716.09    1.785172e-03
   7716.38    1.843521e-03
   7716.67    1.901870e-03
   7716.96    1.960219e-03
   7717.24    2.030217e-03
   7717.53    2.102333e-03
   7717.82    2.174449e-03
   7718.11    2.253988e-03
   7718.40    2.345406e-03
   7718.69    2.436824e-03
   7718.98    2.528241e-03
   7719.27    2.645870e-03
   7719.56    2.765682e-03
   7719.84    2.885495e-03
   7720.13    3.025916e-03
   7720.42    3.190381e-03
   7720.71    3.354845e-03
   7721.00    3.519310e-03
   7721.29    3.761347e-03
   7721.58    4.003385e-03
   7721.87    4.245422e-03
   7722.16    4.573009e-03
   7722.44    4.973923e-03
   7722.73    5.374838e-03
   7723.02    5.809753e-03
   7723.31    6.652682e-03
   7723.60    7.495612e-03
   7723.89    8.338541e-03
   7724.18    1.025008e-02
   7724.47    1.282949e-02
   7724.76    1.540890e-02
   7725.04    1.819385e-02
   7725.33    2.198697e-02
   7725.62    2.530115e-02
   7725.91    2.816808e-02
   7726.20    3.091944e-02
   7726.49    3.379973e-02
   7726.78    3.694600e-02
   7727.07    4.056514e-02
   7727.36    4.476205e-02
   7727.64    4.974471e-02
   7727.93    5.567821e-02
   7728.22    6.263003e-02
   7728.51    7.072914e-02
   7728.80    7.966458e-02
   7729.09    8.915035e-02
   7729.38    9.845660e-02
   7729.67    1.066589e-01
   7729.96    1.131292e-01
   7730.24    1.173954e-01
   7730.53    1.192646e-01
   7730.82    1.193065e-01
   7731.11    1.181102e-01
   7731.40    1.162066e-01
   7731.69    1.140161e-01
   7731.98    1.118302e-01
   7732.27    1.098442e-01
   7732.56    1.081685e-01
   7732.84    1.068215e-01
   7733.13    1.058026e-01
   7733.42    1.050873e-01
   7733.71    1.046338e-01
   7734.00    1.043879e-01
   7734.29    1.042969e-01
   7734.58    1.042724e-01
   7734.87    1.042515e-01
   7735.16    1.041782e-01
   7735.44    1.040067e-01
   7735.73    1.037045e-01
   7736.02    1.032447e-01
   7736.31    1.026313e-01
   7736.60    1.018903e-01
   7736.89    1.010523e-01
   7737.18    1.001562e-01
   7737.47    9.924543e-02
   7737.76    9.836490e-02
   7738.04    9.756482e-02
   7738.33    9.687279e-02
   7738.62    9.631174e-02
   7738.91    9.589576e-02
   7739.20    9.563048e-02
   7739.49    9.551409e-02
   7739.78    9.554927e-02
   7740.07    9.573561e-02
   7740.36    9.607311e-02
   7740.64    9.641061e-02
   7740.93    9.674812e-02
   7741.22    9.714977e-02
   7741.51    9.757066e-02
   7741.80    9.799155e-02
   7742.09    9.834840e-02
   7742.38    9.856116e-02
   7742.67    9.877392e-02
   7742.96    9.898667e-02
   7743.24    9.886737e-02
   7743.53    9.868770e-02
   7743.82    9.850802e-02
   7744.11    9.817778e-02
   7744.40    9.760665e-02
   7744.69    9.703551e-02
   7744.98    9.646438e-02
   7745.27    9.566648e-02
   7745.56    9.484968e-02
   7745.84    9.403289e-02
   7746.13    9.318123e-02
   7746.42    9.228890e-02
   7746.71    9.139656e-02
   7747.00    9.050423e-02
   7747.29    8.964883e-02
   7747.58    8.879343e-02
   7747.87    8.793803e-02
   7748.16    8.712746e-02
   7748.44    8.635532e-02
   7748.73    8.558318e-02
   7749.02    8.481782e-02
   7749.31    8.413383e-02
   7749.60    8.344984e-02
   7749.89    8.276585e-02
   7750.18    8.212705e-02
   7750.47    8.151649e-02
   7750.76    8.090594e-02
   7751.04    8.030309e-02
   7751.33    7.974261e-02
   7751.62    7.918213e-02
   7751.91    7.862165e-02
   7752.20    7.807750e-02
   7752.49    7.754060e-02
   7752.78    7.700370e-02
   7753.07    7.646647e-02
   7753.36    7.592813e-02
   7753.64    7.538979e-02
   7753.93    7.485145e-02
   7754.22    7.429763e-02
   7754.51    7.373917e-02
   7754.80    7.318070e-02
   7755.09    7.261376e-02
   7755.38    7.202773e-02
   7755.67    7.144171e-02
   7755.96    7.085568e-02
   7756.24    7.025318e-02
   7756.53    6.964767e-02
   7756.82    6.904216e-02
   7757.11    6.843931e-02
   7757.40    6.784072e-02
   7757.69    6.724213e-02
   7757.98    6.664353e-02
   7758.27    6.609293e-02
   7758.56    6.554632e-02
   7758.84    6.499971e-02
   7759.13    6.450230e-02
   7759.42    6.406230e-02
   7759.71    6.362231e-02
   7760.00    6.318231e-02
