 FDMNES
  energy    <xanes>
   7695.00    5.561559e-04
   7695.29    5.619758e-04
   7695.58    5.677957e-04
   7695.87    5.736156e-04
   7696.16    5.796535e-04
   7696.44    5.858783e-04
   7696.73    5.921031e-04
   7697.02    5.983623e-04
   7697.31    6.050350e-04
   7697.60    6.117077e-04
   7697.89    6.183804e-04
   7698.18    6.253590e-04
   7698.47    6.325288e-04
   7698.76    6.396986e-04
   7699.04    6.469537e-04
   7699.33    6.546773e-04
   7699.62    6.624010e-04
   7699.91    6.701246e-04
   7700.20    6.782771e-04
   7700.49    6.866202e-04
   7700.78    6.949633e-04
   7701.07    7.034669e-04
   7701.36    7.125056e-04
   7701.64    7.215444e-04
   7701.93    7.305831e-04
   7702.22    7.402257e-04
   7702.51    7.500493e-04
   7702.80    7.598730e-04
   7703.09    7.699705e-04
   7703.38    7.806841e-04
   7703.67    7.913977e-04
   7703.96    8.021114e-04
   7704.24    8.136834e-04
   7704.53    8.254116e-04
   7704.82    8.371397e-04
   7705.11    8.493153e-04
   7705.40    8.622067e-04
   7705.69    8.750981e-04
   7705.98    8.879895e-04
   7706.27    9.021200e-04
   7706.56    9.163538e-04
   7706.84    9.305876e-04
   7707.13    9.455414e-04
   7707.42    9.613353e-04
   7707.71    9.771292e-04
   7708.00    9.929231e-04
   7708.29    1.010544e-03
   7708.58    1.028165e-03
   7708.87    1.045787e-03
   7709.16    1.064570e-03
   7709.44    1.084350e-03
   7709.73    1.104130e-03
   7710.02    1.124109e-03
   7710.31    1.146464e-03
   7710.60    1.168820e-03
   7710.89    1.191176e-03
   7711.18    1.215443e-03
   7711.47    1.240906e-03
   7711.76    1.266368e-03
   7712.04    1.292415e-03
   7712.33    1.321671e-03
   7712.62    1.350928e-03
   7712.91    1.380185e-03
   7713.20    1.412697e-03
   7713.49    1.446655e-03
   7713.78    1.480613e-03
   7714.07    1.515938e-03
   7714.36    1.555820e-03
   7714.64    1.595701e-03
   7714.93    1.635582e-03
   7715.22    1.681318e-03
   7715.51    1.728810e-03
   7715.80    1.776302e-03
   7716.09    1.826875e-03
   7716.38    1.884380e-03
   7716.67    1.941886e-03
   7716.96    1.999391e-03
   7717.24    2.068370e-03
   7717.53    2.139436e-03
   7717.82    2.210501e-03
   7718.11    2.288892e-03
   7718.40    2.379005e-03
   7718.69    2.469117e-03
   7718.98    2.559229e-03
   7719.27    2.675240e-03
   7719.56    2.793409e-03
   7719.84    2.911577e-03
   7720.13    3.050108e-03
   7720.42    3.212393e-03
   7720.71    3.374679e-03
   7721.00    3.536965e-03
   7721.29    3.775611e-03
   7721.58    4.014257e-03
   7721.87    4.252904e-03
   7722.16    4.574753e-03
   7722.44    4.967918e-03
   7722.73    5.361084e-03
   7723.02    5.786362e-03
   7723.31    6.596991e-03
   7723.60    7.407621e-03
   7723.89    8.218250e-03
   7724.18    1.001367e-02
   7724.47    1.242458e-02
   7724.76    1.483548e-02
   7725.04    1.745909e-02
   7725.33    2.122070e-02
   7725.62    2.477919e-02
   7725.91    2.813124e-02
   7726.20    3.150341e-02
   7726.49    3.516221e-02
   7726.78    3.924556e-02
   7727.07    4.402588e-02
   7727.36    4.959089e-02
   7727.64    5.609656e-02
   7727.93    6.352072e-02
   7728.22    7.155539e-02
   7728.51    7.966356e-02
   7728.80    8.720311e-02
   7729.09    9.346605e-02
   7729.38    9.853108e-02
   7729.67    1.022079e-01
   7729.96    1.046565e-01
   7730.24    1.058703e-01
   7730.53    1.058546e-01
   7730.82    1.049210e-01
   7731.11    1.033722e-01
   7731.40    1.014946e-01
   7731.69    9.952409e-02
   7731.98    9.762154e-02
   7732.27    9.588826e-02
   7732.56    9.437518e-02
   7732.84    9.309121e-02
   7733.13    9.205002e-02
   7733.42    9.125996e-02
   7733.71    9.072553e-02
   7734.00    9.044690e-02
   7734.29    9.044519e-02
   7734.58    9.067328e-02
   7734.87    9.110714e-02
   7735.16    9.171540e-02
   7735.44    9.245940e-02
   7735.73    9.329458e-02
   7736.02    9.417306e-02
   7736.31    9.504146e-02
   7736.60    9.585881e-02
   7736.89    9.659522e-02
   7737.18    9.723107e-02
   7737.47    9.775632e-02
   7737.76    9.816674e-02
   7738.04    9.845672e-02
   7738.33    9.864463e-02
   7738.62    9.873910e-02
   7738.91    9.875012e-02
   7739.20    9.868882e-02
   7739.49    9.856719e-02
   7739.78    9.839464e-02
   7740.07    9.818531e-02
   7740.36    9.795206e-02
   7740.64    9.771881e-02
   7740.93    9.748556e-02
   7741.22    9.727164e-02
   7741.51    9.706352e-02
   7741.80    9.685540e-02
   7742.09    9.665893e-02
   7742.38    9.648867e-02
   7742.67    9.631840e-02
   7742.96    9.614814e-02
   7743.24    9.595645e-02
   7743.53    9.576086e-02
   7743.82    9.556527e-02
   7744.11    9.532884e-02
   7744.40    9.502706e-02
   7744.69    9.472528e-02
   7744.98    9.442350e-02
   7745.27    9.399308e-02
   7745.56    9.355195e-02
   7745.84    9.311082e-02
   7746.13    9.262357e-02
   7746.42    9.208252e-02
   7746.71    9.154147e-02
   7747.00    9.100042e-02
   7747.29    9.043462e-02
   7747.58    8.986882e-02
   7747.87    8.930302e-02
   7748.16    8.875717e-02
   7748.44    8.822842e-02
   7748.73    8.769967e-02
   7749.02    8.717627e-02
   7749.31    8.671709e-02
   7749.60    8.625792e-02
   7749.89    8.579874e-02
   7750.18    8.539020e-02
   7750.47    8.501331e-02
   7750.76    8.463642e-02
   7751.04    8.427242e-02
   7751.33    8.397936e-02
   7751.62    8.368629e-02
   7751.91    8.339322e-02
   7752.20    8.315106e-02
   7752.49    8.293151e-02
   7752.78    8.271197e-02
   7753.07    8.250533e-02
   7753.36    8.234171e-02
   7753.64    8.217808e-02
   7753.93    8.201446e-02
   7754.22    8.187770e-02
   7754.51    8.174900e-02
   7754.80    8.162030e-02
   7755.09    8.149514e-02
   7755.38    8.137795e-02
   7755.67    8.126076e-02
   7755.96    8.114357e-02
   7756.24    8.101620e-02
   7756.53    8.088699e-02
   7756.82    8.075777e-02
   7757.11    8.061776e-02
   7757.40    8.046050e-02
   7757.69    8.030324e-02
   7757.98    8.014598e-02
   7758.27    7.996744e-02
   7758.56    7.978713e-02
   7758.84    7.960681e-02
   7759.13    7.943144e-02
   7759.42    7.926182e-02
   7759.71    7.909220e-02
   7760.00    7.892259e-02
