 FDMNES
  energy    <xanes>
   7695.00    5.075200e-04
   7695.29    5.132087e-04
   7695.58    5.188974e-04
   7695.87    5.245861e-04
   7696.16    5.304957e-04
   7696.44    5.365945e-04
   7696.73    5.426934e-04
   7697.02    5.488273e-04
   7697.31    5.553807e-04
   7697.60    5.619341e-04
   7697.89    5.684875e-04
   7698.18    5.753518e-04
   7698.47    5.824105e-04
   7698.76    5.894692e-04
   7699.04    5.966146e-04
   7699.33    6.042371e-04
   7699.62    6.118596e-04
   7699.91    6.194821e-04
   7700.20    6.275418e-04
   7700.49    6.357958e-04
   7700.78    6.440499e-04
   7701.07    6.524678e-04
   7701.36    6.614322e-04
   7701.64    6.703966e-04
   7701.93    6.793610e-04
   7702.22    6.889428e-04
   7702.51    6.987097e-04
   7702.80    7.084767e-04
   7703.09    7.185241e-04
   7703.38    7.292023e-04
   7703.67    7.398805e-04
   7703.96    7.505587e-04
   7704.24    7.621169e-04
   7704.53    7.738352e-04
   7704.82    7.855534e-04
   7705.11    7.977308e-04
   7705.40    8.106429e-04
   7705.69    8.235550e-04
   7705.98    8.364671e-04
   7706.27    8.506522e-04
   7706.56    8.649433e-04
   7706.84    8.792345e-04
   7707.13    8.942660e-04
   7707.42    9.101611e-04
   7707.71    9.260563e-04
   7708.00    9.419514e-04
   7708.29    9.597265e-04
   7708.58    9.775015e-04
   7708.87    9.952765e-04
   7709.16    1.014248e-03
   7709.44    1.034245e-03
   7709.73    1.054241e-03
   7710.02    1.074442e-03
   7710.31    1.097090e-03
   7710.60    1.119738e-03
   7710.89    1.142385e-03
   7711.18    1.167000e-03
   7711.47    1.192844e-03
   7711.76    1.218688e-03
   7712.04    1.245132e-03
   7712.33    1.274877e-03
   7712.62    1.304622e-03
   7712.91    1.334367e-03
   7713.20    1.367453e-03
   7713.49    1.402024e-03
   7713.78    1.436596e-03
   7714.07    1.472568e-03
   7714.36    1.513207e-03
   7714.64    1.553847e-03
   7714.93    1.594486e-03
   7715.22    1.641105e-03
   7715.51    1.689518e-03
   7715.80    1.737930e-03
   7716.09    1.789476e-03
   7716.38    1.848071e-03
   7716.67    1.906667e-03
   7716.96    1.965262e-03
   7717.24    2.035456e-03
   7717.53    2.107759e-03
   7717.82    2.180061e-03
   7718.11    2.259708e-03
   7718.40    2.351104e-03
   7718.69    2.442500e-03
   7718.98    2.533896e-03
   7719.27    2.650953e-03
   7719.56    2.770148e-03
   7719.84    2.889343e-03
   7720.13    3.028380e-03
   7720.42    3.190567e-03
   7720.71    3.352754e-03
   7721.00    3.514940e-03
   7721.29    3.749746e-03
   7721.58    3.984552e-03
   7721.87    4.219358e-03
   7722.16    4.530404e-03
   7722.44    4.906799e-03
   7722.73    5.283194e-03
   7723.02    5.687382e-03
   7723.31    6.425087e-03
   7723.60    7.162792e-03
   7723.89    7.900497e-03
   7724.18    9.445267e-03
   7724.47    1.149445e-02
   7724.76    1.354364e-02
   7725.04    1.577692e-02
   7725.33    1.905014e-02
   7725.62    2.235256e-02
   7725.91    2.575076e-02
   7726.20    2.939192e-02
   7726.49    3.351709e-02
   7726.78    3.815277e-02
   7727.07    4.349140e-02
   7727.36    4.953277e-02
   7727.64    5.637108e-02
   7727.93    6.403389e-02
   7728.22    7.243249e-02
   7728.51    8.141362e-02
   7728.80    9.047227e-02
   7729.09    9.882793e-02
   7729.38    1.059686e-01
   7729.67    1.112572e-01
   7729.96    1.148322e-01
   7730.24    1.168353e-01
   7730.53    1.174061e-01
   7730.82    1.169036e-01
   7731.11    1.156094e-01
   7731.40    1.138166e-01
   7731.69    1.118207e-01
   7731.98    1.098713e-01
   7732.27    1.081593e-01
   7732.56    1.067936e-01
   7732.84    1.057833e-01
   7733.13    1.051188e-01
   7733.42    1.047689e-01
   7733.71    1.046879e-01
   7734.00    1.048169e-01
   7734.29    1.050919e-01
   7734.58    1.054061e-01
   7734.87    1.056716e-01
   7735.16    1.058039e-01
   7735.44    1.057301e-01
   7735.73    1.053984e-01
   7736.02    1.047656e-01
   7736.31    1.038474e-01
   7736.60    1.026988e-01
   7736.89    1.013795e-01
   7737.18    9.996036e-02
   7737.47    9.851401e-02
   7737.76    9.710990e-02
   7738.04    9.581969e-02
   7738.33    9.467906e-02
   7738.62    9.371599e-02
   7738.91    9.294658e-02
   7739.20    9.237677e-02
   7739.49    9.200431e-02
   7739.78    9.183524e-02
   7740.07    9.188103e-02
   7740.36    9.215920e-02
   7740.64    9.243738e-02
   7740.93    9.271555e-02
   7741.22    9.319167e-02
   7741.51    9.372716e-02
   7741.80    9.426266e-02
   7742.09    9.478185e-02
   7742.38    9.526436e-02
   7742.67    9.574686e-02
   7742.96    9.622936e-02
   7743.24    9.644368e-02
   7743.53    9.660923e-02
   7743.82    9.677479e-02
   7744.11    9.676907e-02
   7744.40    9.648934e-02
   7744.69    9.620960e-02
   7744.98    9.592986e-02
   7745.27    9.528811e-02
   7745.56    9.461619e-02
   7745.84    9.394427e-02
   7746.13    9.317147e-02
   7746.42    9.228099e-02
   7746.71    9.139050e-02
   7747.00    9.050002e-02
   7747.29    8.957481e-02
   7747.58    8.864961e-02
   7747.87    8.772441e-02
   7748.16    8.684375e-02
   7748.44    8.600128e-02
   7748.73    8.515881e-02
   7749.02    8.432567e-02
   7749.31    8.360453e-02
   7749.60    8.288338e-02
   7749.89    8.216224e-02
   7750.18    8.150695e-02
   7750.47    8.089283e-02
   7750.76    8.027870e-02
   7751.04    7.967519e-02
   7751.33    7.913007e-02
   7751.62    7.858496e-02
   7751.91    7.803985e-02
   7752.20    7.751303e-02
   7752.49    7.699433e-02
   7752.78    7.647563e-02
   7753.07    7.595464e-02
   7753.36    7.542602e-02
   7753.64    7.489740e-02
   7753.93    7.436878e-02
   7754.22    7.381467e-02
   7754.51    7.325292e-02
   7754.80    7.269116e-02
   7755.09    7.211759e-02
   7755.38    7.151743e-02
   7755.67    7.091726e-02
   7755.96    7.031710e-02
   7756.24    6.969754e-02
   7756.53    6.907445e-02
   7756.82    6.845137e-02
   7757.11    6.783324e-02
   7757.40    6.722303e-02
   7757.69    6.661282e-02
   7757.98    6.600261e-02
   7758.27    6.545057e-02
   7758.56    6.490339e-02
   7758.84    6.435620e-02
   7759.13    6.386151e-02
   7759.42    6.342805e-02
   7759.71    6.299460e-02
   7760.00    6.256114e-02
