 FDMNES
  energy    <xanes>
   7695.00    5.219032e-04
   7695.29    5.277273e-04
   7695.58    5.335514e-04
   7695.87    5.393756e-04
   7696.16    5.454269e-04
   7696.44    5.516730e-04
   7696.73    5.579191e-04
   7697.02    5.642012e-04
   7697.31    5.709152e-04
   7697.60    5.776292e-04
   7697.89    5.843432e-04
   7698.18    5.913776e-04
   7698.47    5.986123e-04
   7698.76    6.058470e-04
   7699.04    6.131711e-04
   7699.33    6.209873e-04
   7699.62    6.288035e-04
   7699.91    6.366197e-04
   7700.20    6.448873e-04
   7700.49    6.533555e-04
   7700.78    6.618237e-04
   7701.07    6.704613e-04
   7701.36    6.796636e-04
   7701.64    6.888660e-04
   7701.93    6.980683e-04
   7702.22    7.079095e-04
   7702.51    7.179424e-04
   7702.80    7.279752e-04
   7703.09    7.382985e-04
   7703.38    7.492754e-04
   7703.67    7.602523e-04
   7703.96    7.712292e-04
   7704.24    7.831190e-04
   7704.53    7.951749e-04
   7704.82    8.072307e-04
   7705.11    8.197636e-04
   7705.40    8.330598e-04
   7705.69    8.463559e-04
   7705.98    8.596521e-04
   7706.27    8.742729e-04
   7706.56    8.890040e-04
   7706.84    9.037352e-04
   7707.13    9.192379e-04
   7707.42    9.356409e-04
   7707.71    9.520439e-04
   7708.00    9.684468e-04
   7708.29    9.868127e-04
   7708.58    1.005179e-03
   7708.87    1.023544e-03
   7709.16    1.043162e-03
   7709.44    1.063852e-03
   7709.73    1.084542e-03
   7710.02    1.105446e-03
   7710.31    1.128916e-03
   7710.60    1.152385e-03
   7710.89    1.175854e-03
   7711.18    1.201390e-03
   7711.47    1.228218e-03
   7711.76    1.255046e-03
   7712.04    1.282506e-03
   7712.33    1.313442e-03
   7712.62    1.344378e-03
   7712.91    1.375315e-03
   7713.20    1.409779e-03
   7713.49    1.445812e-03
   7713.78    1.481845e-03
   7714.07    1.519360e-03
   7714.36    1.561818e-03
   7714.64    1.604276e-03
   7714.93    1.646734e-03
   7715.22    1.695540e-03
   7715.51    1.746252e-03
   7715.80    1.796964e-03
   7716.09    1.851012e-03
   7716.38    1.912568e-03
   7716.67    1.974124e-03
   7716.96    2.035681e-03
   7717.24    2.109627e-03
   7717.53    2.185826e-03
   7717.82    2.262025e-03
   7718.11    2.346091e-03
   7718.40    2.442744e-03
   7718.69    2.539398e-03
   7718.98    2.636051e-03
   7719.27    2.760261e-03
   7719.56    2.886768e-03
   7719.84    3.013274e-03
   7720.13    3.161114e-03
   7720.42    3.333844e-03
   7720.71    3.506573e-03
   7721.00    3.679302e-03
   7721.29    3.929984e-03
   7721.58    4.180666e-03
   7721.87    4.431348e-03
   7722.16    4.763203e-03
   7722.44    5.164635e-03
   7722.73    5.566067e-03
   7723.02    5.996413e-03
   7723.31    6.773720e-03
   7723.60    7.551026e-03
   7723.89    8.328333e-03
   7724.18    9.922606e-03
   7724.47    1.202748e-02
   7724.76    1.413236e-02
   7725.04    1.643610e-02
   7725.33    1.991535e-02
   7725.62    2.361208e-02
   7725.91    2.765211e-02
   7726.20    3.215829e-02
   7726.49    3.741255e-02
   7726.78    4.334829e-02
   7727.07    5.008879e-02
   7727.36    5.750477e-02
   7727.64    6.555020e-02
   7727.93    7.411058e-02
   7728.22    8.295800e-02
   7728.51    9.175077e-02
   7728.80    1.000953e-01
   7729.09    1.073857e-01
   7729.38    1.135000e-01
   7729.67    1.180106e-01
   7729.96    1.210188e-01
   7730.24    1.225784e-01
   7730.53    1.227796e-01
   7730.82    1.219742e-01
   7731.11    1.204361e-01
   7731.40    1.184205e-01
   7731.69    1.161767e-01
   7731.98    1.139242e-01
   7732.27    1.118460e-01
   7732.56    1.100665e-01
   7732.84    1.086189e-01
   7733.13    1.075097e-01
   7733.42    1.067165e-01
   7733.71    1.061958e-01
   7734.00    1.058897e-01
   7734.29    1.057391e-01
   7734.58    1.056460e-01
   7734.87    1.055364e-01
   7735.16    1.053409e-01
   7735.44    1.049997e-01
   7735.73    1.044677e-01
   7736.02    1.037030e-01
   7736.31    1.027053e-01
   7736.60    1.015049e-01
   7736.89    1.001364e-01
   7737.18    9.864583e-02
   7737.47    9.708489e-02
   7737.76    9.550649e-02
   7738.04    9.396766e-02
   7738.33    9.250962e-02
   7738.62    9.116473e-02
   7738.91    8.995698e-02
   7739.20    8.890242e-02
   7739.49    8.800986e-02
   7739.78    8.729541e-02
   7740.07    8.678925e-02
   7740.36    8.653034e-02
   7740.64    8.627143e-02
   7740.93    8.601252e-02
   7741.22    8.605843e-02
   7741.51    8.619580e-02
   7741.80    8.633317e-02
   7742.09    8.652847e-02
   7742.38    8.685412e-02
   7742.67    8.717977e-02
   7742.96    8.750542e-02
   7743.24    8.779788e-02
   7743.53    8.808431e-02
   7743.82    8.837074e-02
   7744.11    8.857339e-02
   7744.40    8.864200e-02
   7744.69    8.871061e-02
   7744.98    8.877922e-02
   7745.27    8.858261e-02
   7745.56    8.836390e-02
   7745.84    8.814518e-02
   7746.13    8.781863e-02
   7746.42    8.736625e-02
   7746.71    8.691387e-02
   7747.00    8.646149e-02
   7747.29    8.588895e-02
   7747.58    8.531642e-02
   7747.87    8.474388e-02
   7748.16    8.415806e-02
   7748.44    8.356085e-02
   7748.73    8.296364e-02
   7749.02    8.236823e-02
   7749.31    8.179428e-02
   7749.60    8.122033e-02
   7749.89    8.064638e-02
   7750.18    8.009265e-02
   7750.47    7.955158e-02
   7750.76    7.901050e-02
   7751.04    7.847292e-02
   7751.33    7.795463e-02
   7751.62    7.743634e-02
   7751.91    7.691804e-02
   7752.20    7.640554e-02
   7752.49    7.589561e-02
   7752.78    7.538568e-02
   7753.07    7.487580e-02
   7753.36    7.436606e-02
   7753.64    7.385631e-02
   7753.93    7.334657e-02
   7754.22    7.283983e-02
   7754.51    7.233398e-02
   7754.80    7.182814e-02
   7755.09    7.132830e-02
   7755.38    7.084196e-02
   7755.67    7.035562e-02
   7755.96    6.986928e-02
   7756.24    6.941824e-02
   7756.53    6.897361e-02
   7756.82    6.852898e-02
   7757.11    6.810867e-02
   7757.40    6.772724e-02
   7757.69    6.734582e-02
   7757.98    6.696440e-02
   7758.27    6.665493e-02
   7758.56    6.635145e-02
   7758.84    6.604798e-02
   7759.13    6.578219e-02
   7759.42    6.556036e-02
   7759.71    6.533854e-02
   7760.00    6.511672e-02
