 FDMNES
  energy    <xanes>
   7695.00    5.337771e-04
   7695.29    5.397584e-04
   7695.58    5.457397e-04
   7695.87    5.517210e-04
   7696.16    5.579373e-04
   7696.44    5.643552e-04
   7696.73    5.707730e-04
   7697.02    5.772281e-04
   7697.31    5.841304e-04
   7697.60    5.910327e-04
   7697.89    5.979350e-04
   7698.18    6.051693e-04
   7698.47    6.126112e-04
   7698.76    6.200531e-04
   7699.04    6.275878e-04
   7699.33    6.356329e-04
   7699.62    6.436780e-04
   7699.91    6.517231e-04
   7700.20    6.602369e-04
   7700.49    6.689590e-04
   7700.78    6.776812e-04
   7701.07    6.865795e-04
   7701.36    6.960649e-04
   7701.64    7.055502e-04
   7701.93    7.150356e-04
   7702.22    7.251859e-04
   7702.51    7.355357e-04
   7702.80    7.458855e-04
   7703.09    7.565380e-04
   7703.38    7.678717e-04
   7703.67    7.792054e-04
   7703.96    7.905390e-04
   7704.24    8.028255e-04
   7704.53    8.152853e-04
   7704.82    8.277450e-04
   7705.11    8.407034e-04
   7705.40    8.544596e-04
   7705.69    8.682158e-04
   7705.98    8.819720e-04
   7706.27    8.971151e-04
   7706.56    9.123737e-04
   7706.84    9.276323e-04
   7707.13    9.437002e-04
   7707.42    9.607123e-04
   7707.71    9.777244e-04
   7708.00    9.947365e-04
   7708.29    1.013811e-03
   7708.58    1.032886e-03
   7708.87    1.051961e-03
   7709.16    1.072354e-03
   7709.44    1.093877e-03
   7709.73    1.115400e-03
   7710.02    1.137149e-03
   7710.31    1.161605e-03
   7710.60    1.186062e-03
   7710.89    1.210518e-03
   7711.18    1.237162e-03
   7711.47    1.265173e-03
   7711.76    1.293184e-03
   7712.04    1.321865e-03
   7712.33    1.354237e-03
   7712.62    1.386608e-03
   7712.91    1.418979e-03
   7713.20    1.455107e-03
   7713.49    1.492905e-03
   7713.78    1.530703e-03
   7714.07    1.570084e-03
   7714.36    1.614746e-03
   7714.64    1.659408e-03
   7714.93    1.704071e-03
   7715.22    1.755543e-03
   7715.51    1.809059e-03
   7715.80    1.862575e-03
   7716.09    1.919686e-03
   7716.38    1.984886e-03
   7716.67    2.050086e-03
   7716.96    2.115286e-03
   7717.24    2.193904e-03
   7717.53    2.274962e-03
   7717.82    2.356020e-03
   7718.11    2.445648e-03
   7718.40    2.548988e-03
   7718.69    2.652329e-03
   7718.98    2.755669e-03
   7719.27    2.889238e-03
   7719.56    3.025326e-03
   7719.84    3.161415e-03
   7720.13    3.321100e-03
   7720.42    3.508317e-03
   7720.71    3.695534e-03
   7721.00    3.882751e-03
   7721.29    4.157083e-03
   7721.58    4.431415e-03
   7721.87    4.705747e-03
   7722.16    5.071988e-03
   7722.44    5.517008e-03
   7722.73    5.962028e-03
   7723.02    6.440348e-03
   7723.31    7.318263e-03
   7723.60    8.196178e-03
   7723.89    9.074092e-03
   7724.18    1.090543e-02
   7724.47    1.333265e-02
   7724.76    1.575987e-02
   7725.04    1.841502e-02
   7725.33    2.240714e-02
   7725.62    2.663333e-02
   7725.91    3.129691e-02
   7726.20    3.658543e-02
   7726.49    4.281985e-02
   7726.78    4.973572e-02
   7727.07    5.707830e-02
   7727.36    6.453195e-02
   7727.64    7.226480e-02
   7727.93    8.072318e-02
   7728.22    9.010016e-02
   7728.51    1.001870e-01
   7728.80    1.101731e-01
   7729.09    1.187922e-01
   7729.38    1.253935e-01
   7729.67    1.291541e-01
   7729.96    1.305369e-01
   7730.24    1.301113e-01
   7730.53    1.285384e-01
   7730.82    1.264555e-01
   7731.11    1.241333e-01
   7731.40    1.216728e-01
   7731.69    1.191256e-01
   7731.98    1.165587e-01
   7732.27    1.140779e-01
   7732.56    1.118081e-01
   7732.84    1.098285e-01
   7733.13    1.081883e-01
   7733.42    1.068946e-01
   7733.71    1.059145e-01
   7734.00    1.051852e-01
   7734.29    1.046351e-01
   7734.58    1.041482e-01
   7734.87    1.036416e-01
   7735.16    1.030446e-01
   7735.44    1.023039e-01
   7735.73    1.013871e-01
   7736.02    1.002706e-01
   7736.31    9.897104e-02
   7736.60    9.752776e-02
   7736.89    9.598177e-02
   7737.18    9.438017e-02
   7737.47    9.277146e-02
   7737.76    9.120306e-02
   7738.04    8.972681e-02
   7738.33    8.836946e-02
   7738.62    8.715504e-02
   7738.91    8.610030e-02
   7739.20    8.521537e-02
   7739.49    8.450455e-02
   7739.78    8.398129e-02
   7740.07    8.367351e-02
   7740.36    8.361852e-02
   7740.64    8.356352e-02
   7740.93    8.350853e-02
   7741.22    8.375386e-02
   7741.51    8.408930e-02
   7741.80    8.442473e-02
   7742.09    8.480766e-02
   7742.38    8.529743e-02
   7742.67    8.578721e-02
   7742.96    8.627699e-02
   7743.24    8.667949e-02
   7743.53    8.706611e-02
   7743.82    8.745273e-02
   7744.11    8.773181e-02
   7744.40    8.783882e-02
   7744.69    8.794582e-02
   7744.98    8.805283e-02
   7745.27    8.787541e-02
   7745.56    8.767428e-02
   7745.84    8.747315e-02
   7746.13    8.717242e-02
   7746.42    8.675548e-02
   7746.71    8.633855e-02
   7747.00    8.592161e-02
   7747.29    8.541207e-02
   7747.58    8.490253e-02
   7747.87    8.439299e-02
   7748.16    8.388014e-02
   7748.44    8.336444e-02
   7748.73    8.284874e-02
   7749.02    8.233537e-02
   7749.31    8.184999e-02
   7749.60    8.136460e-02
   7749.89    8.087921e-02
   7750.18    8.041420e-02
   7750.47    7.996191e-02
   7750.76    7.950963e-02
   7751.04    7.906055e-02
   7751.33    7.862912e-02
   7751.62    7.819769e-02
   7751.91    7.776625e-02
   7752.20    7.733879e-02
   7752.49    7.691308e-02
   7752.78    7.648738e-02
   7753.07    7.606047e-02
   7753.36    7.562956e-02
   7753.64    7.519865e-02
   7753.93    7.476774e-02
   7754.22    7.433074e-02
   7754.51    7.389191e-02
   7754.80    7.345308e-02
   7755.09    7.301404e-02
   7755.38    7.257451e-02
   7755.67    7.213498e-02
   7755.96    7.169545e-02
   7756.24    7.126960e-02
   7756.53    7.084624e-02
   7756.82    7.042288e-02
   7757.11    7.001498e-02
   7757.40    6.963179e-02
   7757.69    6.924860e-02
   7757.98    6.886542e-02
   7758.27    6.854250e-02
   7758.56    6.822461e-02
   7758.84    6.790671e-02
   7759.13    6.762621e-02
   7759.42    6.738932e-02
   7759.71    6.715243e-02
   7760.00    6.691555e-02
