 FDMNES
  energy    <xanes>
   7695.00    5.308334e-04
   7695.29    5.367996e-04
   7695.58    5.427658e-04
   7695.87    5.487320e-04
   7696.16    5.549328e-04
   7696.44    5.613347e-04
   7696.73    5.677365e-04
   7697.02    5.741755e-04
   7697.31    5.810608e-04
   7697.60    5.879461e-04
   7697.89    5.948313e-04
   7698.18    6.020479e-04
   7698.47    6.094716e-04
   7698.76    6.168952e-04
   7699.04    6.244115e-04
   7699.33    6.324370e-04
   7699.62    6.404624e-04
   7699.91    6.484879e-04
   7700.20    6.569810e-04
   7700.49    6.656819e-04
   7700.78    6.743827e-04
   7701.07    6.832593e-04
   7701.36    6.927215e-04
   7701.64    7.021836e-04
   7701.93    7.116458e-04
   7702.22    7.217711e-04
   7702.51    7.320953e-04
   7702.80    7.424195e-04
   7703.09    7.530456e-04
   7703.38    7.643508e-04
   7703.67    7.756561e-04
   7703.96    7.869614e-04
   7704.24    7.992166e-04
   7704.53    8.116444e-04
   7704.82    8.240723e-04
   7705.11    8.369972e-04
   7705.40    8.507172e-04
   7705.69    8.644373e-04
   7705.98    8.781574e-04
   7706.27    8.932593e-04
   7706.56    9.084764e-04
   7706.84    9.236935e-04
   7707.13    9.397168e-04
   7707.42    9.566807e-04
   7707.71    9.736445e-04
   7708.00    9.906084e-04
   7708.29    1.009626e-03
   7708.58    1.028644e-03
   7708.87    1.047662e-03
   7709.16    1.067992e-03
   7709.44    1.089447e-03
   7709.73    1.110902e-03
   7710.02    1.132581e-03
   7710.31    1.156955e-03
   7710.60    1.181328e-03
   7710.89    1.205702e-03
   7711.18    1.232250e-03
   7711.47    1.260158e-03
   7711.76    1.288066e-03
   7712.04    1.316641e-03
   7712.33    1.348882e-03
   7712.62    1.381124e-03
   7712.91    1.413365e-03
   7713.20    1.449337e-03
   7713.49    1.486966e-03
   7713.78    1.524596e-03
   7714.07    1.563797e-03
   7714.36    1.608238e-03
   7714.64    1.652678e-03
   7714.93    1.697118e-03
   7715.22    1.748307e-03
   7715.51    1.801522e-03
   7715.80    1.854736e-03
   7716.09    1.911509e-03
   7716.38    1.976287e-03
   7716.67    2.041065e-03
   7716.96    2.105844e-03
   7717.24    2.183879e-03
   7717.53    2.264325e-03
   7717.82    2.344771e-03
   7718.11    2.433667e-03
   7718.40    2.536082e-03
   7718.69    2.638497e-03
   7718.98    2.740912e-03
   7719.27    2.873049e-03
   7719.56    3.007662e-03
   7719.84    3.142276e-03
   7720.13    3.300010e-03
   7720.42    3.484716e-03
   7720.71    3.669423e-03
   7721.00    3.854130e-03
   7721.29    4.123787e-03
   7721.58    4.393444e-03
   7721.87    4.663100e-03
   7722.16    5.021813e-03
   7722.44    5.456860e-03
   7722.73    5.891907e-03
   7723.02    6.358937e-03
   7723.31    7.209767e-03
   7723.60    8.060598e-03
   7723.89    8.911429e-03
   7724.18    1.067808e-02
   7724.47    1.301711e-02
   7724.76    1.535614e-02
   7725.04    1.792541e-02
   7725.33    2.186437e-02
   7725.62    2.604683e-02
   7725.91    3.048651e-02
   7726.20    3.520889e-02
   7726.49    4.039596e-02
   7726.78    4.613913e-02
   7727.07    5.284549e-02
   7727.36    6.068215e-02
   7727.64    6.985871e-02
   7727.93    8.028462e-02
   7728.22    9.146176e-02
   7728.51    1.025884e-01
   7728.80    1.127705e-01
   7729.09    1.208719e-01
   7729.38    1.269585e-01
   7729.67    1.308066e-01
   7729.96    1.329674e-01
   7730.24    1.337419e-01
   7730.53    1.332786e-01
   7730.82    1.318148e-01
   7731.11    1.294793e-01
   7731.40    1.264155e-01
   7731.69    1.228333e-01
   7731.98    1.189975e-01
   7732.27    1.151942e-01
   7732.56    1.116803e-01
   7732.84    1.085842e-01
   7733.13    1.059638e-01
   7733.42    1.038173e-01
   7733.71    1.021024e-01
   7734.00    1.007539e-01
   7734.29    9.972354e-02
   7734.58    9.889666e-02
   7734.87    9.820730e-02
   7735.16    9.759889e-02
   7735.44    9.702543e-02
   7735.73    9.645164e-02
   7736.02    9.585001e-02
   7736.31    9.520548e-02
   7736.60    9.451623e-02
   7736.89    9.378692e-02
   7737.18    9.302890e-02
   7737.47    9.225865e-02
   7737.76    9.149650e-02
   7738.04    9.076858e-02
   7738.33    9.009355e-02
   7738.62    8.948848e-02
   7738.91    8.896657e-02
   7739.20    8.853660e-02
   7739.49    8.820284e-02
   7739.78    8.797303e-02
   7740.07    8.785828e-02
   7740.36    8.787183e-02
   7740.64    8.788538e-02
   7740.93    8.789894e-02
   7741.22    8.802991e-02
   7741.51    8.819610e-02
   7741.80    8.836230e-02
   7742.09    8.852423e-02
   7742.38    8.867656e-02
   7742.67    8.882889e-02
   7742.96    8.898122e-02
   7743.24    8.900806e-02
   7743.53    8.901208e-02
   7743.82    8.901610e-02
   7744.11    8.894192e-02
   7744.40    8.874262e-02
   7744.69    8.854332e-02
   7744.98    8.834402e-02
   7745.27    8.797895e-02
   7745.56    8.760006e-02
   7745.84    8.722117e-02
   7746.13    8.679356e-02
   7746.42    8.630912e-02
   7746.71    8.582467e-02
   7747.00    8.534022e-02
   7747.29    8.483295e-02
   7747.58    8.432569e-02
   7747.87    8.381842e-02
   7748.16    8.332876e-02
   7748.44    8.285420e-02
   7748.73    8.237964e-02
   7749.02    8.190888e-02
   7749.31    8.148376e-02
   7749.60    8.105865e-02
   7749.89    8.063353e-02
   7750.18    8.023140e-02
   7750.47    7.984365e-02
   7750.76    7.945589e-02
   7751.04    7.907000e-02
   7751.33    7.869445e-02
   7751.62    7.831890e-02
   7751.91    7.794334e-02
   7752.20    7.755853e-02
   7752.49    7.716960e-02
   7752.78    7.678067e-02
   7753.07    7.638457e-02
   7753.36    7.596460e-02
   7753.64    7.554464e-02
   7753.93    7.512467e-02
   7754.22    7.467728e-02
   7754.51    7.422167e-02
   7754.80    7.376606e-02
   7755.09    7.330270e-02
   7755.38    7.282192e-02
   7755.67    7.234114e-02
   7755.96    7.186037e-02
   7756.24    7.137865e-02
   7756.53    7.089676e-02
   7756.82    7.041488e-02
   7757.11    6.994506e-02
   7757.40    6.949454e-02
   7757.69    6.904402e-02
   7757.98    6.859350e-02
   7758.27    6.820278e-02
   7758.56    6.781703e-02
   7758.84    6.743129e-02
   7759.13    6.708725e-02
   7759.42    6.679188e-02
   7759.71    6.649650e-02
   7760.00    6.620112e-02
