 FDMNES
  energy    <xanes>
   7695.00    5.469619e-04
   7695.29    5.525570e-04
   7695.58    5.581522e-04
   7695.87    5.637473e-04
   7696.16    5.695467e-04
   7696.44    5.755212e-04
   7696.73    5.814956e-04
   7697.02    5.875023e-04
   7697.31    5.938953e-04
   7697.60    6.002883e-04
   7697.89    6.066813e-04
   7698.18    6.133595e-04
   7698.47    6.202159e-04
   7698.76    6.270723e-04
   7699.04    6.340079e-04
   7699.33    6.413792e-04
   7699.62    6.487504e-04
   7699.91    6.561217e-04
   7700.20    6.638904e-04
   7700.49    6.718358e-04
   7700.78    6.797812e-04
   7701.07    6.878749e-04
   7701.36    6.964632e-04
   7701.64    7.050515e-04
   7701.93    7.136397e-04
   7702.22    7.227841e-04
   7702.51    7.320954e-04
   7702.80    7.414067e-04
   7703.09    7.509693e-04
   7703.38    7.610976e-04
   7703.67    7.712258e-04
   7703.96    7.813541e-04
   7704.24    7.922675e-04
   7704.53    8.033237e-04
   7704.82    8.143799e-04
   7705.11    8.258437e-04
   7705.40    8.379597e-04
   7705.69    8.500758e-04
   7705.98    8.621918e-04
   7706.27    8.754322e-04
   7706.56    8.887663e-04
   7706.84    9.021005e-04
   7707.13    9.160851e-04
   7707.42    9.308286e-04
   7707.71    9.455721e-04
   7708.00    9.603155e-04
   7708.29    9.767021e-04
   7708.58    9.930887e-04
   7708.87    1.009475e-03
   7709.16    1.026902e-03
   7709.44    1.045220e-03
   7709.73    1.063538e-03
   7710.02    1.082032e-03
   7710.31    1.102643e-03
   7710.60    1.123253e-03
   7710.89    1.143863e-03
   7711.18    1.166165e-03
   7711.47    1.189523e-03
   7711.76    1.212882e-03
   7712.04    1.236755e-03
   7712.33    1.263450e-03
   7712.62    1.290146e-03
   7712.91    1.316842e-03
   7713.20    1.346381e-03
   7713.49    1.377184e-03
   7713.78    1.407987e-03
   7714.07    1.439975e-03
   7714.36    1.475916e-03
   7714.64    1.511857e-03
   7714.93    1.547799e-03
   7715.22    1.588780e-03
   7715.51    1.631274e-03
   7715.80    1.673768e-03
   7716.09    1.718894e-03
   7716.38    1.769941e-03
   7716.67    1.820989e-03
   7716.96    1.872036e-03
   7717.24    1.932804e-03
   7717.53    1.995339e-03
   7717.82    2.057874e-03
   7718.11    2.126562e-03
   7718.40    2.205095e-03
   7718.69    2.283628e-03
   7718.98    2.362162e-03
   7719.27    2.462267e-03
   7719.56    2.564169e-03
   7719.84    2.666072e-03
   7720.13    2.784806e-03
   7720.42    2.923177e-03
   7720.71    3.061547e-03
   7721.00    3.199918e-03
   7721.29    3.401062e-03
   7721.58    3.602206e-03
   7721.87    3.803349e-03
   7722.16    4.072816e-03
   7722.44    4.400846e-03
   7722.73    4.728876e-03
   7723.02    5.083457e-03
   7723.31    5.756654e-03
   7723.60    6.429851e-03
   7723.89    7.103048e-03
   7724.18    8.598392e-03
   7724.47    1.060758e-02
   7724.76    1.261676e-02
   7725.04    1.480121e-02
   7725.33    1.791590e-02
   7725.62    2.084253e-02
   7725.91    2.357239e-02
   7726.20    2.626529e-02
   7726.49    2.904606e-02
   7726.78    3.197703e-02
   7727.07    3.516397e-02
   7727.36    3.865743e-02
   7727.64    4.255841e-02
   7727.93    4.693667e-02
   7728.22    5.180426e-02
   7728.51    5.719076e-02
   7728.80    6.292049e-02
   7729.09    6.881518e-02
   7729.38    7.454757e-02
   7729.67    7.972327e-02
   7729.96    8.414129e-02
   7730.24    8.767122e-02
   7730.53    9.026963e-02
   7730.82    9.212739e-02
   7731.11    9.339485e-02
   7731.40    9.418728e-02
   7731.69    9.459648e-02
   7731.98    9.469764e-02
   7732.27    9.454599e-02
   7732.56    9.420443e-02
   7732.84    9.374476e-02
   7733.13    9.322571e-02
   7733.42    9.270717e-02
   7733.71    9.224576e-02
   7734.00    9.189072e-02
   7734.29    9.170110e-02
   7734.58    9.168567e-02
   7734.87    9.185407e-02
   7735.16    9.220389e-02
   7735.44    9.272174e-02
   7735.73    9.338362e-02
   7736.02    9.415981e-02
   7736.31    9.499951e-02
   7736.60    9.585170e-02
   7736.89    9.667254e-02
   7737.18    9.742338e-02
   7737.47    9.807329e-02
   7737.76    9.859857e-02
   7738.04    9.897685e-02
   7738.33    9.922319e-02
   7738.62    9.934887e-02
   7738.91    9.937248e-02
   7739.20    9.931763e-02
   7739.49    9.921049e-02
   7739.78    9.907751e-02
   7740.07    9.896283e-02
   7740.36    9.891185e-02
   7740.64    9.886086e-02
   7740.93    9.880988e-02
   7741.22    9.894694e-02
   7741.51    9.914041e-02
   7741.80    9.933389e-02
   7742.09    9.959202e-02
   7742.38    9.999563e-02
   7742.67    1.003992e-01
   7742.96    1.008029e-01
   7743.24    1.012220e-01
   7743.53    1.016441e-01
   7743.82    1.020661e-01
   7744.11    1.024092e-01
   7744.40    1.026259e-01
   7744.69    1.028427e-01
   7744.98    1.030594e-01
   7745.27    1.029598e-01
   7745.56    1.028338e-01
   7745.84    1.027078e-01
   7746.13    1.024256e-01
   7746.42    1.019612e-01
   7746.71    1.014968e-01
   7747.00    1.010324e-01
   7747.29    1.003466e-01
   7747.58    9.966094e-02
   7747.87    9.897524e-02
   7748.16    9.825144e-02
   7748.44    9.749500e-02
   7748.73    9.673855e-02
   7749.02    9.598562e-02
   7749.31    9.527485e-02
   7749.60    9.456408e-02
   7749.89    9.385331e-02
   7750.18    9.320607e-02
   7750.47    9.259854e-02
   7750.76    9.199101e-02
   7751.04    9.140044e-02
   7751.33    9.090315e-02
   7751.62    9.040585e-02
   7751.91    8.990856e-02
   7752.20    8.947189e-02
   7752.49    8.906217e-02
   7752.78    8.865244e-02
   7753.07    8.825517e-02
   7753.36    8.789939e-02
   7753.64    8.754361e-02
   7753.93    8.718782e-02
   7754.22    8.684753e-02
   7754.51    8.651187e-02
   7754.80    8.617622e-02
   7755.09    8.583843e-02
   7755.38    8.549583e-02
   7755.67    8.515323e-02
   7755.96    8.481063e-02
   7756.24    8.445212e-02
   7756.53    8.409072e-02
   7756.82    8.372931e-02
   7757.11    8.336379e-02
   7757.40    8.299168e-02
   7757.69    8.261958e-02
   7757.98    8.224747e-02
   7758.27    8.188699e-02
   7758.56    8.152747e-02
   7758.84    8.116795e-02
   7759.13    8.083379e-02
   7759.42    8.052921e-02
   7759.71    8.022463e-02
   7760.00    7.992005e-02
