 FDMNES
  energy    <xanes>
   7695.00    5.356296e-04
   7695.29    5.410840e-04
   7695.58    5.465384e-04
   7695.87    5.519929e-04
   7696.16    5.576452e-04
   7696.44    5.634673e-04
   7696.73    5.692893e-04
   7697.02    5.751425e-04
   7697.31    5.813698e-04
   7697.60    5.875972e-04
   7697.89    5.938246e-04
   7698.18    6.003279e-04
   7698.47    6.070036e-04
   7698.76    6.136794e-04
   7699.04    6.204318e-04
   7699.33    6.276054e-04
   7699.62    6.347789e-04
   7699.91    6.419525e-04
   7700.20    6.495101e-04
   7700.49    6.572383e-04
   7700.78    6.649665e-04
   7701.07    6.728379e-04
   7701.36    6.811866e-04
   7701.64    6.895352e-04
   7701.93    6.978839e-04
   7702.22    7.067687e-04
   7702.51    7.158144e-04
   7702.80    7.248600e-04
   7703.09    7.341477e-04
   7703.38    7.439800e-04
   7703.67    7.538124e-04
   7703.96    7.636447e-04
   7704.24    7.742320e-04
   7704.53    7.849566e-04
   7704.82    7.956812e-04
   7705.11    8.067972e-04
   7705.40    8.185394e-04
   7705.69    8.302817e-04
   7705.98    8.420239e-04
   7706.27    8.548439e-04
   7706.56    8.677538e-04
   7706.84    8.806636e-04
   7707.13    8.941958e-04
   7707.42    9.084541e-04
   7707.71    9.227124e-04
   7708.00    9.369707e-04
   7708.29    9.527976e-04
   7708.58    9.686246e-04
   7708.87    9.844515e-04
   7709.16    1.001269e-03
   7709.44    1.018936e-03
   7709.73    1.036602e-03
   7710.02    1.054436e-03
   7710.31    1.074280e-03
   7710.60    1.094123e-03
   7710.89    1.113967e-03
   7711.18    1.135412e-03
   7711.47    1.157858e-03
   7711.76    1.180303e-03
   7712.04    1.203234e-03
   7712.33    1.228827e-03
   7712.62    1.254420e-03
   7712.91    1.280013e-03
   7713.20    1.308276e-03
   7713.49    1.337726e-03
   7713.78    1.367176e-03
   7714.07    1.397734e-03
   7714.36    1.431985e-03
   7714.64    1.466235e-03
   7714.93    1.500486e-03
   7715.22    1.539416e-03
   7715.51    1.579751e-03
   7715.80    1.620086e-03
   7716.09    1.662846e-03
   7716.38    1.711064e-03
   7716.67    1.759281e-03
   7716.96    1.807499e-03
   7717.24    1.864594e-03
   7717.53    1.923303e-03
   7717.82    1.982012e-03
   7718.11    2.046278e-03
   7718.40    2.119436e-03
   7718.69    2.192594e-03
   7718.98    2.265752e-03
   7719.27    2.358125e-03
   7719.56    2.452099e-03
   7719.84    2.546073e-03
   7720.13    2.654786e-03
   7720.42    2.780693e-03
   7720.71    2.906600e-03
   7721.00    3.032508e-03
   7721.29    3.212254e-03
   7721.58    3.392000e-03
   7721.87    3.571747e-03
   7722.16    3.808755e-03
   7722.44    4.094845e-03
   7722.73    4.380934e-03
   7723.02    4.688868e-03
   7723.31    5.258931e-03
   7723.60    5.828993e-03
   7723.89    6.399055e-03
   7724.18    7.632983e-03
   7724.47    9.281826e-03
   7724.76    1.093067e-02
   7725.04    1.270515e-02
   7725.33    1.509913e-02
   7725.62    1.722312e-02
   7725.91    1.912372e-02
   7726.20    2.100896e-02
   7726.49    2.305999e-02
   7726.78    2.536263e-02
   7727.07    2.807188e-02
   7727.36    3.123383e-02
   7727.64    3.495448e-02
   7727.93    3.930556e-02
   7728.22    4.431968e-02
   7728.51    5.013478e-02
   7728.80    5.665998e-02
   7729.09    6.398566e-02
   7729.38    7.175699e-02
   7729.67    7.961979e-02
   7729.96    8.704884e-02
   7730.24    9.348165e-02
   7730.53    9.829820e-02
   7730.82    1.013704e-01
   7731.11    1.027999e-01
   7731.40    1.028649e-01
   7731.69    1.019337e-01
   7731.98    1.003665e-01
   7732.27    9.845533e-02
   7732.56    9.644269e-02
   7732.84    9.449447e-02
   7733.13    9.272097e-02
   7733.42    9.120311e-02
   7733.71    8.999355e-02
   7734.00    8.911890e-02
   7734.29    8.862213e-02
   7734.58    8.844504e-02
   7734.87    8.855651e-02
   7735.16    8.891498e-02
   7735.44    8.947055e-02
   7735.73    9.016701e-02
   7736.02    9.094566e-02
   7736.31    9.173655e-02
   7736.60    9.248163e-02
   7736.89    9.313600e-02
   7737.18    9.366809e-02
   7737.47    9.406223e-02
   7737.76    9.431737e-02
   7738.04    9.444300e-02
   7738.33    9.448322e-02
   7738.62    9.447402e-02
   7738.91    9.445258e-02
   7739.20    9.445362e-02
   7739.49    9.450676e-02
   7739.78    9.464279e-02
   7740.07    9.490517e-02
   7740.36    9.533715e-02
   7740.64    9.576913e-02
   7740.93    9.620112e-02
   7741.22    9.686870e-02
   7741.51    9.760697e-02
   7741.80    9.834524e-02
   7742.09    9.912158e-02
   7742.38    9.998360e-02
   7742.67    1.008456e-01
   7742.96    1.017076e-01
   7743.24    1.024454e-01
   7743.53    1.031606e-01
   7743.82    1.038758e-01
   7744.11    1.044327e-01
   7744.40    1.047363e-01
   7744.69    1.050400e-01
   7744.98    1.053436e-01
   7745.27    1.051452e-01
   7745.56    1.049049e-01
   7745.84    1.046647e-01
   7746.13    1.042081e-01
   7746.42    1.034991e-01
   7746.71    1.027900e-01
   7747.00    1.020810e-01
   7747.29    1.011187e-01
   7747.58    1.001564e-01
   7747.87    9.919407e-02
   7748.16    9.821064e-02
   7748.44    9.720911e-02
   7748.73    9.620757e-02
   7749.02    9.521294e-02
   7749.31    9.430118e-02
   7749.60    9.338941e-02
   7749.89    9.247764e-02
   7750.18    9.164883e-02
   7750.47    9.087188e-02
   7750.76    9.009492e-02
   7751.04    8.933829e-02
   7751.33    8.869343e-02
   7751.62    8.804857e-02
   7751.91    8.740371e-02
   7752.20    8.683623e-02
   7752.49    8.630313e-02
   7752.78    8.577004e-02
   7753.07    8.525735e-02
   7753.36    8.481267e-02
   7753.64    8.436800e-02
   7753.93    8.392333e-02
   7754.22    8.352976e-02
   7754.51    8.315153e-02
   7754.80    8.277330e-02
   7755.09    8.240937e-02
   7755.38    8.207760e-02
   7755.67    8.174584e-02
   7755.96    8.141408e-02
   7756.24    8.110813e-02
   7756.53    8.080688e-02
   7756.82    8.050562e-02
   7757.11    8.021412e-02
   7757.40    7.993823e-02
   7757.69    7.966234e-02
   7757.98    7.938645e-02
   7758.27    7.914233e-02
   7758.56    7.890086e-02
   7758.84    7.865939e-02
   7759.13    7.844072e-02
   7759.42    7.824866e-02
   7759.71    7.805660e-02
   7760.00    7.786453e-02
