 FDMNES
  energy    <xanes>
   7695.00    5.367061e-04
   7695.29    5.424886e-04
   7695.58    5.482711e-04
   7695.87    5.540537e-04
   7696.16    5.600571e-04
   7696.44    5.662500e-04
   7696.73    5.724429e-04
   7697.02    5.786708e-04
   7697.31    5.853183e-04
   7697.60    5.919659e-04
   7697.89    5.986134e-04
   7698.18    6.055720e-04
   7698.47    6.127249e-04
   7698.76    6.198779e-04
   7699.04    6.271176e-04
   7699.33    6.348346e-04
   7699.62    6.425515e-04
   7699.91    6.502685e-04
   7700.20    6.584229e-04
   7700.49    6.667718e-04
   7700.78    6.751206e-04
   7701.07    6.836335e-04
   7701.36    6.926934e-04
   7701.64    7.017532e-04
   7701.93    7.108130e-04
   7702.22    7.204911e-04
   7702.51    7.303547e-04
   7702.80    7.402183e-04
   7703.09    7.503628e-04
   7703.38    7.611396e-04
   7703.67    7.719164e-04
   7703.96    7.826932e-04
   7704.24    7.943528e-04
   7704.53    8.061729e-04
   7704.82    8.179930e-04
   7705.11    8.302743e-04
   7705.40    8.432935e-04
   7705.69    8.563128e-04
   7705.98    8.693320e-04
   7706.27    8.836318e-04
   7706.56    8.980383e-04
   7706.84    9.124449e-04
   7707.13    9.275976e-04
   7707.42    9.436208e-04
   7707.71    9.596440e-04
   7708.00    9.756673e-04
   7708.29    9.935897e-04
   7708.58    1.011512e-03
   7708.87    1.029435e-03
   7709.16    1.048569e-03
   7709.44    1.068743e-03
   7709.73    1.088916e-03
   7710.02    1.109297e-03
   7710.31    1.132166e-03
   7710.60    1.155035e-03
   7710.89    1.177904e-03
   7711.18    1.202781e-03
   7711.47    1.228913e-03
   7711.76    1.255046e-03
   7712.04    1.281794e-03
   7712.33    1.311929e-03
   7712.62    1.342064e-03
   7712.91    1.372200e-03
   7713.20    1.405785e-03
   7713.49    1.440904e-03
   7713.78    1.476023e-03
   7714.07    1.512598e-03
   7714.36    1.554029e-03
   7714.64    1.595459e-03
   7714.93    1.636890e-03
   7715.22    1.684596e-03
   7715.51    1.734185e-03
   7715.80    1.783774e-03
   7716.09    1.836687e-03
   7716.38    1.897082e-03
   7716.67    1.957476e-03
   7716.96    2.017871e-03
   7717.24    2.090741e-03
   7717.53    2.165880e-03
   7717.82    2.241019e-03
   7718.11    2.324191e-03
   7718.40    2.420216e-03
   7718.69    2.516241e-03
   7718.98    2.612266e-03
   7719.27    2.736960e-03
   7719.56    2.864044e-03
   7719.84    2.991127e-03
   7720.13    3.140982e-03
   7720.42    3.317402e-03
   7720.71    3.493822e-03
   7721.00    3.670243e-03
   7721.29    3.932908e-03
   7721.58    4.195573e-03
   7721.87    4.458239e-03
   7722.16    4.815482e-03
   7722.44    5.253793e-03
   7722.73    5.692104e-03
   7723.02    6.166719e-03
   7723.31    7.076986e-03
   7723.60    7.987254e-03
   7723.89    8.897522e-03
   7724.18    1.091013e-02
   7724.47    1.361171e-02
   7724.76    1.631328e-02
   7725.04    1.927453e-02
   7725.33    2.372119e-02
   7725.62    2.827559e-02
   7725.91    3.303864e-02
   7726.20    3.815710e-02
   7726.49    4.379890e-02
   7726.78    4.978882e-02
   7727.07    5.594866e-02
   7727.36    6.199567e-02
   7727.64    6.771693e-02
   7727.93    7.310095e-02
   7728.22    7.834188e-02
   7728.51    8.367871e-02
   7728.80    8.920115e-02
   7729.09    9.476312e-02
   7729.38    9.995107e-02
   7729.67    1.040490e-01
   7729.96    1.066565e-01
   7730.24    1.075399e-01
   7730.53    1.067645e-01
   7730.82    1.049108e-01
   7731.11    1.024624e-01
   7731.40    9.978238e-02
   7731.69    9.712443e-02
   7731.98    9.466438e-02
   7732.27    9.254538e-02
   7732.56    9.084980e-02
   7732.84    8.957370e-02
   7733.13    8.871369e-02
   7733.42    8.825274e-02
   7733.71    8.816292e-02
   7734.00    8.840611e-02
   7734.29    8.896143e-02
   7734.58    8.973089e-02
   7734.87    9.064752e-02
   7735.16    9.163920e-02
   7735.44    9.263197e-02
   7735.73    9.355410e-02
   7736.02    9.432757e-02
   7736.31    9.489546e-02
   7736.60    9.523166e-02
   7736.89    9.532141e-02
   7737.18    9.516930e-02
   7737.47    9.479776e-02
   7737.76    9.424134e-02
   7738.04    9.354149e-02
   7738.33    9.276702e-02
   7738.62    9.196738e-02
   7738.91    9.118721e-02
   7739.20    9.046436e-02
   7739.49    8.982887e-02
   7739.78    8.931326e-02
   7740.07    8.896877e-02
   7740.36    8.885204e-02
   7740.64    8.873530e-02
   7740.93    8.861856e-02
   7741.22    8.885138e-02
   7741.51    8.918906e-02
   7741.80    8.952675e-02
   7742.09    8.996219e-02
   7742.38    9.061758e-02
   7742.67    9.127297e-02
   7742.96    9.192837e-02
   7743.24    9.265570e-02
   7743.53    9.339611e-02
   7743.82    9.413652e-02
   7744.11    9.480767e-02
   7744.40    9.536800e-02
   7744.69    9.592833e-02
   7744.98    9.648866e-02
   7745.27    9.671221e-02
   7745.56    9.690770e-02
   7745.84    9.710319e-02
   7746.13    9.712196e-02
   7746.42    9.693457e-02
   7746.71    9.674717e-02
   7747.00    9.655977e-02
   7747.29    9.609682e-02
   7747.58    9.563387e-02
   7747.87    9.517093e-02
   7748.16    9.462819e-02
   7748.44    9.401706e-02
   7748.73    9.340593e-02
   7749.02    9.279037e-02
   7749.31    9.212169e-02
   7749.60    9.145300e-02
   7749.89    9.078431e-02
   7750.18    9.011220e-02
   7750.47    8.943793e-02
   7750.76    8.876367e-02
   7751.04    8.809267e-02
   7751.33    8.743958e-02
   7751.62    8.678650e-02
   7751.91    8.613341e-02
   7752.20    8.550422e-02
   7752.49    8.488566e-02
   7752.78    8.426709e-02
   7753.07    8.365779e-02
   7753.36    8.307935e-02
   7753.64    8.250091e-02
   7753.93    8.192247e-02
   7754.22    8.137478e-02
   7754.51    8.083631e-02
   7754.80    8.029784e-02
   7755.09    7.977051e-02
   7755.38    7.926822e-02
   7755.67    7.876593e-02
   7755.96    7.826364e-02
   7756.24    7.778904e-02
   7756.53    7.731947e-02
   7756.82    7.684989e-02
   7757.11    7.639392e-02
   7757.40    7.595971e-02
   7757.69    7.552550e-02
   7757.98    7.509129e-02
   7758.27    7.470340e-02
   7758.56    7.431937e-02
   7758.84    7.393535e-02
   7759.13    7.358695e-02
   7759.42    7.328012e-02
   7759.71    7.297330e-02
   7760.00    7.266647e-02
