 FDMNES
  energy    <xanes>
   7695.00    5.426382e-04
   7695.29    5.484425e-04
   7695.58    5.542467e-04
   7695.87    5.600510e-04
   7696.16    5.660750e-04
   7696.44    5.722875e-04
   7696.73    5.785000e-04
   7697.02    5.847472e-04
   7697.31    5.914114e-04
   7697.60    5.980756e-04
   7697.89    6.047398e-04
   7698.18    6.117127e-04
   7698.47    6.188784e-04
   7698.76    6.260441e-04
   7699.04    6.332959e-04
   7699.33    6.410204e-04
   7699.62    6.487450e-04
   7699.91    6.564696e-04
   7700.20    6.646269e-04
   7700.49    6.729766e-04
   7700.78    6.813262e-04
   7701.07    6.898379e-04
   7701.36    6.988897e-04
   7701.64    7.079415e-04
   7701.93    7.169933e-04
   7702.22    7.266544e-04
   7702.51    7.364983e-04
   7702.80    7.463423e-04
   7703.09    7.564625e-04
   7703.38    7.672045e-04
   7703.67    7.779465e-04
   7703.96    7.886886e-04
   7704.24    8.002966e-04
   7704.53    8.120621e-04
   7704.82    8.238276e-04
   7705.11    8.360443e-04
   7705.40    8.489829e-04
   7705.69    8.619215e-04
   7705.98    8.748601e-04
   7706.27    8.890476e-04
   7706.56    9.033392e-04
   7706.84    9.176308e-04
   7707.13    9.326475e-04
   7707.42    9.485103e-04
   7707.71    9.643731e-04
   7708.00    9.802359e-04
   7708.29    9.979371e-04
   7708.58    1.015638e-03
   7708.87    1.033340e-03
   7709.16    1.052209e-03
   7709.44    1.072079e-03
   7709.73    1.091950e-03
   7710.02    1.112019e-03
   7710.31    1.134473e-03
   7710.60    1.156927e-03
   7710.89    1.179381e-03
   7711.18    1.203750e-03
   7711.47    1.229314e-03
   7711.76    1.254878e-03
   7712.04    1.281025e-03
   7712.33    1.310378e-03
   7712.62    1.339731e-03
   7712.91    1.369084e-03
   7713.20    1.401676e-03
   7713.49    1.435708e-03
   7713.78    1.469740e-03
   7714.07    1.505127e-03
   7714.36    1.545030e-03
   7714.64    1.584934e-03
   7714.93    1.624838e-03
   7715.22    1.670516e-03
   7715.51    1.717927e-03
   7715.80    1.765338e-03
   7716.09    1.815770e-03
   7716.38    1.872997e-03
   7716.67    1.930225e-03
   7716.96    1.987452e-03
   7717.24    2.055842e-03
   7717.53    2.126262e-03
   7717.82    2.196681e-03
   7718.11    2.274159e-03
   7718.40    2.362929e-03
   7718.69    2.451699e-03
   7718.98    2.540469e-03
   7719.27    2.653886e-03
   7719.56    2.769356e-03
   7719.84    2.884827e-03
   7720.13    3.019370e-03
   7720.42    3.176166e-03
   7720.71    3.332962e-03
   7721.00    3.489759e-03
   7721.29    3.716627e-03
   7721.58    3.943495e-03
   7721.87    4.170363e-03
   7722.16    4.471538e-03
   7722.44    4.836406e-03
   7722.73    5.201274e-03
   7723.02    5.593837e-03
   7723.31    6.318737e-03
   7723.60    7.043637e-03
   7723.89    7.768538e-03
   7724.18    9.316817e-03
   7724.47    1.137971e-02
   7724.76    1.344260e-02
   7725.04    1.568527e-02
   7725.33    1.891051e-02
   7725.62    2.205235e-02
   7725.91    2.516156e-02
   7726.20    2.841293e-02
   7726.49    3.202020e-02
   7726.78    3.601783e-02
   7727.07    4.054561e-02
   7727.36    4.558399e-02
   7727.64    5.116654e-02
   7727.93    5.727061e-02
   7728.22    6.381351e-02
   7728.51    7.073948e-02
   7728.80    7.787433e-02
   7729.09    8.511130e-02
   7729.38    9.233208e-02
   7729.67    9.945740e-02
   7729.96    1.063966e-01
   7730.24    1.129225e-01
   7730.53    1.185304e-01
   7730.82    1.227454e-01
   7731.11    1.251778e-01
   7731.40    1.256669e-01
   7731.69    1.243713e-01
   7731.98    1.217174e-01
   7732.27    1.182465e-01
   7732.56    1.145479e-01
   7732.84    1.110433e-01
   7733.13    1.079647e-01
   7733.42    1.054256e-01
   7733.71    1.034548e-01
   7734.00    1.020264e-01
   7734.29    1.011294e-01
   7734.58    1.006197e-01
   7734.87    1.004095e-01
   7735.16    1.004097e-01
   7735.44    1.005339e-01
   7735.73    1.007016e-01
   7736.02    1.008353e-01
   7736.31    1.008706e-01
   7736.60    1.007701e-01
   7736.89    1.005118e-01
   7737.18    1.000899e-01
   7737.47    9.951394e-02
   7737.76    9.880334e-02
   7738.04    9.798271e-02
   7738.33    9.709833e-02
   7738.62    9.618259e-02
   7738.91    9.526449e-02
   7739.20    9.436812e-02
   7739.49    9.351189e-02
   7739.78    9.271375e-02
   7740.07    9.200131e-02
   7740.36    9.140597e-02
   7740.64    9.081063e-02
   7740.93    9.021530e-02
   7741.22    8.982493e-02
   7741.51    8.949607e-02
   7741.80    8.916720e-02
   7742.09    8.891976e-02
   7742.38    8.885556e-02
   7742.67    8.879135e-02
   7742.96    8.872715e-02
   7743.24    8.884310e-02
   7743.53    8.899181e-02
   7743.82    8.914052e-02
   7744.11    8.932350e-02
   7744.40    8.956130e-02
   7744.69    8.979909e-02
   7744.98    9.003689e-02
   7745.27    9.019994e-02
   7745.56    9.035675e-02
   7745.84    9.051356e-02
   7746.13    9.056959e-02
   7746.42    9.050803e-02
   7746.71    9.044646e-02
   7747.00    9.038490e-02
   7747.29    9.007006e-02
   7747.58    8.975522e-02
   7747.87    8.944038e-02
   7748.16    8.902864e-02
   7748.44    8.853383e-02
   7748.73    8.803903e-02
   7749.02    8.753932e-02
   7749.31    8.698068e-02
   7749.60    8.642205e-02
   7749.89    8.586341e-02
   7750.18    8.532145e-02
   7750.47    8.478990e-02
   7750.76    8.425835e-02
   7751.04    8.373737e-02
   7751.33    8.327454e-02
   7751.62    8.281171e-02
   7751.91    8.234888e-02
   7752.20    8.193455e-02
   7752.49    8.154176e-02
   7752.78    8.114898e-02
   7753.07    8.076766e-02
   7753.36    8.042451e-02
   7753.64    8.008137e-02
   7753.93    7.973823e-02
   7754.22    7.941347e-02
   7754.51    7.909423e-02
   7754.80    7.877499e-02
   7755.09    7.845723e-02
   7755.38    7.814278e-02
   7755.67    7.782834e-02
   7755.96    7.751389e-02
   7756.24    7.719888e-02
   7756.53    7.688377e-02
   7756.82    7.656865e-02
   7757.11    7.625706e-02
   7757.40    7.595109e-02
   7757.69    7.564512e-02
   7757.98    7.533915e-02
   7758.27    7.506176e-02
   7758.56    7.478676e-02
   7758.84    7.451176e-02
   7759.13    7.426290e-02
   7759.42    7.404453e-02
   7759.71    7.382617e-02
   7760.00    7.360781e-02
