 FDMNES
  energy    <xanes>
   7695.00    5.393367e-04
   7695.29    5.447456e-04
   7695.58    5.501544e-04
   7695.87    5.555633e-04
   7696.16    5.611661e-04
   7696.44    5.669351e-04
   7696.73    5.727041e-04
   7697.02    5.785037e-04
   7697.31    5.846696e-04
   7697.60    5.908355e-04
   7697.89    5.970014e-04
   7698.18    6.034372e-04
   7698.47    6.100418e-04
   7698.76    6.166464e-04
   7699.04    6.233258e-04
   7699.33    6.304170e-04
   7699.62    6.375082e-04
   7699.91    6.445994e-04
   7700.20    6.520656e-04
   7700.49    6.596985e-04
   7700.78    6.673314e-04
   7701.07    6.751040e-04
   7701.36    6.833423e-04
   7701.64    6.915807e-04
   7701.93    6.998191e-04
   7702.22    7.085802e-04
   7702.51    7.174982e-04
   7702.80    7.264162e-04
   7703.09    7.355700e-04
   7703.38    7.452544e-04
   7703.67    7.549388e-04
   7703.96    7.646232e-04
   7704.24    7.750426e-04
   7704.53    7.855957e-04
   7704.82    7.961487e-04
   7705.11    8.070825e-04
   7705.40    8.186254e-04
   7705.69    8.301684e-04
   7705.98    8.417113e-04
   7706.27    8.543019e-04
   7706.56    8.669797e-04
   7706.84    8.796576e-04
   7707.13    8.929399e-04
   7707.42    9.069276e-04
   7707.71    9.209153e-04
   7708.00    9.349030e-04
   7708.29    9.504134e-04
   7708.58    9.659239e-04
   7708.87    9.814344e-04
   7709.16    9.979060e-04
   7709.44    1.015201e-03
   7709.73    1.032497e-03
   7710.02    1.049955e-03
   7710.31    1.069362e-03
   7710.60    1.088769e-03
   7710.89    1.108176e-03
   7711.18    1.129136e-03
   7711.47    1.151067e-03
   7711.76    1.172998e-03
   7712.04    1.195399e-03
   7712.33    1.220383e-03
   7712.62    1.245367e-03
   7712.91    1.270350e-03
   7713.20    1.297926e-03
   7713.49    1.326653e-03
   7713.78    1.355381e-03
   7714.07    1.385185e-03
   7714.36    1.418576e-03
   7714.64    1.451968e-03
   7714.93    1.485359e-03
   7715.22    1.523307e-03
   7715.51    1.562621e-03
   7715.80    1.601935e-03
   7716.09    1.643617e-03
   7716.38    1.690627e-03
   7716.67    1.737636e-03
   7716.96    1.784645e-03
   7717.24    1.840357e-03
   7717.53    1.897651e-03
   7717.82    1.954946e-03
   7718.11    2.017722e-03
   7718.40    2.089269e-03
   7718.69    2.160815e-03
   7718.98    2.232362e-03
   7719.27    2.323034e-03
   7719.56    2.415299e-03
   7719.84    2.507564e-03
   7720.13    2.614686e-03
   7720.42    2.739142e-03
   7720.71    2.863598e-03
   7721.00    2.988054e-03
   7721.29    3.167764e-03
   7721.58    3.347473e-03
   7721.87    3.527182e-03
   7722.16    3.767058e-03
   7722.44    4.058505e-03
   7722.73    4.349952e-03
   7723.02    4.664943e-03
   7723.31    5.262450e-03
   7723.60    5.859958e-03
   7723.89    6.457466e-03
   7724.18    7.789473e-03
   7724.47    9.580543e-03
   7724.76    1.137161e-02
   7725.04    1.331508e-02
   7725.33    1.605148e-02
   7725.62    1.857250e-02
   7725.91    2.086716e-02
   7726.20    2.308860e-02
   7726.49    2.533653e-02
   7726.78    2.767113e-02
   7727.07    3.017018e-02
   7727.36    3.287692e-02
   7727.64    3.587186e-02
   7727.93    3.921934e-02
   7728.22    4.295002e-02
   7728.51    4.713363e-02
   7728.80    5.169531e-02
   7729.09    5.665847e-02
   7729.38    6.184397e-02
   7729.67    6.710955e-02
   7729.96    7.224566e-02
   7730.24    7.703252e-02
   7730.53    8.119623e-02
   7730.82    8.459983e-02
   7731.11    8.716847e-02
   7731.40    8.890507e-02
   7731.69    8.989725e-02
   7731.98    9.029424e-02
   7732.27    9.025921e-02
   7732.56    8.997636e-02
   7732.84    8.959900e-02
   7733.13    8.921680e-02
   7733.42    8.888795e-02
   7733.71    8.864798e-02
   7734.00    8.851783e-02
   7734.29    8.852470e-02
   7734.58    8.866007e-02
   7734.87    8.892470e-02
   7735.16    8.931515e-02
   7735.44    8.982352e-02
   7735.73    9.043717e-02
   7736.02    9.114343e-02
   7736.31    9.191647e-02
   7736.60    9.272841e-02
   7736.89    9.355470e-02
   7737.18    9.437025e-02
   7737.47    9.515070e-02
   7737.76    9.587349e-02
   7738.04    9.651557e-02
   7738.33    9.707624e-02
   7738.62    9.755567e-02
   7738.91    9.796009e-02
   7739.20    9.830029e-02
   7739.49    9.858994e-02
   7739.78    9.884208e-02
   7740.07    9.907725e-02
   7740.36    9.931458e-02
   7740.64    9.955192e-02
   7740.93    9.978926e-02
   7741.22    1.000844e-01
   7741.51    1.003970e-01
   7741.80    1.007095e-01
   7742.09    1.010473e-01
   7742.38    1.014417e-01
   7742.67    1.018362e-01
   7742.96    1.022307e-01
   7743.24    1.026252e-01
   7743.53    1.030198e-01
   7743.82    1.034144e-01
   7744.11    1.037564e-01
   7744.40    1.040146e-01
   7744.69    1.042727e-01
   7744.98    1.045308e-01
   7745.27    1.045389e-01
   7745.56    1.045262e-01
   7745.84    1.045136e-01
   7746.13    1.043486e-01
   7746.42    1.040061e-01
   7746.71    1.036636e-01
   7747.00    1.033211e-01
   7747.29    1.027016e-01
   7747.58    1.020821e-01
   7747.87    1.014626e-01
   7748.16    1.007620e-01
   7748.44    9.999199e-02
   7748.73    9.922194e-02
   7749.02    9.844998e-02
   7749.31    9.765508e-02
   7749.60    9.686017e-02
   7749.89    9.606527e-02
   7750.18    9.530452e-02
   7750.47    9.456510e-02
   7750.76    9.382568e-02
   7751.04    9.309994e-02
   7751.33    9.244941e-02
   7751.62    9.179888e-02
   7751.91    9.114835e-02
   7752.20    9.056184e-02
   7752.49    9.000379e-02
   7752.78    8.944573e-02
   7753.07    8.890656e-02
   7753.36    8.843033e-02
   7753.64    8.795410e-02
   7753.93    8.747787e-02
   7754.22    8.705199e-02
   7754.51    8.664122e-02
   7754.80    8.623045e-02
   7755.09    8.583425e-02
   7755.38    8.547084e-02
   7755.67    8.510742e-02
   7755.96    8.474401e-02
   7756.24    8.440642e-02
   7756.53    8.407352e-02
   7756.82    8.374063e-02
   7757.11    8.341550e-02
   7757.40    8.310278e-02
   7757.69    8.279007e-02
   7757.98    8.247735e-02
   7758.27    8.218748e-02
   7758.56    8.189950e-02
   7758.84    8.161153e-02
   7759.13    8.134604e-02
   7759.42    8.110677e-02
   7759.71    8.086751e-02
   7760.00    8.062825e-02
