 FDMNES
  energy    <xanes>
   7695.00    5.220891e-04
   7695.29    5.276834e-04
   7695.58    5.332778e-04
   7695.87    5.388722e-04
   7696.16    5.446776e-04
   7696.44    5.506640e-04
   7696.73    5.566504e-04
   7697.02    5.626701e-04
   7697.31    5.690901e-04
   7697.60    5.755101e-04
   7697.89    5.819300e-04
   7698.18    5.886461e-04
   7698.47    5.955472e-04
   7698.76    6.024483e-04
   7699.04    6.094319e-04
   7699.33    6.168688e-04
   7699.62    6.243058e-04
   7699.91    6.317428e-04
   7700.20    6.395944e-04
   7700.49    6.476304e-04
   7700.78    6.556664e-04
   7701.07    6.638576e-04
   7701.36    6.725660e-04
   7701.64    6.812745e-04
   7701.93    6.899829e-04
   7702.22    6.992746e-04
   7702.51    7.087413e-04
   7702.80    7.182079e-04
   7703.09    7.279389e-04
   7703.38    7.382646e-04
   7703.67    7.485903e-04
   7703.96    7.589160e-04
   7704.24    7.700696e-04
   7704.53    7.813737e-04
   7704.82    7.926778e-04
   7705.11    8.044128e-04
   7705.40    8.168375e-04
   7705.69    8.292622e-04
   7705.98    8.416869e-04
   7706.27    8.553037e-04
   7706.56    8.690199e-04
   7706.84    8.827361e-04
   7707.13    8.971441e-04
   7707.42    9.123590e-04
   7707.71    9.275739e-04
   7708.00    9.427888e-04
   7708.29    9.597560e-04
   7708.58    9.767233e-04
   7708.87    9.936905e-04
   7709.16    1.011770e-03
   7709.44    1.030803e-03
   7709.73    1.049837e-03
   7710.02    1.069059e-03
   7710.31    1.090551e-03
   7710.60    1.112043e-03
   7710.89    1.133535e-03
   7711.18    1.156848e-03
   7711.47    1.181297e-03
   7711.76    1.205747e-03
   7712.04    1.230750e-03
   7712.33    1.258799e-03
   7712.62    1.286849e-03
   7712.91    1.314898e-03
   7713.20    1.346023e-03
   7713.49    1.378515e-03
   7713.78    1.411007e-03
   7714.07    1.444785e-03
   7714.36    1.482848e-03
   7714.64    1.520911e-03
   7714.93    1.558973e-03
   7715.22    1.602511e-03
   7715.51    1.647691e-03
   7715.80    1.692872e-03
   7716.09    1.740913e-03
   7716.38    1.795394e-03
   7716.67    1.849875e-03
   7716.96    1.904355e-03
   7717.24    1.969405e-03
   7717.53    2.036377e-03
   7717.82    2.103349e-03
   7718.11    2.177000e-03
   7718.40    2.261339e-03
   7718.69    2.345677e-03
   7718.98    2.430016e-03
   7719.27    2.537670e-03
   7719.56    2.647267e-03
   7719.84    2.756864e-03
   7720.13    2.884502e-03
   7720.42    3.033185e-03
   7720.71    3.181869e-03
   7721.00    3.330552e-03
   7721.29    3.545518e-03
   7721.58    3.760483e-03
   7721.87    3.975449e-03
   7722.16    4.260765e-03
   7722.44    4.606380e-03
   7722.73    4.951996e-03
   7723.02    5.323905e-03
   7723.31    6.011334e-03
   7723.60    6.698763e-03
   7723.89    7.386192e-03
   7724.18    8.858314e-03
   7724.47    1.082087e-02
   7724.76    1.278342e-02
   7725.04    1.491582e-02
   7725.33    1.796778e-02
   7725.62    2.090306e-02
   7725.91    2.373890e-02
   7726.20    2.663597e-02
   7726.49    2.978989e-02
   7726.78    3.328903e-02
   7727.07    3.734854e-02
   7727.36    4.204573e-02
   7727.64    4.753531e-02
   7727.93    5.388680e-02
   7728.22    6.104789e-02
   7728.51    6.898407e-02
   7728.80    7.735953e-02
   7729.09    8.580838e-02
   7729.38    9.383118e-02
   7729.67    1.008001e-01
   7729.96    1.064307e-01
   7730.24    1.104428e-01
   7730.53    1.125481e-01
   7730.82    1.129303e-01
   7731.11    1.118807e-01
   7731.40    1.098099e-01
   7731.69    1.071792e-01
   7731.98    1.043981e-01
   7732.27    1.017781e-01
   7732.56    9.950921e-02
   7732.84    9.764125e-02
   7733.13    9.618755e-02
   7733.42    9.513330e-02
   7733.71    9.444755e-02
   7734.00    9.408912e-02
   7734.29    9.403565e-02
   7734.58    9.419311e-02
   7734.87    9.450152e-02
   7735.16    9.489950e-02
   7735.44    9.532693e-02
   7735.73    9.572799e-02
   7736.02    9.604648e-02
   7736.31    9.624181e-02
   7736.60    9.629588e-02
   7736.89    9.619963e-02
   7737.18    9.595672e-02
   7737.47    9.558204e-02
   7737.76    9.509824e-02
   7738.04    9.453347e-02
   7738.33    9.393268e-02
   7738.62    9.333056e-02
   7738.91    9.275986e-02
   7739.20    9.224962e-02
   7739.49    9.182384e-02
   7739.78    9.151044e-02
   7740.07    9.135403e-02
   7740.36    9.140361e-02
   7740.64    9.145319e-02
   7740.93    9.150277e-02
   7741.22    9.185197e-02
   7741.51    9.229106e-02
   7741.80    9.273014e-02
   7742.09    9.324042e-02
   7742.38    9.391089e-02
   7742.67    9.458136e-02
   7742.96    9.525183e-02
   7743.24    9.591351e-02
   7743.53    9.657359e-02
   7743.82    9.723367e-02
   7744.11    9.779031e-02
   7744.40    9.818144e-02
   7744.69    9.857257e-02
   7744.98    9.896370e-02
   7745.27    9.895004e-02
   7745.56    9.890265e-02
   7745.84    9.885525e-02
   7746.13    9.860820e-02
   7746.42    9.812820e-02
   7746.71    9.764820e-02
   7747.00    9.716820e-02
   7747.29    9.640707e-02
   7747.58    9.564595e-02
   7747.87    9.488483e-02
   7748.16    9.406934e-02
   7748.44    9.320725e-02
   7748.73    9.234517e-02
   7749.02    9.148480e-02
   7749.31    9.064509e-02
   7749.60    8.980538e-02
   7749.89    8.896568e-02
   7750.18    8.817288e-02
   7750.47    8.740940e-02
   7750.76    8.664592e-02
   7751.04    8.589515e-02
   7751.33    8.521429e-02
   7751.62    8.453343e-02
   7751.91    8.385257e-02
   7752.20    8.321655e-02
   7752.49    8.260047e-02
   7752.78    8.198439e-02
   7753.07    8.137789e-02
   7753.36    8.080333e-02
   7753.64    8.022877e-02
   7753.93    7.965421e-02
   7754.22    7.909887e-02
   7754.51    7.854928e-02
   7754.80    7.799970e-02
   7755.09    7.745546e-02
   7755.38    7.692322e-02
   7755.67    7.639098e-02
   7755.96    7.585875e-02
   7756.24    7.534656e-02
   7756.53    7.483802e-02
   7756.82    7.432948e-02
   7757.11    7.383818e-02
   7757.40    7.337447e-02
   7757.69    7.291076e-02
   7757.98    7.244705e-02
   7758.27    7.205035e-02
   7758.56    7.165924e-02
   7758.84    7.126812e-02
   7759.13    7.092051e-02
   7759.42    7.062366e-02
   7759.71    7.032681e-02
   7760.00    7.002996e-02
