 FDMNES
  energy    <xanes>
   7695.00    5.301220e-04
   7695.29    5.358527e-04
   7695.58    5.415834e-04
   7695.87    5.473141e-04
   7696.16    5.532622e-04
   7696.44    5.593967e-04
   7696.73    5.655311e-04
   7697.02    5.717000e-04
   7697.31    5.782812e-04
   7697.60    5.848624e-04
   7697.89    5.914437e-04
   7698.18    5.983301e-04
   7698.47    6.054072e-04
   7698.76    6.124844e-04
   7699.04    6.196466e-04
   7699.33    6.272762e-04
   7699.62    6.349059e-04
   7699.91    6.425356e-04
   7700.20    6.505930e-04
   7700.49    6.588406e-04
   7700.78    6.670881e-04
   7701.07    6.754958e-04
   7701.36    6.844373e-04
   7701.64    6.933787e-04
   7701.93    7.023202e-04
   7702.22    7.118637e-04
   7702.51    7.215879e-04
   7702.80    7.313121e-04
   7703.09    7.413092e-04
   7703.38    7.519206e-04
   7703.67    7.625319e-04
   7703.96    7.731433e-04
   7704.24    7.846100e-04
   7704.53    7.962322e-04
   7704.82    8.078544e-04
   7705.11    8.199221e-04
   7705.40    8.327027e-04
   7705.69    8.454833e-04
   7705.98    8.582639e-04
   7706.27    8.722775e-04
   7706.56    8.863938e-04
   7706.84    9.005101e-04
   7707.13    9.153423e-04
   7707.42    9.310095e-04
   7707.71    9.466767e-04
   7708.00    9.623439e-04
   7708.29    9.798255e-04
   7708.58    9.973071e-04
   7708.87    1.014789e-03
   7709.16    1.033423e-03
   7709.44    1.053045e-03
   7709.73    1.072667e-03
   7710.02    1.092486e-03
   7710.31    1.114658e-03
   7710.60    1.136830e-03
   7710.89    1.159001e-03
   7711.18    1.183062e-03
   7711.47    1.208303e-03
   7711.76    1.233544e-03
   7712.04    1.259360e-03
   7712.33    1.288341e-03
   7712.62    1.317322e-03
   7712.91    1.346302e-03
   7713.20    1.378482e-03
   7713.49    1.412083e-03
   7713.78    1.445684e-03
   7714.07    1.480624e-03
   7714.36    1.520027e-03
   7714.64    1.559430e-03
   7714.93    1.598833e-03
   7715.22    1.643949e-03
   7715.51    1.690777e-03
   7715.80    1.737606e-03
   7716.09    1.787427e-03
   7716.38    1.843979e-03
   7716.67    1.900532e-03
   7716.96    1.957085e-03
   7717.24    2.024719e-03
   7717.53    2.094367e-03
   7717.82    2.164016e-03
   7718.11    2.240693e-03
   7718.40    2.328613e-03
   7718.69    2.416534e-03
   7718.98    2.504455e-03
   7719.27    2.617021e-03
   7719.56    2.731640e-03
   7719.84    2.846260e-03
   7720.13    2.980065e-03
   7720.42    3.136253e-03
   7720.71    3.292441e-03
   7721.00    3.448629e-03
   7721.29    3.675868e-03
   7721.58    3.903107e-03
   7721.87    4.130347e-03
   7722.16    4.433723e-03
   7722.44    4.802359e-03
   7722.73    5.170996e-03
   7723.02    5.568336e-03
   7723.31    6.310123e-03
   7723.60    7.051910e-03
   7723.89    7.793697e-03
   7724.18    9.398025e-03
   7724.47    1.154144e-02
   7724.76    1.368486e-02
   7725.04    1.602225e-02
   7725.33    1.943821e-02
   7725.62    2.282294e-02
   7725.91    2.621723e-02
   7726.20    2.975630e-02
   7726.49    3.358475e-02
   7726.78    3.767489e-02
   7727.07    4.204450e-02
   7727.36    4.663087e-02
   7727.64    5.146743e-02
   7727.93    5.667930e-02
   7728.22    6.245080e-02
   7728.51    6.905061e-02
   7728.80    7.639205e-02
   7729.09    8.432600e-02
   7729.38    9.216416e-02
   7729.67    9.900114e-02
   7729.96    1.042468e-01
   7730.24    1.075755e-01
   7730.53    1.090465e-01
   7730.82    1.093109e-01
   7731.11    1.088799e-01
   7731.40    1.080879e-01
   7731.69    1.071164e-01
   7731.98    1.060443e-01
   7732.27    1.049011e-01
   7732.56    1.037159e-01
   7732.84    1.025355e-01
   7733.13    1.014185e-01
   7733.42    1.004313e-01
   7733.71    9.963805e-02
   7734.00    9.909083e-02
   7734.29    9.885942e-02
   7734.58    9.892229e-02
   7734.87    9.926859e-02
   7735.16    9.986927e-02
   7735.44    1.006792e-01
   7735.73    1.016399e-01
   7736.02    1.026830e-01
   7736.31    1.037216e-01
   7736.60    1.046780e-01
   7736.89    1.054845e-01
   7737.18    1.060845e-01
   7737.47    1.064373e-01
   7737.76    1.065152e-01
   7738.04    1.062931e-01
   7738.33    1.058179e-01
   7738.62    1.051232e-01
   7738.91    1.042530e-01
   7739.20    1.032570e-01
   7739.49    1.021853e-01
   7739.78    1.010852e-01
   7740.07    1.000271e-01
   7740.36    9.908047e-02
   7740.64    9.813380e-02
   7740.93    9.718713e-02
   7741.22    9.653326e-02
   7741.51    9.596724e-02
   7741.80    9.540122e-02
   7742.09    9.494696e-02
   7742.38    9.474417e-02
   7742.67    9.454138e-02
   7742.96    9.433859e-02
   7743.24    9.431529e-02
   7743.53    9.432463e-02
   7743.82    9.433396e-02
   7744.11    9.435027e-02
   7744.40    9.437773e-02
   7744.69    9.440519e-02
   7744.98    9.443265e-02
   7745.27    9.431804e-02
   7745.56    9.419160e-02
   7745.84    9.406516e-02
   7746.13    9.383167e-02
   7746.42    9.347329e-02
   7746.71    9.311491e-02
   7747.00    9.275653e-02
   7747.29    9.220944e-02
   7747.58    9.166235e-02
   7747.87    9.111526e-02
   7748.16    9.053142e-02
   7748.44    8.991608e-02
   7748.73    8.930073e-02
   7749.02    8.868863e-02
   7749.31    8.811547e-02
   7749.60    8.754232e-02
   7749.89    8.696916e-02
   7750.18    8.645225e-02
   7750.47    8.597050e-02
   7750.76    8.548875e-02
   7751.04    8.502005e-02
   7751.33    8.462318e-02
   7751.62    8.422631e-02
   7751.91    8.382944e-02
   7752.20    8.346604e-02
   7752.49    8.311751e-02
   7752.78    8.276899e-02
   7753.07    8.242103e-02
   7753.36    8.207496e-02
   7753.64    8.172888e-02
   7753.93    8.138281e-02
   7754.22    8.100636e-02
   7754.51    8.062079e-02
   7754.80    8.023522e-02
   7755.09    7.982891e-02
   7755.38    7.937591e-02
   7755.67    7.892292e-02
   7755.96    7.846992e-02
   7756.24    7.795522e-02
   7756.53    7.742931e-02
   7756.82    7.690340e-02
   7757.11    7.635839e-02
   7757.40    7.578283e-02
   7757.69    7.520728e-02
   7757.98    7.463172e-02
   7758.27    7.406188e-02
   7758.56    7.349251e-02
   7758.84    7.292315e-02
   7759.13    7.239441e-02
   7759.42    7.191308e-02
   7759.71    7.143175e-02
   7760.00    7.095041e-02
