 FDMNES
  energy    <xanes>
   7695.00    5.393391e-04
   7695.29    5.450531e-04
   7695.58    5.507670e-04
   7695.87    5.564810e-04
   7696.16    5.624091e-04
   7696.44    5.685208e-04
   7696.73    5.746326e-04
   7697.02    5.807781e-04
   7697.31    5.873296e-04
   7697.60    5.938810e-04
   7697.89    6.004325e-04
   7698.18    6.072840e-04
   7698.47    6.143232e-04
   7698.76    6.213624e-04
   7699.04    6.284851e-04
   7699.33    6.360671e-04
   7699.62    6.436492e-04
   7699.91    6.512312e-04
   7700.20    6.592332e-04
   7700.49    6.674218e-04
   7700.78    6.756104e-04
   7701.07    6.839560e-04
   7701.36    6.928251e-04
   7701.64    7.016942e-04
   7701.93    7.105633e-04
   7702.22    7.200222e-04
   7702.51    7.296581e-04
   7702.80    7.392940e-04
   7703.09    7.491970e-04
   7703.38    7.597011e-04
   7703.67    7.702052e-04
   7703.96    7.807093e-04
   7704.24    7.920494e-04
   7704.53    8.035416e-04
   7704.82    8.150337e-04
   7705.11    8.269608e-04
   7705.40    8.395837e-04
   7705.69    8.522067e-04
   7705.98    8.648296e-04
   7706.27    8.786546e-04
   7706.56    8.925798e-04
   7706.84    9.065049e-04
   7707.13    9.211269e-04
   7707.42    9.365617e-04
   7707.71    9.519966e-04
   7708.00    9.674315e-04
   7708.29    9.846298e-04
   7708.58    1.001828e-03
   7708.87    1.019026e-03
   7709.16    1.037343e-03
   7709.44    1.056618e-03
   7709.73    1.075893e-03
   7710.02    1.095358e-03
   7710.31    1.117102e-03
   7710.60    1.138847e-03
   7710.89    1.160591e-03
   7711.18    1.184160e-03
   7711.47    1.208869e-03
   7711.76    1.233579e-03
   7712.04    1.258844e-03
   7712.33    1.287158e-03
   7712.62    1.315473e-03
   7712.91    1.343788e-03
   7713.20    1.375177e-03
   7713.49    1.407934e-03
   7713.78    1.440691e-03
   7714.07    1.474731e-03
   7714.36    1.513048e-03
   7714.64    1.551366e-03
   7714.93    1.589683e-03
   7715.22    1.633457e-03
   7715.51    1.678866e-03
   7715.80    1.724276e-03
   7716.09    1.772532e-03
   7716.38    1.827192e-03
   7716.67    1.881852e-03
   7716.96    1.936512e-03
   7717.24    2.001664e-03
   7717.53    2.068724e-03
   7717.82    2.135784e-03
   7718.11    2.209461e-03
   7718.40    2.293727e-03
   7718.69    2.377993e-03
   7718.98    2.462260e-03
   7719.27    2.569588e-03
   7719.56    2.678838e-03
   7719.84    2.788088e-03
   7720.13    2.915162e-03
   7720.42    3.063030e-03
   7720.71    3.210899e-03
   7721.00    3.358767e-03
   7721.29    3.572145e-03
   7721.58    3.785522e-03
   7721.87    3.998899e-03
   7722.16    4.282033e-03
   7722.44    4.624957e-03
   7722.73    4.967882e-03
   7723.02    5.337117e-03
   7723.31    6.022076e-03
   7723.60    6.707036e-03
   7723.89    7.391995e-03
   7724.18    8.868981e-03
   7724.47    1.084098e-02
   7724.76    1.281299e-02
   7725.04    1.495108e-02
   7725.33    1.796817e-02
   7725.62    2.080657e-02
   7725.91    2.349027e-02
   7726.20    2.621261e-02
   7726.49    2.919066e-02
   7726.78    3.252422e-02
   7727.07    3.642664e-02
   7727.36    4.095782e-02
   7727.64    4.623970e-02
   7727.93    5.229028e-02
   7728.22    5.897530e-02
   7728.51    6.610000e-02
   7728.80    7.328042e-02
   7729.09    8.016390e-02
   7729.38    8.665198e-02
   7729.67    9.264341e-02
   7729.96    9.815027e-02
   7730.24    1.030382e-01
   7730.53    1.070314e-01
   7730.82    1.100138e-01
   7731.11    1.119364e-01
   7731.40    1.128314e-01
   7731.69    1.127978e-01
   7731.98    1.119804e-01
   7732.27    1.105471e-01
   7732.56    1.087381e-01
   7732.84    1.068012e-01
   7733.13    1.049165e-01
   7733.42    1.032237e-01
   7733.71    1.018186e-01
   7734.00    1.007565e-01
   7734.29    1.000987e-01
   7734.58    9.978533e-02
   7734.87    9.977642e-02
   7735.16    1.000150e-01
   7735.44    1.004330e-01
   7735.73    1.009576e-01
   7736.02    1.015150e-01
   7736.31    1.020327e-01
   7736.60    1.024616e-01
   7736.89    1.027695e-01
   7737.18    1.029398e-01
   7737.47    1.029698e-01
   7737.76    1.028659e-01
   7738.04    1.026360e-01
   7738.33    1.023132e-01
   7738.62    1.019182e-01
   7738.91    1.014706e-01
   7739.20    1.009885e-01
   7739.49    1.004875e-01
   7739.78    9.998147e-02
   7740.07    9.949084e-02
   7740.36    9.903679e-02
   7740.64    9.858274e-02
   7740.93    9.812869e-02
   7741.22    9.776961e-02
   7741.51    9.743903e-02
   7741.80    9.710845e-02
   7742.09    9.681046e-02
   7742.38    9.658582e-02
   7742.67    9.636118e-02
   7742.96    9.613654e-02
   7743.24    9.592731e-02
   7743.53    9.572088e-02
   7743.82    9.551445e-02
   7744.11    9.527419e-02
   7744.40    9.497981e-02
   7744.69    9.468542e-02
   7744.98    9.439103e-02
   7745.27    9.395316e-02
   7745.56    9.350332e-02
   7745.84    9.305349e-02
   7746.13    9.253298e-02
   7746.42    9.192999e-02
   7746.71    9.132701e-02
   7747.00    9.072403e-02
   7747.29    9.003689e-02
   7747.58    8.934976e-02
   7747.87    8.866262e-02
   7748.16    8.798316e-02
   7748.44    8.731028e-02
   7748.73    8.663739e-02
   7749.02    8.597076e-02
   7749.31    8.537911e-02
   7749.60    8.478745e-02
   7749.89    8.419580e-02
   7750.18    8.367130e-02
   7750.47    8.318876e-02
   7750.76    8.270623e-02
   7751.04    8.224048e-02
   7751.33    8.186703e-02
   7751.62    8.149358e-02
   7751.91    8.112013e-02
   7752.20    8.080843e-02
   7752.49    8.052417e-02
   7752.78    8.023991e-02
   7753.07    7.996897e-02
   7753.36    7.974244e-02
   7753.64    7.951590e-02
   7753.93    7.928936e-02
   7754.22    7.908020e-02
   7754.51    7.887625e-02
   7754.80    7.867230e-02
   7755.09    7.846570e-02
   7755.38    7.825311e-02
   7755.67    7.804052e-02
   7755.96    7.782794e-02
   7756.24    7.759065e-02
   7756.53    7.734888e-02
   7756.82    7.710711e-02
   7757.11    7.685249e-02
   7757.40    7.657734e-02
   7757.69    7.630219e-02
   7757.98    7.602703e-02
   7758.27    7.573869e-02
   7758.56    7.544924e-02
   7758.84    7.515980e-02
   7759.13    7.488493e-02
   7759.42    7.462706e-02
   7759.71    7.436919e-02
   7760.00    7.411133e-02
