 FDMNES
  energy    <xanes>
   7695.00    5.202107e-04
   7695.29    5.258423e-04
   7695.58    5.314738e-04
   7695.87    5.371055e-04
   7696.16    5.429503e-04
   7696.44    5.489779e-04
   7696.73    5.550055e-04
   7697.02    5.610668e-04
   7697.31    5.675324e-04
   7697.60    5.739980e-04
   7697.89    5.804636e-04
   7698.18    5.872283e-04
   7698.47    5.941800e-04
   7698.76    6.011317e-04
   7699.04    6.081667e-04
   7699.33    6.156597e-04
   7699.62    6.231528e-04
   7699.91    6.306458e-04
   7700.20    6.385579e-04
   7700.49    6.466562e-04
   7700.78    6.547545e-04
   7701.07    6.630096e-04
   7701.36    6.717874e-04
   7701.64    6.805651e-04
   7701.93    6.893429e-04
   7702.22    6.987101e-04
   7702.51    7.082541e-04
   7702.80    7.177981e-04
   7703.09    7.276092e-04
   7703.38    7.380214e-04
   7703.67    7.484335e-04
   7703.96    7.588457e-04
   7704.24    7.700947e-04
   7704.53    7.814958e-04
   7704.82    7.928969e-04
   7705.11    8.047338e-04
   7705.40    8.172678e-04
   7705.69    8.298018e-04
   7705.98    8.423359e-04
   7706.27    8.560755e-04
   7706.56    8.699156e-04
   7706.84    8.837556e-04
   7707.13    8.982954e-04
   7707.42    9.136516e-04
   7707.71    9.290077e-04
   7708.00    9.443638e-04
   7708.29    9.614933e-04
   7708.58    9.786228e-04
   7708.87    9.957523e-04
   7709.16    1.014008e-03
   7709.44    1.033230e-03
   7709.73    1.052451e-03
   7710.02    1.071865e-03
   7710.31    1.093578e-03
   7710.60    1.115291e-03
   7710.89    1.137005e-03
   7711.18    1.160564e-03
   7711.47    1.185278e-03
   7711.76    1.209992e-03
   7712.04    1.235268e-03
   7712.33    1.263638e-03
   7712.62    1.292009e-03
   7712.91    1.320379e-03
   7713.20    1.351880e-03
   7713.49    1.384772e-03
   7713.78    1.417664e-03
   7714.07    1.451868e-03
   7714.36    1.490444e-03
   7714.64    1.529020e-03
   7714.93    1.567596e-03
   7715.22    1.611776e-03
   7715.51    1.657638e-03
   7715.80    1.703500e-03
   7716.09    1.752305e-03
   7716.38    1.807731e-03
   7716.67    1.863157e-03
   7716.96    1.918583e-03
   7717.24    1.984945e-03
   7717.53    2.053295e-03
   7717.82    2.121645e-03
   7718.11    2.196964e-03
   7718.40    2.283433e-03
   7718.69    2.369903e-03
   7718.98    2.456372e-03
   7719.27    2.567451e-03
   7719.56    2.680581e-03
   7719.84    2.793710e-03
   7720.13    2.926187e-03
   7720.42    3.081237e-03
   7720.71    3.236286e-03
   7721.00    3.391335e-03
   7721.29    3.619071e-03
   7721.58    3.846807e-03
   7721.87    4.074543e-03
   7722.16    4.381803e-03
   7722.44    4.757227e-03
   7722.73    5.132650e-03
   7723.02    5.538941e-03
   7723.31    6.315638e-03
   7723.60    7.092335e-03
   7723.89    7.869032e-03
   7724.18    9.598413e-03
   7724.47    1.192322e-02
   7724.76    1.424803e-02
   7725.04    1.678423e-02
   7725.33    2.047328e-02
   7725.62    2.403706e-02
   7725.91    2.747569e-02
   7726.20    3.096117e-02
   7726.49    3.467201e-02
   7726.78    3.865024e-02
   7727.07    4.297049e-02
   7727.36    4.757967e-02
   7727.64    5.245966e-02
   7727.93    5.759332e-02
   7728.22    6.295282e-02
   7728.51    6.848584e-02
   7728.80    7.400335e-02
   7729.09    7.915707e-02
   7729.38    8.371366e-02
   7729.67    8.733736e-02
   7729.96    9.007632e-02
   7730.24    9.201266e-02
   7730.53    9.326084e-02
   7730.82    9.401872e-02
   7731.11    9.438622e-02
   7731.40    9.442785e-02
   7731.69    9.422553e-02
   7731.98    9.390245e-02
   7732.27    9.361999e-02
   7732.56    9.354523e-02
   7732.84    9.377153e-02
   7733.13    9.434404e-02
   7733.42    9.525970e-02
   7733.71    9.647834e-02
   7734.00    9.793637e-02
   7734.29    9.957008e-02
   7734.58    1.012783e-01
   7734.87    1.029917e-01
   7735.16    1.046466e-01
   7735.44    1.061840e-01
   7735.73    1.075487e-01
   7736.02    1.086718e-01
   7736.31    1.095089e-01
   7736.60    1.100439e-01
   7736.89    1.102657e-01
   7737.18    1.101822e-01
   7737.47    1.098200e-01
   7737.76    1.092187e-01
   7738.04    1.084237e-01
   7738.33    1.075174e-01
   7738.62    1.065577e-01
   7738.91    1.055974e-01
   7739.20    1.046818e-01
   7739.49    1.038467e-01
   7739.78    1.031285e-01
   7740.07    1.025769e-01
   7740.36    1.022416e-01
   7740.64    1.019063e-01
   7740.93    1.015710e-01
   7741.22    1.015089e-01
   7741.51    1.015288e-01
   7741.80    1.015486e-01
   7742.09    1.015942e-01
   7742.38    1.016976e-01
   7742.67    1.018011e-01
   7742.96    1.019045e-01
   7743.24    1.018352e-01
   7743.53    1.017345e-01
   7743.82    1.016339e-01
   7744.11    1.013972e-01
   7744.40    1.009430e-01
   7744.69    1.004888e-01
   7744.98    1.000346e-01
   7745.27    9.928564e-02
   7745.56    9.851218e-02
   7745.84    9.773871e-02
   7746.13    9.689026e-02
   7746.42    9.595434e-02
   7746.71    9.501841e-02
   7747.00    9.408249e-02
   7747.29    9.315648e-02
   7747.58    9.223047e-02
   7747.87    9.130446e-02
   7748.16    9.043686e-02
   7748.44    8.961931e-02
   7748.73    8.880177e-02
   7749.02    8.799468e-02
   7749.31    8.731304e-02
   7749.60    8.663140e-02
   7749.89    8.594976e-02
   7750.18    8.534393e-02
   7750.47    8.478548e-02
   7750.76    8.422703e-02
   7751.04    8.368245e-02
   7751.33    8.321416e-02
   7751.62    8.274588e-02
   7751.91    8.227759e-02
   7752.20    8.184283e-02
   7752.49    8.142298e-02
   7752.78    8.100313e-02
   7753.07    8.058467e-02
   7753.36    8.017087e-02
   7753.64    7.975706e-02
   7753.93    7.934326e-02
   7754.22    7.890685e-02
   7754.51    7.846365e-02
   7754.80    7.802045e-02
   7755.09    7.756164e-02
   7755.38    7.706770e-02
   7755.67    7.657377e-02
   7755.96    7.607984e-02
   7756.24    7.554199e-02
   7756.53    7.499615e-02
   7756.82    7.445032e-02
   7757.11    7.389360e-02
   7757.40    7.331945e-02
   7757.69    7.274531e-02
   7757.98    7.217117e-02
   7758.27    7.161799e-02
   7758.56    7.106657e-02
   7758.84    7.051515e-02
   7759.13    7.000685e-02
   7759.42    6.954888e-02
   7759.71    6.909090e-02
   7760.00    6.863293e-02
