 FDMNES
  energy    <xanes>
   7695.00    5.374079e-04
   7695.29    5.432887e-04
   7695.58    5.491695e-04
   7695.87    5.550503e-04
   7696.16    5.611579e-04
   7696.44    5.674599e-04
   7696.73    5.737620e-04
   7697.02    5.801000e-04
   7697.31    5.868688e-04
   7697.60    5.936377e-04
   7697.89    6.004066e-04
   7698.18    6.074949e-04
   7698.47    6.147829e-04
   7698.76    6.220708e-04
   7699.04    6.294479e-04
   7699.33    6.373152e-04
   7699.62    6.451825e-04
   7699.91    6.530499e-04
   7700.20    6.613666e-04
   7700.49    6.698830e-04
   7700.78    6.783995e-04
   7701.07    6.870845e-04
   7701.36    6.963313e-04
   7701.64    7.055782e-04
   7701.93    7.148251e-04
   7702.22    7.247070e-04
   7702.51    7.347795e-04
   7702.80    7.448520e-04
   7703.09    7.552131e-04
   7703.38    7.662235e-04
   7703.67    7.772339e-04
   7703.96    7.882443e-04
   7704.24    8.001610e-04
   7704.53    8.122425e-04
   7704.82    8.243240e-04
   7705.11    8.368787e-04
   7705.40    8.501907e-04
   7705.69    8.635026e-04
   7705.98    8.768146e-04
   7706.27    8.914396e-04
   7706.56    9.061741e-04
   7706.84    9.209086e-04
   7707.13    9.364075e-04
   7707.42    9.527981e-04
   7707.71    9.691888e-04
   7708.00    9.855795e-04
   7708.29    1.003913e-03
   7708.58    1.022247e-03
   7708.87    1.040581e-03
   7709.16    1.060153e-03
   7709.44    1.080787e-03
   7709.73    1.101421e-03
   7710.02    1.122266e-03
   7710.31    1.145647e-03
   7710.60    1.169029e-03
   7710.89    1.192411e-03
   7711.18    1.217835e-03
   7711.47    1.244537e-03
   7711.76    1.271238e-03
   7712.04    1.298564e-03
   7712.33    1.329325e-03
   7712.62    1.360086e-03
   7712.91    1.390847e-03
   7713.20    1.425095e-03
   7713.49    1.460892e-03
   7713.78    1.496689e-03
   7714.07    1.533952e-03
   7714.36    1.576100e-03
   7714.64    1.618248e-03
   7714.93    1.660396e-03
   7715.22    1.708825e-03
   7715.51    1.759139e-03
   7715.80    1.809453e-03
   7716.09    1.863074e-03
   7716.38    1.924136e-03
   7716.67    1.985197e-03
   7716.96    2.046258e-03
   7717.24    2.119637e-03
   7717.53    2.195254e-03
   7717.82    2.270872e-03
   7718.11    2.354350e-03
   7718.40    2.450408e-03
   7718.69    2.546465e-03
   7718.98    2.642522e-03
   7719.27    2.766359e-03
   7719.56    2.892510e-03
   7719.84    3.018662e-03
   7720.13    3.166647e-03
   7720.42    3.340103e-03
   7720.71    3.513559e-03
   7721.00    3.687016e-03
   7721.29    3.942396e-03
   7721.58    4.197776e-03
   7721.87    4.453156e-03
   7722.16    4.798084e-03
   7722.44    5.219769e-03
   7722.73    5.641453e-03
   7723.02    6.098005e-03
   7723.31    6.972961e-03
   7723.60    7.847917e-03
   7723.89    8.722873e-03
   7724.18    1.067820e-02
   7724.47    1.330877e-02
   7724.76    1.593933e-02
   7725.04    1.880049e-02
   7725.33    2.288256e-02
   7725.62    2.669575e-02
   7725.91    3.020322e-02
   7726.20    3.363350e-02
   7726.49    3.721128e-02
   7726.78    4.106844e-02
   7727.07    4.537445e-02
   7727.36    5.015227e-02
   7727.64    5.548041e-02
   7727.93    6.141473e-02
   7728.22    6.799451e-02
   7728.51    7.537950e-02
   7728.80    8.349866e-02
   7729.09    9.242809e-02
   7729.38    1.017040e-01
   7729.67    1.107404e-01
   7729.96    1.188929e-01
   7730.24    1.255718e-01
   7730.53    1.302211e-01
   7730.82    1.328141e-01
   7731.11    1.334195e-01
   7731.40    1.322279e-01
   7731.69    1.295704e-01
   7731.98    1.258726e-01
   7732.27    1.215768e-01
   7732.56    1.171376e-01
   7732.84    1.128876e-01
   7733.13    1.090293e-01
   7733.42    1.056836e-01
   7733.71    1.029078e-01
   7734.00    1.007129e-01
   7734.29    9.913826e-02
   7734.58    9.806539e-02
   7734.87    9.743101e-02
   7735.16    9.716277e-02
   7735.44    9.718307e-02
   7735.73    9.741227e-02
   7736.02    9.777515e-02
   7736.31    9.818450e-02
   7736.60    9.856869e-02
   7736.89    9.887274e-02
   7737.18    9.905494e-02
   7737.47    9.908869e-02
   7737.76    9.896038e-02
   7738.04    9.866262e-02
   7738.33    9.823045e-02
   7738.62    9.768997e-02
   7738.91    9.707088e-02
   7739.20    9.640284e-02
   7739.49    9.571261e-02
   7739.78    9.502335e-02
   7740.07    9.436280e-02
   7740.36    9.375488e-02
   7740.64    9.314696e-02
   7740.93    9.253904e-02
   7741.22    9.202154e-02
   7741.51    9.153118e-02
   7741.80    9.104082e-02
   7742.09    9.056786e-02
   7742.38    9.013407e-02
   7742.67    8.970027e-02
   7742.96    8.926648e-02
   7743.24    8.883682e-02
   7743.53    8.840791e-02
   7743.82    8.797901e-02
   7744.11    8.755105e-02
   7744.40    8.712460e-02
   7744.69    8.669815e-02
   7744.98    8.627170e-02
   7745.27    8.585927e-02
   7745.56    8.544801e-02
   7745.84    8.503675e-02
   7746.13    8.463462e-02
   7746.42    8.424313e-02
   7746.71    8.385164e-02
   7747.00    8.346015e-02
   7747.29    8.308916e-02
   7747.58    8.271818e-02
   7747.87    8.234720e-02
   7748.16    8.198906e-02
   7748.44    8.164193e-02
   7748.73    8.129480e-02
   7749.02    8.094978e-02
   7749.31    8.063012e-02
   7749.60    8.031046e-02
   7749.89    7.999079e-02
   7750.18    7.968708e-02
   7750.47    7.939333e-02
   7750.76    7.909959e-02
   7751.04    7.880848e-02
   7751.33    7.853189e-02
   7751.62    7.825531e-02
   7751.91    7.797872e-02
   7752.20    7.770481e-02
   7752.49    7.743209e-02
   7752.78    7.715937e-02
   7753.07    7.688457e-02
   7753.36    7.660284e-02
   7753.64    7.632110e-02
   7753.93    7.603936e-02
   7754.22    7.574479e-02
   7754.51    7.544638e-02
   7754.80    7.514796e-02
   7755.09    7.484477e-02
   7755.38    7.453084e-02
   7755.67    7.421690e-02
   7755.96    7.390296e-02
   7756.24    7.358536e-02
   7756.53    7.326709e-02
   7756.82    7.294883e-02
   7757.11    7.263648e-02
   7757.40    7.233361e-02
   7757.69    7.203073e-02
   7757.98    7.172785e-02
   7758.27    7.146081e-02
   7758.56    7.119675e-02
   7758.84    7.093268e-02
   7759.13    7.069599e-02
   7759.42    7.049122e-02
   7759.71    7.028645e-02
   7760.00    7.008168e-02
