 FDMNES
  energy    <xanes>
   7695.00    5.431514e-04
   7695.29    5.490692e-04
   7695.58    5.549871e-04
   7695.87    5.609049e-04
   7696.16    5.670520e-04
   7696.44    5.733954e-04
   7696.73    5.797388e-04
   7697.02    5.861186e-04
   7697.31    5.929341e-04
   7697.60    5.997496e-04
   7697.89    6.065651e-04
   7698.18    6.137040e-04
   7698.47    6.210449e-04
   7698.76    6.283859e-04
   7699.04    6.358172e-04
   7699.33    6.437452e-04
   7699.62    6.516732e-04
   7699.91    6.596013e-04
   7700.20    6.679852e-04
   7700.49    6.765719e-04
   7700.78    6.851585e-04
   7701.07    6.939164e-04
   7701.36    7.032452e-04
   7701.64    7.125739e-04
   7701.93    7.219026e-04
   7702.22    7.318776e-04
   7702.51    7.420465e-04
   7702.80    7.522153e-04
   7703.09    7.626783e-04
   7703.38    7.738032e-04
   7703.67    7.849280e-04
   7703.96    7.960528e-04
   7704.24    8.081032e-04
   7704.53    8.203218e-04
   7704.82    8.325405e-04
   7705.11    8.452434e-04
   7705.40    8.587213e-04
   7705.69    8.721992e-04
   7705.98    8.856771e-04
   7706.27    9.005019e-04
   7706.56    9.154390e-04
   7706.84    9.303761e-04
   7707.13    9.460994e-04
   7707.42    9.627399e-04
   7707.71    9.793804e-04
   7708.00    9.960210e-04
   7708.29    1.014666e-03
   7708.58    1.033311e-03
   7708.87    1.051956e-03
   7709.16    1.071883e-03
   7709.44    1.092909e-03
   7709.73    1.113934e-03
   7710.02    1.135180e-03
   7710.31    1.159060e-03
   7710.60    1.182941e-03
   7710.89    1.206822e-03
   7711.18    1.232834e-03
   7711.47    1.260179e-03
   7711.76    1.287524e-03
   7712.04    1.315523e-03
   7712.33    1.347125e-03
   7712.62    1.378727e-03
   7712.91    1.410328e-03
   7713.20    1.445606e-03
   7713.49    1.482517e-03
   7713.78    1.519429e-03
   7714.07    1.557895e-03
   7714.36    1.601545e-03
   7714.64    1.645195e-03
   7714.93    1.688845e-03
   7715.22    1.739208e-03
   7715.51    1.791584e-03
   7715.80    1.843961e-03
   7716.09    1.899901e-03
   7716.38    1.963859e-03
   7716.67    2.027816e-03
   7716.96    2.091774e-03
   7717.24    2.169129e-03
   7717.53    2.248919e-03
   7717.82    2.328709e-03
   7718.11    2.417142e-03
   7718.40    2.519404e-03
   7718.69    2.621666e-03
   7718.98    2.723927e-03
   7719.27    2.857096e-03
   7719.56    2.992840e-03
   7719.84    3.128585e-03
   7720.13    3.288935e-03
   7720.42    3.477992e-03
   7720.71    3.667048e-03
   7721.00    3.856105e-03
   7721.29    4.138658e-03
   7721.58    4.421210e-03
   7721.87    4.703763e-03
   7722.16    5.089414e-03
   7722.44    5.563435e-03
   7722.73    6.037455e-03
   7723.02    6.551472e-03
   7723.31    7.545441e-03
   7723.60    8.539409e-03
   7723.89    9.533377e-03
   7724.18    1.175911e-02
   7724.47    1.475469e-02
   7724.76    1.775028e-02
   7725.04    2.103489e-02
   7725.33    2.595227e-02
   7725.62    3.088300e-02
   7725.91    3.580821e-02
   7726.20    4.082255e-02
   7726.49    4.596837e-02
   7726.78    5.121141e-02
   7727.07    5.665142e-02
   7727.36    6.244433e-02
   7727.64    6.883685e-02
   7727.93    7.598908e-02
   7728.22    8.386982e-02
   7728.51    9.231623e-02
   7728.80    1.008094e-01
   7729.09    1.085559e-01
   7729.38    1.150042e-01
   7729.67    1.193311e-01
   7729.96    1.215325e-01
   7730.24    1.217003e-01
   7730.53    1.200987e-01
   7730.82    1.173648e-01
   7731.11    1.139832e-01
   7731.40    1.103424e-01
   7731.69    1.067463e-01
   7731.98    1.034138e-01
   7732.27    1.005122e-01
   7732.56    9.813359e-02
   7732.84    9.626818e-02
   7733.13    9.490095e-02
   7733.42    9.399163e-02
   7733.71    9.348192e-02
   7734.00    9.330125e-02
   7734.29    9.339157e-02
   7734.58    9.363387e-02
   7734.87    9.394822e-02
   7735.16    9.426071e-02
   7735.44    9.450791e-02
   7735.73    9.464113e-02
   7736.02    9.461934e-02
   7736.31    9.443610e-02
   7736.60    9.411202e-02
   7736.89    9.367399e-02
   7737.18    9.315689e-02
   7737.47    9.259773e-02
   7737.76    9.203103e-02
   7738.04    9.148927e-02
   7738.33    9.099108e-02
   7738.62    9.054779e-02
   7738.91    9.016473e-02
   7739.20    8.984263e-02
   7739.49    8.957899e-02
   7739.78    8.937334e-02
   7740.07    8.922643e-02
   7740.36    8.914180e-02
   7740.64    8.905717e-02
   7740.93    8.897253e-02
   7741.22    8.894287e-02
   7741.51    8.892969e-02
   7741.80    8.891652e-02
   7742.09    8.890123e-02
   7742.38    8.888121e-02
   7742.67    8.886119e-02
   7742.96    8.884116e-02
   7743.24    8.875530e-02
   7743.53    8.865746e-02
   7743.82    8.855962e-02
   7744.11    8.841754e-02
   7744.40    8.820470e-02
   7744.69    8.799185e-02
   7744.98    8.777900e-02
   7745.27    8.746758e-02
   7745.56    8.714794e-02
   7745.84    8.682831e-02
   7746.13    8.647863e-02
   7746.42    8.609390e-02
   7746.71    8.570917e-02
   7747.00    8.532444e-02
   7747.29    8.492471e-02
   7747.58    8.452497e-02
   7747.87    8.412524e-02
   7748.16    8.373497e-02
   7748.44    8.335281e-02
   7748.73    8.297065e-02
   7749.02    8.259065e-02
   7749.31    8.223661e-02
   7749.60    8.188256e-02
   7749.89    8.152852e-02
   7750.18    8.118900e-02
   7750.47    8.085857e-02
   7750.76    8.052815e-02
   7751.04    8.019980e-02
   7751.33    7.988295e-02
   7751.62    7.956609e-02
   7751.91    7.924923e-02
   7752.20    7.893659e-02
   7752.49    7.862582e-02
   7752.78    7.831505e-02
   7753.07    7.800546e-02
   7753.36    7.769976e-02
   7753.64    7.739406e-02
   7753.93    7.708836e-02
   7754.22    7.679028e-02
   7754.51    7.649448e-02
   7754.80    7.619869e-02
   7755.09    7.590821e-02
   7755.38    7.562970e-02
   7755.67    7.535118e-02
   7755.96    7.507267e-02
   7756.24    7.481435e-02
   7756.53    7.455969e-02
   7756.82    7.430503e-02
   7757.11    7.406145e-02
   7757.40    7.383559e-02
   7757.69    7.360974e-02
   7757.98    7.338388e-02
   7758.27    7.318981e-02
   7758.56    7.299839e-02
   7758.84    7.280697e-02
   7759.13    7.263522e-02
   7759.42    7.248643e-02
   7759.71    7.233764e-02
   7760.00    7.218885e-02
