 FDMNES
  energy    <xanes>
   7695.00    5.474726e-04
   7695.29    5.531286e-04
   7695.58    5.587846e-04
   7695.87    5.644406e-04
   7696.16    5.703051e-04
   7696.44    5.763484e-04
   7696.73    5.823917e-04
   7697.02    5.884679e-04
   7697.31    5.949390e-04
   7697.60    6.014101e-04
   7697.89    6.078812e-04
   7698.18    6.146442e-04
   7698.47    6.215895e-04
   7698.76    6.285348e-04
   7699.04    6.355613e-04
   7699.33    6.430341e-04
   7699.62    6.505070e-04
   7699.91    6.579798e-04
   7700.20    6.658604e-04
   7700.49    6.739223e-04
   7700.78    6.819842e-04
   7701.07    6.901985e-04
   7701.36    6.989210e-04
   7701.64    7.076434e-04
   7701.93    7.163658e-04
   7702.22    7.256606e-04
   7702.51    7.351271e-04
   7702.80    7.445936e-04
   7703.09    7.543193e-04
   7703.38    7.646280e-04
   7703.67    7.749368e-04
   7703.96    7.852455e-04
   7704.24    7.963653e-04
   7704.53    8.076326e-04
   7704.82    8.188998e-04
   7705.11    8.305891e-04
   7705.40    8.429535e-04
   7705.69    8.553179e-04
   7705.98    8.676823e-04
   7706.27    8.812134e-04
   7706.56    8.948418e-04
   7706.84    9.084701e-04
   7707.13    9.227753e-04
   7707.42    9.378700e-04
   7707.71    9.529647e-04
   7708.00    9.680595e-04
   7708.29    9.848689e-04
   7708.58    1.001678e-03
   7708.87    1.018488e-03
   7709.16    1.036386e-03
   7709.44    1.055218e-03
   7709.73    1.074050e-03
   7710.02    1.093067e-03
   7710.31    1.114309e-03
   7710.60    1.135550e-03
   7710.89    1.156791e-03
   7711.18    1.179818e-03
   7711.47    1.203962e-03
   7711.76    1.228106e-03
   7712.04    1.252794e-03
   7712.33    1.280478e-03
   7712.62    1.308163e-03
   7712.91    1.335847e-03
   7713.20    1.366567e-03
   7713.49    1.398636e-03
   7713.78    1.430704e-03
   7714.07    1.464048e-03
   7714.36    1.501639e-03
   7714.64    1.539231e-03
   7714.93    1.576822e-03
   7715.22    1.619876e-03
   7715.51    1.664569e-03
   7715.80    1.709261e-03
   7716.09    1.756834e-03
   7716.38    1.810886e-03
   7716.67    1.864938e-03
   7716.96    1.918991e-03
   7717.24    1.983806e-03
   7717.53    2.050579e-03
   7717.82    2.117352e-03
   7718.11    2.191039e-03
   7718.40    2.275789e-03
   7718.69    2.360538e-03
   7718.98    2.445288e-03
   7719.27    2.554728e-03
   7719.56    2.666226e-03
   7719.84    2.777724e-03
   7720.13    2.908952e-03
   7720.42    3.063199e-03
   7720.71    3.217445e-03
   7721.00    3.371692e-03
   7721.29    3.601902e-03
   7721.58    3.832112e-03
   7721.87    4.062321e-03
   7722.16    4.378895e-03
   7722.44    4.769495e-03
   7722.73    5.160095e-03
   7723.02    5.586300e-03
   7723.31    6.439762e-03
   7723.60    7.293223e-03
   7723.89    8.146685e-03
   7724.18    1.016386e-02
   7724.47    1.290836e-02
   7724.76    1.565285e-02
   7725.04    1.863806e-02
   7725.33    2.282382e-02
   7725.62    2.639748e-02
   7725.91    2.912045e-02
   7726.20    3.138472e-02
   7726.49    3.363634e-02
   7726.78    3.623453e-02
   7727.07    3.942661e-02
   7727.36    4.320283e-02
   7727.64    4.759178e-02
   7727.93    5.257184e-02
   7728.22    5.807280e-02
   7728.51    6.406292e-02
   7728.80    7.032835e-02
   7729.09    7.662964e-02
   7729.38    8.262043e-02
   7729.67    8.779077e-02
   7729.96    9.184546e-02
   7730.24    9.451087e-02
   7730.53    9.558617e-02
   7730.82    9.532127e-02
   7731.11    9.403178e-02
   7731.40    9.207744e-02
   7731.69    8.981309e-02
   7731.98    8.753622e-02
   7732.27    8.547916e-02
   7732.56    8.378735e-02
   7732.84    8.249308e-02
   7733.13    8.160413e-02
   7733.42    8.110419e-02
   7733.71    8.096492e-02
   7734.00    8.115321e-02
   7734.29    8.166584e-02
   7734.58    8.243248e-02
   7734.87    8.342265e-02
   7735.16    8.460623e-02
   7735.44    8.595141e-02
   7735.73    8.742295e-02
   7736.02    8.898426e-02
   7736.31    9.058393e-02
   7736.60    9.217255e-02
   7736.89    9.370622e-02
   7737.18    9.514540e-02
   7737.47    9.645764e-02
   7737.76    9.761681e-02
   7738.04    9.859544e-02
   7738.33    9.940871e-02
   7738.62    1.000648e-01
   7738.91    1.005787e-01
   7739.20    1.009708e-01
   7739.49    1.012645e-01
   7739.78    1.014805e-01
   7740.07    1.016519e-01
   7740.36    1.018105e-01
   7740.64    1.019691e-01
   7740.93    1.021276e-01
   7741.22    1.023728e-01
   7741.51    1.026439e-01
   7741.80    1.029150e-01
   7742.09    1.032230e-01
   7742.38    1.036136e-01
   7742.67    1.040042e-01
   7742.96    1.043949e-01
   7743.24    1.047442e-01
   7743.53    1.050860e-01
   7743.82    1.054278e-01
   7744.11    1.056715e-01
   7744.40    1.057580e-01
   7744.69    1.058446e-01
   7744.98    1.059311e-01
   7745.27    1.056913e-01
   7745.56    1.054243e-01
   7745.84    1.051573e-01
   7746.13    1.047500e-01
   7746.42    1.041792e-01
   7746.71    1.036084e-01
   7747.00    1.030376e-01
   7747.29    1.022910e-01
   7747.58    1.015444e-01
   7747.87    1.007978e-01
   7748.16    1.000238e-01
   7748.44    9.922643e-02
   7748.73    9.842903e-02
   7749.02    9.763423e-02
   7749.31    9.687071e-02
   7749.60    9.610720e-02
   7749.89    9.534369e-02
   7750.18    9.462600e-02
   7750.47    9.393694e-02
   7750.76    9.324789e-02
   7751.04    9.257120e-02
   7751.33    9.196255e-02
   7751.62    9.135389e-02
   7751.91    9.074524e-02
   7752.20    9.018208e-02
   7752.49    8.963915e-02
   7752.78    8.909622e-02
   7753.07    8.856393e-02
   7753.36    8.806712e-02
   7753.64    8.757031e-02
   7753.93    8.707350e-02
   7754.22    8.660099e-02
   7754.51    8.613577e-02
   7754.80    8.567055e-02
   7755.09    8.521195e-02
   7755.38    8.476825e-02
   7755.67    8.432454e-02
   7755.96    8.388084e-02
   7756.24    8.345283e-02
   7756.53    8.302768e-02
   7756.82    8.260252e-02
   7757.11    8.218712e-02
   7757.40    8.178733e-02
   7757.69    8.138754e-02
   7757.98    8.098775e-02
   7758.27    8.062795e-02
   7758.56    8.027147e-02
   7758.84    7.991499e-02
   7759.13    7.959126e-02
   7759.42    7.930573e-02
   7759.71    7.902020e-02
   7760.00    7.873467e-02
