 FDMNES
  energy    <xanes>
   7695.00    5.324934e-04
   7695.29    5.380879e-04
   7695.58    5.436824e-04
   7695.87    5.492769e-04
   7696.16    5.550799e-04
   7696.44    5.610616e-04
   7696.73    5.670434e-04
   7697.02    5.730580e-04
   7697.31    5.794677e-04
   7697.60    5.858774e-04
   7697.89    5.922870e-04
   7698.18    5.989887e-04
   7698.47    6.058729e-04
   7698.76    6.127571e-04
   7699.04    6.197225e-04
   7699.33    6.271346e-04
   7699.62    6.345468e-04
   7699.91    6.419590e-04
   7700.20    6.497794e-04
   7700.49    6.577814e-04
   7700.78    6.657833e-04
   7701.07    6.739379e-04
   7701.36    6.826013e-04
   7701.64    6.912647e-04
   7701.93    6.999280e-04
   7702.22    7.091646e-04
   7702.51    7.185732e-04
   7702.80    7.279817e-04
   7703.09    7.376498e-04
   7703.38    7.479017e-04
   7703.67    7.581537e-04
   7703.96    7.684057e-04
   7704.24    7.794696e-04
   7704.53    7.906812e-04
   7704.82    8.018929e-04
   7705.11    8.135268e-04
   7705.40    8.258365e-04
   7705.69    8.381461e-04
   7705.98    8.504558e-04
   7706.27    8.639324e-04
   7706.56    8.775063e-04
   7706.84    8.910802e-04
   7707.13    9.053304e-04
   7707.42    9.203697e-04
   7707.71    9.354090e-04
   7708.00    9.504482e-04
   7708.29    9.671989e-04
   7708.58    9.839496e-04
   7708.87    1.000700e-03
   7709.16    1.018536e-03
   7709.44    1.037302e-03
   7709.73    1.056068e-03
   7710.02    1.075019e-03
   7710.31    1.096181e-03
   7710.60    1.117342e-03
   7710.89    1.138504e-03
   7711.18    1.161437e-03
   7711.47    1.185476e-03
   7711.76    1.209515e-03
   7712.04    1.234093e-03
   7712.33    1.261630e-03
   7712.62    1.289168e-03
   7712.91    1.316705e-03
   7713.20    1.347227e-03
   7713.49    1.379075e-03
   7713.78    1.410923e-03
   7714.07    1.444017e-03
   7714.36    1.481262e-03
   7714.64    1.518508e-03
   7714.93    1.555753e-03
   7715.22    1.598295e-03
   7715.51    1.642425e-03
   7715.80    1.686556e-03
   7716.09    1.733450e-03
   7716.38    1.786563e-03
   7716.67    1.839675e-03
   7716.96    1.892788e-03
   7717.24    1.956090e-03
   7717.53    2.021246e-03
   7717.82    2.086401e-03
   7718.11    2.157986e-03
   7718.40    2.239856e-03
   7718.69    2.321726e-03
   7718.98    2.403596e-03
   7719.27    2.507866e-03
   7719.56    2.614004e-03
   7719.84    2.720141e-03
   7720.13    2.843581e-03
   7720.42    2.987207e-03
   7720.71    3.130833e-03
   7721.00    3.274458e-03
   7721.29    3.481559e-03
   7721.58    3.688661e-03
   7721.87    3.895762e-03
   7722.16    4.170156e-03
   7722.44    4.502231e-03
   7722.73    4.834305e-03
   7723.02    5.191522e-03
   7723.31    5.850446e-03
   7723.60    6.509370e-03
   7723.89    7.168293e-03
   7724.18    8.575392e-03
   7724.47    1.045010e-02
   7724.76    1.232481e-02
   7725.04    1.435828e-02
   7725.33    1.724646e-02
   7725.62    2.002629e-02
   7725.91    2.276119e-02
   7726.20    2.563049e-02
   7726.49    2.884451e-02
   7726.78    3.243121e-02
   7727.07    3.649755e-02
   7727.36    4.099282e-02
   7727.64    4.593424e-02
   7727.93    5.135688e-02
   7728.22    5.731049e-02
   7728.51    6.391312e-02
   7728.80    7.102520e-02
   7729.09    7.851220e-02
   7729.38    8.596146e-02
   7729.67    9.287567e-02
   7729.96    9.886438e-02
   7730.24    1.035805e-01
   7730.53    1.067636e-01
   7730.82    1.085805e-01
   7731.11    1.092292e-01
   7731.40    1.089296e-01
   7731.69    1.079158e-01
   7731.98    1.064189e-01
   7732.27    1.046461e-01
   7732.56    1.027936e-01
   7732.84    1.010003e-01
   7733.13    9.934731e-02
   7733.42    9.788050e-02
   7733.71    9.661760e-02
   7734.00    9.555596e-02
   7734.29    9.469840e-02
   7734.58    9.399550e-02
   7734.87    9.341891e-02
   7735.16    9.294029e-02
   7735.44    9.253345e-02
   7735.73    9.217606e-02
   7736.02    9.185247e-02
   7736.31    9.155062e-02
   7736.60    9.126618e-02
   7736.89    9.100247e-02
   7737.18    9.076812e-02
   7737.47    9.057597e-02
   7737.76    9.044275e-02
   7738.04    9.039303e-02
   7738.33    9.043548e-02
   7738.62    9.058211e-02
   7738.91    9.084110e-02
   7739.20    9.121638e-02
   7739.49    9.170756e-02
   7739.78    9.231870e-02
   7740.07    9.305095e-02
   7740.36    9.390340e-02
   7740.64    9.475585e-02
   7740.93    9.560830e-02
   7741.22    9.649094e-02
   7741.51    9.738264e-02
   7741.80    9.827434e-02
   7742.09    9.909225e-02
   7742.38    9.974412e-02
   7742.67    1.003960e-01
   7742.96    1.010478e-01
   7743.24    1.013327e-01
   7743.53    1.015508e-01
   7743.82    1.017689e-01
   7744.11    1.018032e-01
   7744.40    1.015432e-01
   7744.69    1.012833e-01
   7744.98    1.010234e-01
   7745.27    1.004083e-01
   7745.56    9.976366e-02
   7745.84    9.911902e-02
   7746.13    9.837316e-02
   7746.42    9.750923e-02
   7746.71    9.664530e-02
   7747.00    9.578136e-02
   7747.29    9.486119e-02
   7747.58    9.394102e-02
   7747.87    9.302085e-02
   7748.16    9.213181e-02
   7748.44    9.126945e-02
   7748.73    9.040710e-02
   7749.02    8.955344e-02
   7749.31    8.880414e-02
   7749.60    8.805484e-02
   7749.89    8.730554e-02
   7750.18    8.663152e-02
   7750.47    8.600454e-02
   7750.76    8.537756e-02
   7751.04    8.476662e-02
   7751.33    8.424390e-02
   7751.62    8.372119e-02
   7751.91    8.319847e-02
   7752.20    8.272755e-02
   7752.49    8.227966e-02
   7752.78    8.183176e-02
   7753.07    8.139438e-02
   7753.36    8.099205e-02
   7753.64    8.058972e-02
   7753.93    8.018739e-02
   7754.22    7.980370e-02
   7754.51    7.942560e-02
   7754.80    7.904751e-02
   7755.09    7.867465e-02
   7755.38    7.831358e-02
   7755.67    7.795251e-02
   7755.96    7.759144e-02
   7756.24    7.725146e-02
   7756.53    7.691531e-02
   7756.82    7.657915e-02
   7757.11    7.625721e-02
   7757.40    7.595801e-02
   7757.69    7.565881e-02
   7757.98    7.535961e-02
   7758.27    7.510533e-02
   7758.56    7.485478e-02
   7758.84    7.460424e-02
   7759.13    7.438080e-02
   7759.42    7.418898e-02
   7759.71    7.399716e-02
   7760.00    7.380534e-02
