 FDMNES
  energy    <xanes>
   7695.00    5.279115e-04
   7695.29    5.334160e-04
   7695.58    5.389206e-04
   7695.87    5.444251e-04
   7696.16    5.501325e-04
   7696.44    5.560137e-04
   7696.73    5.618949e-04
   7697.02    5.678082e-04
   7697.31    5.741052e-04
   7697.60    5.804022e-04
   7697.89    5.866993e-04
   7698.18    5.932797e-04
   7698.47    6.000372e-04
   7698.76    6.067947e-04
   7699.04    6.136309e-04
   7699.33    6.209001e-04
   7699.62    6.281693e-04
   7699.91    6.354385e-04
   7700.20    6.431028e-04
   7700.49    6.509428e-04
   7700.78    6.587827e-04
   7701.07    6.667702e-04
   7701.36    6.752493e-04
   7701.64    6.837284e-04
   7701.93    6.922076e-04
   7702.22    7.012397e-04
   7702.51    7.104377e-04
   7702.80    7.196357e-04
   7703.09    7.290836e-04
   7703.38    7.390940e-04
   7703.67    7.491044e-04
   7703.96    7.591147e-04
   7704.24    7.699057e-04
   7704.53    7.808387e-04
   7704.82    7.917717e-04
   7705.11    8.031099e-04
   7705.40    8.150965e-04
   7705.69    8.270832e-04
   7705.98    8.390698e-04
   7706.27    8.521739e-04
   7706.56    8.653712e-04
   7706.84    8.785684e-04
   7707.13    8.924119e-04
   7707.42    9.070095e-04
   7707.71    9.216070e-04
   7708.00    9.362045e-04
   7708.29    9.524336e-04
   7708.58    9.686627e-04
   7708.87    9.848917e-04
   7709.16    1.002153e-03
   7709.44    1.020299e-03
   7709.73    1.038444e-03
   7710.02    1.056765e-03
   7710.31    1.077183e-03
   7710.60    1.097601e-03
   7710.89    1.118020e-03
   7711.18    1.140113e-03
   7711.47    1.163253e-03
   7711.76    1.186393e-03
   7712.04    1.210041e-03
   7712.33    1.236481e-03
   7712.62    1.262920e-03
   7712.91    1.289360e-03
   7713.20    1.318605e-03
   7713.49    1.349098e-03
   7713.78    1.379591e-03
   7714.07    1.411251e-03
   7714.36    1.446802e-03
   7714.64    1.482353e-03
   7714.93    1.517904e-03
   7715.22    1.558402e-03
   7715.51    1.600384e-03
   7715.80    1.642366e-03
   7716.09    1.686920e-03
   7716.38    1.737262e-03
   7716.67    1.787604e-03
   7716.96    1.837946e-03
   7717.24    1.897738e-03
   7717.53    1.959249e-03
   7717.82    2.020760e-03
   7718.11    2.088212e-03
   7718.40    2.165168e-03
   7718.69    2.242125e-03
   7718.98    2.319082e-03
   7719.27    2.416669e-03
   7719.56    2.515977e-03
   7719.84    2.615284e-03
   7720.13    2.730481e-03
   7720.42    2.864217e-03
   7720.71    2.997954e-03
   7721.00    3.131690e-03
   7721.29    3.323630e-03
   7721.58    3.515571e-03
   7721.87    3.707511e-03
   7722.16    3.961237e-03
   7722.44    4.267921e-03
   7722.73    4.574605e-03
   7723.02    4.904544e-03
   7723.31    5.513547e-03
   7723.60    6.122549e-03
   7723.89    6.731552e-03
   7724.18    8.039620e-03
   7724.47    9.784606e-03
   7724.76    1.152959e-02
   7725.04    1.341970e-02
   7725.33    1.607307e-02
   7725.62    1.855452e-02
   7725.91    2.088164e-02
   7726.20    2.322485e-02
   7726.49    2.576762e-02
   7726.78    2.860286e-02
   7727.07    3.192854e-02
   7727.36    3.583322e-02
   7727.64    4.050171e-02
   7727.93    4.607102e-02
   7728.22    5.257451e-02
   7728.51    6.006432e-02
   7728.80    6.815810e-02
   7729.09    7.632888e-02
   7729.38    8.378075e-02
   7729.67    8.946920e-02
   7729.96    9.306075e-02
   7730.24    9.453450e-02
   7730.53    9.425609e-02
   7730.82    9.303387e-02
   7731.11    9.144366e-02
   7731.40    8.987000e-02
   7731.69    8.853817e-02
   7731.98    8.755209e-02
   7732.27    8.695585e-02
   7732.56    8.673363e-02
   7732.84    8.682347e-02
   7733.13    8.718822e-02
   7733.42    8.779631e-02
   7733.71    8.862312e-02
   7734.00    8.964968e-02
   7734.29    9.087876e-02
   7734.58    9.226548e-02
   7734.87    9.377914e-02
   7735.16    9.537941e-02
   7735.44    9.701851e-02
   7735.73    9.864448e-02
   7736.02    1.001972e-01
   7736.31    1.016239e-01
   7736.60    1.028912e-01
   7736.89    1.039738e-01
   7737.18    1.048594e-01
   7737.47    1.055477e-01
   7737.76    1.060458e-01
   7738.04    1.063595e-01
   7738.33    1.065296e-01
   7738.62    1.065792e-01
   7738.91    1.065302e-01
   7739.20    1.064023e-01
   7739.49    1.062124e-01
   7739.78    1.059711e-01
   7740.07    1.056887e-01
   7740.36    1.053720e-01
   7740.64    1.050554e-01
   7740.93    1.047387e-01
   7741.22    1.044134e-01
   7741.51    1.040855e-01
   7741.80    1.037577e-01
   7742.09    1.034346e-01
   7742.38    1.031222e-01
   7742.67    1.028099e-01
   7742.96    1.024975e-01
   7743.24    1.021725e-01
   7743.53    1.018451e-01
   7743.82    1.015177e-01
   7744.11    1.011631e-01
   7744.40    1.007650e-01
   7744.69    1.003669e-01
   7744.98    9.996880e-02
   7745.27    9.947122e-02
   7745.56    9.896535e-02
   7745.84    9.845948e-02
   7746.13    9.790643e-02
   7746.42    9.729832e-02
   7746.71    9.669022e-02
   7747.00    9.608212e-02
   7747.29    9.541403e-02
   7747.58    9.474593e-02
   7747.87    9.407783e-02
   7748.16    9.340627e-02
   7748.44    9.273174e-02
   7748.73    9.205722e-02
   7749.02    9.138534e-02
   7749.31    9.074529e-02
   7749.60    9.010523e-02
   7749.89    8.946518e-02
   7750.18    8.885806e-02
   7750.47    8.827151e-02
   7750.76    8.768496e-02
   7751.04    8.710675e-02
   7751.33    8.657446e-02
   7751.62    8.604216e-02
   7751.91    8.550987e-02
   7752.20    8.500851e-02
   7752.49    8.452089e-02
   7752.78    8.403328e-02
   7753.07    8.355297e-02
   7753.36    8.309699e-02
   7753.64    8.264102e-02
   7753.93    8.218504e-02
   7754.22    8.174494e-02
   7754.51    8.130961e-02
   7754.80    8.087427e-02
   7755.09    8.044303e-02
   7755.38    8.002099e-02
   7755.67    7.959895e-02
   7755.96    7.917691e-02
   7756.24    7.876167e-02
   7756.53    7.834767e-02
   7756.82    7.793366e-02
   7757.11    7.752380e-02
   7757.40    7.712056e-02
   7757.69    7.671732e-02
   7757.98    7.631409e-02
   7758.27    7.593700e-02
   7758.56    7.556210e-02
   7758.84    7.518719e-02
   7759.13    7.484181e-02
   7759.42    7.453088e-02
   7759.71    7.421995e-02
   7760.00    7.390903e-02
