 FDMNES
  energy    <xanes>
   7695.00    5.673665e-04
   7695.29    5.733531e-04
   7695.58    5.793398e-04
   7695.87    5.853264e-04
   7696.16    5.915404e-04
   7696.44    5.979493e-04
   7696.73    6.043581e-04
   7697.02    6.108029e-04
   7697.31    6.176795e-04
   7697.60    6.245561e-04
   7697.89    6.314326e-04
   7698.18    6.386292e-04
   7698.47    6.460257e-04
   7698.76    6.534223e-04
   7699.04    6.609081e-04
   7699.33    6.688849e-04
   7699.62    6.768617e-04
   7699.91    6.848386e-04
   7700.20    6.932655e-04
   7700.49    7.018925e-04
   7700.78    7.105194e-04
   7701.07    7.193153e-04
   7701.36    7.286739e-04
   7701.64    7.380325e-04
   7701.93    7.473911e-04
   7702.22    7.573860e-04
   7702.51    7.675718e-04
   7702.80    7.777576e-04
   7703.09    7.882327e-04
   7703.38    7.993585e-04
   7703.67    8.104843e-04
   7703.96    8.216101e-04
   7704.24    8.336448e-04
   7704.53    8.458447e-04
   7704.82    8.580447e-04
   7705.11    8.707195e-04
   7705.40    8.841542e-04
   7705.69    8.975890e-04
   7705.98    9.110237e-04
   7706.27    9.257774e-04
   7706.56    9.406410e-04
   7706.84    9.555046e-04
   7707.13    9.711370e-04
   7707.42    9.876662e-04
   7707.71    1.004195e-03
   7708.00    1.020725e-03
   7708.29    1.039211e-03
   7708.58    1.057697e-03
   7708.87    1.076184e-03
   7709.16    1.095920e-03
   7709.44    1.116726e-03
   7709.73    1.137533e-03
   7710.02    1.158554e-03
   7710.31    1.182140e-03
   7710.60    1.205725e-03
   7710.89    1.229311e-03
   7711.18    1.254968e-03
   7711.47    1.281920e-03
   7711.76    1.308871e-03
   7712.04    1.336458e-03
   7712.33    1.367539e-03
   7712.62    1.398620e-03
   7712.91    1.429700e-03
   7713.20    1.464341e-03
   7713.49    1.500563e-03
   7713.78    1.536785e-03
   7714.07    1.574510e-03
   7714.36    1.617244e-03
   7714.64    1.659978e-03
   7714.93    1.702712e-03
   7715.22    1.751921e-03
   7715.51    1.803071e-03
   7715.80    1.854222e-03
   7716.09    1.908802e-03
   7716.38    1.971097e-03
   7716.67    2.033392e-03
   7716.96    2.095687e-03
   7717.24    2.170842e-03
   7717.53    2.248336e-03
   7717.82    2.325829e-03
   7718.11    2.411595e-03
   7718.40    2.510599e-03
   7718.69    2.609602e-03
   7718.98    2.708606e-03
   7719.27    2.837098e-03
   7719.56    2.968047e-03
   7719.84    3.098997e-03
   7720.13    3.253332e-03
   7720.42    3.434951e-03
   7720.71    3.616570e-03
   7721.00    3.798189e-03
   7721.29    4.068278e-03
   7721.58    4.338367e-03
   7721.87    4.608457e-03
   7722.16    4.975705e-03
   7722.44    5.426234e-03
   7722.73    5.876763e-03
   7723.02    6.364997e-03
   7723.31    7.305701e-03
   7723.60    8.246405e-03
   7723.89    9.187109e-03
   7724.18    1.127907e-02
   7724.47    1.409056e-02
   7724.76    1.690205e-02
   7725.04    1.995442e-02
   7725.33    2.428950e-02
   7725.62    2.841991e-02
   7725.91    3.244561e-02
   7726.20    3.664751e-02
   7726.49    4.137627e-02
   7726.78    4.677337e-02
   7727.07    5.321834e-02
   7727.36    6.075052e-02
   7727.64    6.933975e-02
   7727.93    7.860320e-02
   7728.22    8.792818e-02
   7728.51    9.661800e-02
   7728.80    1.041741e-01
   7729.09    1.096753e-01
   7729.38    1.132164e-01
   7729.67    1.145174e-01
   7729.96    1.140980e-01
   7730.24    1.123233e-01
   7730.53    1.095655e-01
   7730.82    1.063499e-01
   7731.11    1.030765e-01
   7731.40    1.000555e-01
   7731.69    9.749783e-02
   7731.98    9.551404e-02
   7732.27    9.415825e-02
   7732.56    9.338678e-02
   7732.84    9.306439e-02
   7733.13    9.308078e-02
   7733.42    9.332857e-02
   7733.71    9.370971e-02
   7734.00    9.413602e-02
   7734.29    9.451817e-02
   7734.58    9.479166e-02
   7734.87    9.491154e-02
   7735.16    9.485204e-02
   7735.44    9.460777e-02
   7735.73    9.419264e-02
   7736.02    9.362990e-02
   7736.31    9.296997e-02
   7736.60    9.226632e-02
   7736.89    9.156416e-02
   7737.18    9.090365e-02
   7737.47    9.031773e-02
   7737.76    8.983314e-02
   7738.04    8.947745e-02
   7738.33    8.924733e-02
   7738.62    8.914390e-02
   7738.91    8.916332e-02
   7739.20    8.929791e-02
   7739.49    8.953712e-02
   7739.78    8.987488e-02
   7740.07    9.029953e-02
   7740.36    9.079899e-02
   7740.64    9.129846e-02
   7740.93    9.179792e-02
   7741.22    9.227433e-02
   7741.51    9.274383e-02
   7741.80    9.321332e-02
   7742.09    9.360757e-02
   7742.38    9.383252e-02
   7742.67    9.405747e-02
   7742.96    9.428241e-02
   7743.24    9.420141e-02
   7743.53    9.406477e-02
   7743.82    9.392814e-02
   7744.11    9.366364e-02
   7744.40    9.319455e-02
   7744.69    9.272546e-02
   7744.98    9.225637e-02
   7745.27    9.161069e-02
   7745.56    9.095029e-02
   7745.84    9.028989e-02
   7746.13    8.961612e-02
   7746.42    8.892677e-02
   7746.71    8.823741e-02
   7747.00    8.754805e-02
   7747.29    8.694290e-02
   7747.58    8.633775e-02
   7747.87    8.573260e-02
   7748.16    8.519709e-02
   7748.44    8.472127e-02
   7748.73    8.424544e-02
   7749.02    8.377924e-02
   7749.31    8.342849e-02
   7749.60    8.307773e-02
   7749.89    8.272698e-02
   7750.18    8.243842e-02
   7750.47    8.218873e-02
   7750.76    8.193904e-02
   7751.04    8.170136e-02
   7751.33    8.152972e-02
   7751.62    8.135808e-02
   7751.91    8.118645e-02
   7752.20    8.105767e-02
   7752.49    8.094793e-02
   7752.78    8.083820e-02
   7753.07    8.073970e-02
   7753.36    8.067866e-02
   7753.64    8.061762e-02
   7753.93    8.055658e-02
   7754.22    8.052290e-02
   7754.51    8.049744e-02
   7754.80    8.047197e-02
   7755.09    8.045280e-02
   7755.38    8.044783e-02
   7755.67    8.044285e-02
   7755.96    8.043788e-02
   7756.24    8.043125e-02
   7756.53    8.042431e-02
   7756.82    8.041738e-02
   7757.11    8.040293e-02
   7757.40    8.037645e-02
   7757.69    8.034998e-02
   7757.98    8.032350e-02
   7758.27    8.027810e-02
   7758.56    8.023113e-02
   7758.84    8.018415e-02
   7759.13    8.013471e-02
   7759.42    8.008240e-02
   7759.71    8.003009e-02
   7760.00    7.997777e-02
