 FDMNES
  energy    <xanes>
   7695.00    5.271017e-04
   7695.29    5.329458e-04
   7695.58    5.387898e-04
   7695.87    5.446338e-04
   7696.16    5.507054e-04
   7696.44    5.569722e-04
   7696.73    5.632389e-04
   7697.02    5.695418e-04
   7697.31    5.762774e-04
   7697.60    5.830131e-04
   7697.89    5.897487e-04
   7698.18    5.968056e-04
   7698.47    6.040632e-04
   7698.76    6.113208e-04
   7699.04    6.186682e-04
   7699.33    6.265089e-04
   7699.62    6.343497e-04
   7699.91    6.421905e-04
   7700.20    6.504842e-04
   7700.49    6.589792e-04
   7700.78    6.674741e-04
   7701.07    6.761392e-04
   7701.36    6.853713e-04
   7701.64    6.946033e-04
   7701.93    7.038354e-04
   7702.22    7.137092e-04
   7702.51    7.237756e-04
   7702.80    7.338420e-04
   7703.09    7.442005e-04
   7703.38    7.552162e-04
   7703.67    7.662318e-04
   7703.96    7.772475e-04
   7704.24    7.891820e-04
   7704.53    8.012836e-04
   7704.82    8.133852e-04
   7705.11    8.259675e-04
   7705.40    8.393189e-04
   7705.69    8.526703e-04
   7705.98    8.660217e-04
   7706.27    8.807096e-04
   7706.56    8.955089e-04
   7706.84    9.103082e-04
   7707.13    9.258873e-04
   7707.42    9.423761e-04
   7707.71    9.588650e-04
   7708.00    9.753538e-04
   7708.29    9.938300e-04
   7708.58    1.012306e-03
   7708.87    1.030783e-03
   7709.16    1.050529e-03
   7709.44    1.071364e-03
   7709.73    1.092199e-03
   7710.02    1.113251e-03
   7710.31    1.136913e-03
   7710.60    1.160575e-03
   7710.89    1.184238e-03
   7711.18    1.210009e-03
   7711.47    1.237099e-03
   7711.76    1.264188e-03
   7712.04    1.291925e-03
   7712.33    1.323223e-03
   7712.62    1.354521e-03
   7712.91    1.385819e-03
   7713.20    1.420747e-03
   7713.49    1.457288e-03
   7713.78    1.493830e-03
   7714.07    1.531905e-03
   7714.36    1.575092e-03
   7714.64    1.618279e-03
   7714.93    1.661467e-03
   7715.22    1.711264e-03
   7715.51    1.763045e-03
   7715.80    1.814827e-03
   7716.09    1.870110e-03
   7716.38    1.933275e-03
   7716.67    1.996440e-03
   7716.96    2.059605e-03
   7717.24    2.135910e-03
   7717.53    2.214604e-03
   7717.82    2.293298e-03
   7718.11    2.380447e-03
   7718.40    2.481125e-03
   7718.69    2.581802e-03
   7718.98    2.682479e-03
   7719.27    2.813297e-03
   7719.56    2.946626e-03
   7719.84    3.079956e-03
   7720.13    3.237191e-03
   7720.42    3.422315e-03
   7720.71    3.607439e-03
   7721.00    3.792563e-03
   7721.29    4.068130e-03
   7721.58    4.343696e-03
   7721.87    4.619263e-03
   7722.16    4.994132e-03
   7722.44    5.454117e-03
   7722.73    5.914102e-03
   7723.02    6.412531e-03
   7723.31    7.372302e-03
   7723.60    8.332073e-03
   7723.89    9.291843e-03
   7724.18    1.143009e-02
   7724.47    1.430487e-02
   7724.76    1.717966e-02
   7725.04    2.031595e-02
   7725.33    2.488082e-02
   7725.62    2.931858e-02
   7725.91    3.372987e-02
   7726.20    3.842546e-02
   7726.49    4.373880e-02
   7726.78    4.953543e-02
   7727.07    5.554511e-02
   7727.36    6.135036e-02
   7727.64    6.686840e-02
   7727.93    7.253579e-02
   7728.22    7.895831e-02
   7728.51    8.664068e-02
   7728.80    9.536450e-02
   7729.09    1.047159e-01
   7729.38    1.136637e-01
   7729.67    1.209532e-01
   7729.96    1.259374e-01
   7730.24    1.282586e-01
   7730.53    1.279230e-01
   7730.82    1.256612e-01
   7731.11    1.220740e-01
   7731.40    1.176621e-01
   7731.69    1.128684e-01
   7731.98    1.080788e-01
   7732.27    1.036273e-01
   7732.56    9.975280e-02
   7732.84    9.652844e-02
   7733.13    9.398305e-02
   7733.42    9.209856e-02
   7733.71    9.082763e-02
   7734.00    9.010474e-02
   7734.29    8.989772e-02
   7734.58    9.005463e-02
   7734.87    9.048097e-02
   7735.16    9.107927e-02
   7735.44    9.175315e-02
   7735.73    9.241231e-02
   7736.02    9.296738e-02
   7736.31    9.335231e-02
   7736.60    9.353731e-02
   7736.89    9.350933e-02
   7737.18    9.327587e-02
   7737.47    9.286142e-02
   7737.76    9.230100e-02
   7738.04    9.163547e-02
   7738.33    9.092370e-02
   7738.62    9.020737e-02
   7738.91    8.952249e-02
   7739.20    8.889804e-02
   7739.49    8.835553e-02
   7739.78    8.791792e-02
   7740.07    8.761851e-02
   7740.36    8.749318e-02
   7740.64    8.736785e-02
   7740.93    8.724252e-02
   7741.22    8.734729e-02
   7741.51    8.752110e-02
   7741.80    8.769490e-02
   7742.09    8.791611e-02
   7742.38    8.824396e-02
   7742.67    8.857182e-02
   7742.96    8.889968e-02
   7743.24    8.922456e-02
   7743.53    8.954891e-02
   7743.82    8.987325e-02
   7744.11    9.014972e-02
   7744.40    9.034959e-02
   7744.69    9.054946e-02
   7744.98    9.074933e-02
   7745.27    9.077726e-02
   7745.56    9.079087e-02
   7745.84    9.080448e-02
   7746.13    9.073197e-02
   7746.42    9.055900e-02
   7746.71    9.038602e-02
   7747.00    9.021305e-02
   7747.29    8.990105e-02
   7747.58    8.958905e-02
   7747.87    8.927705e-02
   7748.16    8.892436e-02
   7748.44    8.853679e-02
   7748.73    8.814922e-02
   7749.02    8.775921e-02
   7749.31    8.733995e-02
   7749.60    8.692068e-02
   7749.89    8.650142e-02
   7750.18    8.607415e-02
   7750.47    8.564187e-02
   7750.76    8.520958e-02
   7751.04    8.477556e-02
   7751.33    8.433195e-02
   7751.62    8.388834e-02
   7751.91    8.344473e-02
   7752.20    8.298784e-02
   7752.49    8.252504e-02
   7752.78    8.206224e-02
   7753.07    8.159231e-02
   7753.36    8.109858e-02
   7753.64    8.060485e-02
   7753.93    8.011112e-02
   7754.22    7.958570e-02
   7754.51    7.905078e-02
   7754.80    7.851585e-02
   7755.09    7.796740e-02
   7755.38    7.738853e-02
   7755.67    7.680965e-02
   7755.96    7.623078e-02
   7756.24    7.562434e-02
   7756.53    7.501288e-02
   7756.82    7.440143e-02
   7757.11    7.378924e-02
   7757.40    7.317588e-02
   7757.69    7.256251e-02
   7757.98    7.194915e-02
   7758.27    7.138113e-02
   7758.56    7.081690e-02
   7758.84    7.025266e-02
   7759.13    6.973921e-02
   7759.42    6.928503e-02
   7759.71    6.883085e-02
   7760.00    6.837667e-02
