 FDMNES
  energy    <xanes>
   7695.00    5.446777e-04
   7695.29    5.501996e-04
   7695.58    5.557215e-04
   7695.87    5.612435e-04
   7696.16    5.669671e-04
   7696.44    5.728637e-04
   7696.73    5.787603e-04
   7697.02    5.846887e-04
   7697.31    5.909989e-04
   7697.60    5.973091e-04
   7697.89    6.036193e-04
   7698.18    6.102116e-04
   7698.47    6.169800e-04
   7698.76    6.237485e-04
   7699.04    6.305954e-04
   7699.33    6.378734e-04
   7699.62    6.451513e-04
   7699.91    6.524293e-04
   7700.20    6.601009e-04
   7700.49    6.679475e-04
   7700.78    6.757941e-04
   7701.07    6.837877e-04
   7701.36    6.922715e-04
   7701.64    7.007553e-04
   7701.93    7.092391e-04
   7702.22    7.182747e-04
   7702.51    7.274758e-04
   7702.80    7.366769e-04
   7703.09    7.461276e-04
   7703.38    7.561401e-04
   7703.67    7.661526e-04
   7703.96    7.761650e-04
   7704.24    7.869581e-04
   7704.53    7.978930e-04
   7704.82    8.088280e-04
   7705.11    8.201688e-04
   7705.40    8.321587e-04
   7705.69    8.441487e-04
   7705.98    8.561386e-04
   7706.27    8.692492e-04
   7706.56    8.824531e-04
   7706.84    8.956571e-04
   7707.13    9.095102e-04
   7707.42    9.241207e-04
   7707.71    9.387313e-04
   7708.00    9.533418e-04
   7708.29    9.695946e-04
   7708.58    9.858473e-04
   7708.87    1.002100e-03
   7709.16    1.019394e-03
   7709.44    1.037580e-03
   7709.73    1.055767e-03
   7710.02    1.074130e-03
   7710.31    1.094614e-03
   7710.60    1.115099e-03
   7710.89    1.135583e-03
   7711.18    1.157767e-03
   7711.47    1.181012e-03
   7711.76    1.204258e-03
   7712.04    1.228019e-03
   7712.33    1.254622e-03
   7712.62    1.281225e-03
   7712.91    1.307827e-03
   7713.20    1.337295e-03
   7713.49    1.368037e-03
   7713.78    1.398779e-03
   7714.07    1.430718e-03
   7714.36    1.466646e-03
   7714.64    1.502574e-03
   7714.93    1.538503e-03
   7715.22    1.579526e-03
   7715.51    1.622078e-03
   7715.80    1.664629e-03
   7716.09    1.709843e-03
   7716.38    1.761047e-03
   7716.67    1.812251e-03
   7716.96    1.863455e-03
   7717.24    1.924493e-03
   7717.53    1.987319e-03
   7717.82    2.050144e-03
   7718.11    2.119186e-03
   7718.40    2.198175e-03
   7718.69    2.277165e-03
   7718.98    2.356154e-03
   7719.27    2.456860e-03
   7719.56    2.559376e-03
   7719.84    2.661892e-03
   7720.13    2.781231e-03
   7720.42    2.920194e-03
   7720.71    3.059158e-03
   7721.00    3.198122e-03
   7721.29    3.398980e-03
   7721.58    3.599838e-03
   7721.87    3.800696e-03
   7722.16    4.067335e-03
   7722.44    4.390357e-03
   7722.73    4.713379e-03
   7723.02    5.061000e-03
   7723.31    5.703815e-03
   7723.60    6.346630e-03
   7723.89    6.989444e-03
   7724.18    8.364376e-03
   7724.47    1.019688e-02
   7724.76    1.202938e-02
   7725.04    1.401853e-02
   7725.33    1.685435e-02
   7725.62    1.959029e-02
   7725.91    2.227674e-02
   7726.20    2.507789e-02
   7726.49    2.819038e-02
   7726.78    3.166519e-02
   7727.07    3.567930e-02
   7727.36    4.028132e-02
   7727.64    4.561037e-02
   7727.93    5.173821e-02
   7728.22    5.860413e-02
   7728.51    6.610333e-02
   7728.80    7.382676e-02
   7729.09    8.121283e-02
   7729.38    8.777350e-02
   7729.67    9.288674e-02
   7729.96    9.650309e-02
   7730.24    9.863443e-02
   7730.53    9.939827e-02
   7730.82    9.921578e-02
   7731.11    9.840859e-02
   7731.40    9.721783e-02
   7731.69    9.581522e-02
   7731.98    9.431672e-02
   7732.27    9.280259e-02
   7732.56    9.133420e-02
   7732.84    8.994990e-02
   7733.13    8.868053e-02
   7733.42    8.755107e-02
   7733.71    8.657990e-02
   7734.00    8.577787e-02
   7734.29    8.516799e-02
   7734.58    8.472398e-02
   7734.87    8.443409e-02
   7735.16    8.428212e-02
   7735.44    8.424866e-02
   7735.73    8.431210e-02
   7736.02    8.445278e-02
   7736.31    8.464219e-02
   7736.60    8.485323e-02
   7736.89    8.506361e-02
   7737.18    8.525376e-02
   7737.47    8.540839e-02
   7737.76    8.551714e-02
   7738.04    8.557352e-02
   7738.33    8.558782e-02
   7738.62    8.557130e-02
   7738.91    8.553945e-02
   7739.20    8.551032e-02
   7739.49    8.550271e-02
   7739.78    8.553925e-02
   7740.07    8.566007e-02
   7740.36    8.590929e-02
   7740.64    8.615850e-02
   7740.93    8.640772e-02
   7741.22    8.689542e-02
   7741.51    8.745466e-02
   7741.80    8.801391e-02
   7742.09    8.865086e-02
   7742.38    8.946265e-02
   7742.67    9.027444e-02
   7742.96    9.108623e-02
   7743.24    9.197655e-02
   7743.53    9.288114e-02
   7743.82    9.378573e-02
   7744.11    9.464479e-02
   7744.40    9.543099e-02
   7744.69    9.621720e-02
   7744.98    9.700340e-02
   7745.27    9.749455e-02
   7745.56    9.796112e-02
   7745.84    9.842768e-02
   7746.13    9.869672e-02
   7746.42    9.873530e-02
   7746.71    9.877389e-02
   7747.00    9.881247e-02
   7747.29    9.846420e-02
   7747.58    9.811592e-02
   7747.87    9.776764e-02
   7748.16    9.729418e-02
   7748.44    9.671341e-02
   7748.73    9.613265e-02
   7749.02    9.554687e-02
   7749.31    9.490075e-02
   7749.60    9.425464e-02
   7749.89    9.360853e-02
   7750.18    9.298893e-02
   7750.47    9.238590e-02
   7750.76    9.178286e-02
   7751.04    9.119296e-02
   7751.33    9.067525e-02
   7751.62    9.015753e-02
   7751.91    8.963982e-02
   7752.20    8.918184e-02
   7752.49    8.875041e-02
   7752.78    8.831898e-02
   7753.07    8.790361e-02
   7753.36    8.754181e-02
   7753.64    8.718001e-02
   7753.93    8.681821e-02
   7754.22    8.649413e-02
   7754.51    8.618136e-02
   7754.80    8.586860e-02
   7755.09    8.556539e-02
   7755.38    8.528369e-02
   7755.67    8.500198e-02
   7755.96    8.472028e-02
   7756.24    8.445408e-02
   7756.53    8.419069e-02
   7756.82    8.392731e-02
   7757.11    8.366890e-02
   7757.40    8.341843e-02
   7757.69    8.316797e-02
   7757.98    8.291750e-02
   7758.27    8.268546e-02
   7758.56    8.245497e-02
   7758.84    8.222447e-02
   7759.13    8.201306e-02
   7759.42    8.182392e-02
   7759.71    8.163478e-02
   7760.00    8.144565e-02
