 FDMNES
  energy    <xanes>
   7695.00    5.405036e-04
   7695.29    5.461713e-04
   7695.58    5.518391e-04
   7695.87    5.575068e-04
   7696.16    5.633849e-04
   7696.44    5.694433e-04
   7696.73    5.755018e-04
   7697.02    5.815934e-04
   7697.31    5.880834e-04
   7697.60    5.945735e-04
   7697.89    6.010635e-04
   7698.18    6.078479e-04
   7698.47    6.148163e-04
   7698.76    6.217847e-04
   7699.04    6.288350e-04
   7699.33    6.363355e-04
   7699.62    6.438360e-04
   7699.91    6.513364e-04
   7700.20    6.592482e-04
   7700.49    6.673428e-04
   7700.78    6.754374e-04
   7701.07    6.836857e-04
   7701.36    6.924463e-04
   7701.64    7.012069e-04
   7701.93    7.099676e-04
   7702.22    7.193051e-04
   7702.51    7.288158e-04
   7702.80    7.383264e-04
   7703.09    7.480982e-04
   7703.38    7.584574e-04
   7703.67    7.688167e-04
   7703.96    7.791760e-04
   7704.24    7.903520e-04
   7704.53    8.016764e-04
   7704.82    8.130009e-04
   7705.11    8.247500e-04
   7705.40    8.371785e-04
   7705.69    8.496070e-04
   7705.98    8.620355e-04
   7706.27    8.756370e-04
   7706.56    8.893363e-04
   7706.84    9.030356e-04
   7707.13    9.174145e-04
   7707.42    9.325864e-04
   7707.71    9.477584e-04
   7708.00    9.629303e-04
   7708.29    9.798219e-04
   7708.58    9.967135e-04
   7708.87    1.013605e-03
   7709.16    1.031587e-03
   7709.44    1.050504e-03
   7709.73    1.069421e-03
   7710.02    1.088523e-03
   7710.31    1.109847e-03
   7710.60    1.131172e-03
   7710.89    1.152497e-03
   7711.18    1.175602e-03
   7711.47    1.199820e-03
   7711.76    1.224037e-03
   7712.04    1.248797e-03
   7712.33    1.276535e-03
   7712.62    1.304273e-03
   7712.91    1.332010e-03
   7713.20    1.362755e-03
   7713.49    1.394836e-03
   7713.78    1.426916e-03
   7714.07    1.460254e-03
   7714.36    1.497783e-03
   7714.64    1.535311e-03
   7714.93    1.572840e-03
   7715.22    1.615728e-03
   7715.51    1.660225e-03
   7715.80    1.704722e-03
   7716.09    1.752027e-03
   7716.38    1.805652e-03
   7716.67    1.859276e-03
   7716.96    1.912900e-03
   7717.24    1.976939e-03
   7717.53    2.042872e-03
   7717.82    2.108805e-03
   7718.11    2.181365e-03
   7718.40    2.264527e-03
   7718.69    2.347689e-03
   7718.98    2.430852e-03
   7719.27    2.537398e-03
   7719.56    2.645893e-03
   7719.84    2.754389e-03
   7720.13    2.881294e-03
   7720.42    3.029677e-03
   7720.71    3.178060e-03
   7721.00    3.326443e-03
   7721.29    3.544396e-03
   7721.58    3.762349e-03
   7721.87    3.980302e-03
   7722.16    4.275571e-03
   7722.44    4.637110e-03
   7722.73    4.998650e-03
   7723.02    5.391281e-03
   7723.31    6.157013e-03
   7723.60    6.922744e-03
   7723.89    7.688475e-03
   7724.18    9.442544e-03
   7724.47    1.181432e-02
   7724.76    1.418610e-02
   7725.04    1.674969e-02
   7725.33    2.025648e-02
   7725.62    2.331108e-02
   7725.91    2.590201e-02
   7726.20    2.832149e-02
   7726.49    3.078942e-02
   7726.78    3.346321e-02
   7727.07    3.653056e-02
   7727.36    4.006385e-02
   7727.64    4.417751e-02
   7727.93    4.892414e-02
   7728.22    5.428182e-02
   7728.51    6.026269e-02
   7728.80    6.666093e-02
   7729.09    7.335199e-02
   7729.38    8.005236e-02
   7729.67    8.643587e-02
   7729.96    9.217828e-02
   7730.24    9.688280e-02
   7730.53    1.000921e-01
   7730.82    1.017783e-01
   7731.11    1.020874e-01
   7731.40    1.013069e-01
   7731.69    9.980626e-02
   7731.98    9.796093e-02
   7732.27    9.609964e-02
   7732.56    9.447623e-02
   7732.84    9.321188e-02
   7733.13    9.236538e-02
   7733.42    9.194833e-02
   7733.71    9.193983e-02
   7734.00    9.229777e-02
   7734.29    9.299562e-02
   7734.58    9.392358e-02
   7734.87    9.500733e-02
   7735.16    9.616986e-02
   7735.44    9.733852e-02
   7735.73    9.845043e-02
   7736.02    9.944416e-02
   7736.31    1.002787e-01
   7736.60    1.009377e-01
   7736.89    1.014135e-01
   7737.18    1.017126e-01
   7737.47    1.018546e-01
   7737.76    1.018675e-01
   7738.04    1.017838e-01
   7738.33    1.016531e-01
   7738.62    1.015099e-01
   7738.91    1.013835e-01
   7739.20    1.012966e-01
   7739.49    1.012654e-01
   7739.78    1.013052e-01
   7740.07    1.014331e-01
   7740.36    1.016647e-01
   7740.64    1.018962e-01
   7740.93    1.021277e-01
   7741.22    1.024567e-01
   7741.51    1.028149e-01
   7741.80    1.031731e-01
   7742.09    1.035221e-01
   7742.38    1.038502e-01
   7742.67    1.041782e-01
   7742.96    1.045063e-01
   7743.24    1.046719e-01
   7743.53    1.048079e-01
   7743.82    1.049440e-01
   7744.11    1.049598e-01
   7744.40    1.047831e-01
   7744.69    1.046064e-01
   7744.98    1.044298e-01
   7745.27    1.039332e-01
   7745.56    1.034100e-01
   7745.84    1.028868e-01
   7746.13    1.022358e-01
   7746.42    1.014357e-01
   7746.71    1.006356e-01
   7747.00    9.983550e-02
   7747.29    9.889511e-02
   7747.58    9.795472e-02
   7747.87    9.701433e-02
   7748.16    9.607305e-02
   7748.44    9.513101e-02
   7748.73    9.418896e-02
   7749.02    9.325446e-02
   7749.31    9.241048e-02
   7749.60    9.156649e-02
   7749.89    9.072250e-02
   7750.18    8.996901e-02
   7750.47    8.927207e-02
   7750.76    8.857512e-02
   7751.04    8.789989e-02
   7751.33    8.734406e-02
   7751.62    8.678823e-02
   7751.91    8.623240e-02
   7752.20    8.575049e-02
   7752.49    8.530143e-02
   7752.78    8.485237e-02
   7753.07    8.441867e-02
   7753.36    8.403618e-02
   7753.64    8.365370e-02
   7753.93    8.327121e-02
   7754.22    8.291113e-02
   7754.51    8.255778e-02
   7754.80    8.220443e-02
   7755.09    8.185068e-02
   7755.38    8.149602e-02
   7755.67    8.114137e-02
   7755.96    8.078671e-02
   7756.24    8.041460e-02
   7756.53    8.003931e-02
   7756.82    7.966402e-02
   7757.11    7.928018e-02
   7757.40    7.888265e-02
   7757.69    7.848511e-02
   7757.98    7.808758e-02
   7758.27    7.769201e-02
   7758.56    7.729661e-02
   7758.84    7.690120e-02
   7759.13    7.653110e-02
   7759.42    7.619053e-02
   7759.71    7.584996e-02
   7760.00    7.550939e-02
