 FDMNES
  energy    <xanes>
   7695.00    5.452800e-04
   7695.29    5.511622e-04
   7695.58    5.570444e-04
   7695.87    5.629267e-04
   7696.16    5.690341e-04
   7696.44    5.753346e-04
   7696.73    5.816351e-04
   7697.02    5.879713e-04
   7697.31    5.947352e-04
   7697.60    6.014991e-04
   7697.89    6.082630e-04
   7698.18    6.153440e-04
   7698.47    6.226232e-04
   7698.76    6.299023e-04
   7699.04    6.372699e-04
   7699.33    6.451240e-04
   7699.62    6.529780e-04
   7699.91    6.608321e-04
   7700.20    6.691321e-04
   7700.49    6.776303e-04
   7700.78    6.861285e-04
   7701.07    6.947939e-04
   7701.36    7.040168e-04
   7701.64    7.132397e-04
   7701.93    7.224626e-04
   7702.22    7.323157e-04
   7702.51    7.423578e-04
   7702.80    7.524000e-04
   7703.09    7.627285e-04
   7703.38    7.737013e-04
   7703.67    7.846741e-04
   7703.96    7.956469e-04
   7704.24    8.075192e-04
   7704.53    8.195550e-04
   7704.82    8.315909e-04
   7705.11    8.440966e-04
   7705.40    8.573540e-04
   7705.69    8.706113e-04
   7705.98    8.838687e-04
   7706.27    8.984302e-04
   7706.56    9.131003e-04
   7706.84    9.277705e-04
   7707.13    9.432002e-04
   7707.42    9.595160e-04
   7707.71    9.758318e-04
   7708.00    9.921477e-04
   7708.29    1.010396e-03
   7708.58    1.028644e-03
   7708.87    1.046892e-03
   7709.16    1.066373e-03
   7709.44    1.086910e-03
   7709.73    1.107447e-03
   7710.02    1.128194e-03
   7710.31    1.151470e-03
   7710.60    1.174745e-03
   7710.89    1.198020e-03
   7711.18    1.223334e-03
   7711.47    1.249922e-03
   7711.76    1.276510e-03
   7712.04    1.303723e-03
   7712.33    1.334370e-03
   7712.62    1.365017e-03
   7712.91    1.395664e-03
   7713.20    1.429804e-03
   7713.49    1.465498e-03
   7713.78    1.501191e-03
   7714.07    1.538357e-03
   7714.36    1.580433e-03
   7714.64    1.622508e-03
   7714.93    1.664584e-03
   7715.22    1.712995e-03
   7715.51    1.763306e-03
   7715.80    1.813617e-03
   7716.09    1.867279e-03
   7716.38    1.928478e-03
   7716.67    1.989677e-03
   7716.96    2.050876e-03
   7717.24    2.124622e-03
   7717.53    2.200650e-03
   7717.82    2.276678e-03
   7718.11    2.360771e-03
   7718.40    2.457768e-03
   7718.69    2.554765e-03
   7718.98    2.651762e-03
   7719.27    2.777512e-03
   7719.56    2.905657e-03
   7719.84    3.033802e-03
   7720.13    3.184797e-03
   7720.42    3.362448e-03
   7720.71    3.540100e-03
   7721.00    3.717751e-03
   7721.29    3.982316e-03
   7721.58    4.246881e-03
   7721.87    4.511446e-03
   7722.16    4.872534e-03
   7722.44    5.316355e-03
   7722.73    5.760176e-03
   7723.02    6.242162e-03
   7723.31    7.182114e-03
   7723.60    8.122066e-03
   7723.89    9.062018e-03
   7724.18    1.119584e-02
   7724.47    1.407583e-02
   7724.76    1.695582e-02
   7725.04    2.009513e-02
   7725.33    2.462928e-02
   7725.62    2.895425e-02
   7725.91    3.308215e-02
   7726.20    3.723444e-02
   7726.49    4.158933e-02
   7726.78    4.616550e-02
   7727.07    5.096185e-02
   7727.36    5.585545e-02
   7727.64    6.075156e-02
   7727.93    6.567080e-02
   7728.22    7.079296e-02
   7728.51    7.642594e-02
   7728.80    8.266136e-02
   7729.09    8.958273e-02
   7729.38    9.678344e-02
   7729.67    1.037670e-01
   7729.96    1.099780e-01
   7730.24    1.148809e-01
   7730.53    1.179920e-01
   7730.82    1.193846e-01
   7731.11    1.192799e-01
   7731.40    1.179851e-01
   7731.69    1.158382e-01
   7731.98    1.131629e-01
   7732.27    1.102471e-01
   7732.56    1.073572e-01
   7732.84    1.046713e-01
   7733.13    1.022976e-01
   7733.42    1.002957e-01
   7733.71    9.868593e-02
   7734.00    9.745940e-02
   7734.29    9.662440e-02
   7734.58    9.609221e-02
   7734.87    9.581400e-02
   7735.16    9.573919e-02
   7735.44    9.581760e-02
   7735.73    9.600065e-02
   7736.02    9.624305e-02
   7736.31    9.649504e-02
   7736.60    9.671662e-02
   7736.89    9.687646e-02
   7737.18    9.695082e-02
   7737.47    9.692484e-02
   7737.76    9.679138e-02
   7738.04    9.654711e-02
   7738.33    9.621649e-02
   7738.62    9.581842e-02
   7738.91    9.537474e-02
   7739.20    9.490772e-02
   7739.49    9.443789e-02
   7739.78    9.398449e-02
   7740.07    9.357119e-02
   7740.36    9.321838e-02
   7740.64    9.286557e-02
   7740.93    9.251276e-02
   7741.22    9.223834e-02
   7741.51    9.198743e-02
   7741.80    9.173652e-02
   7742.09    9.148892e-02
   7742.38    9.124878e-02
   7742.67    9.100864e-02
   7742.96    9.076850e-02
   7743.24    9.049243e-02
   7743.53    9.020983e-02
   7743.82    8.992722e-02
   7744.11    8.963129e-02
   7744.40    8.931404e-02
   7744.69    8.899678e-02
   7744.98    8.867952e-02
   7745.27    8.835155e-02
   7745.56    8.802268e-02
   7745.84    8.769381e-02
   7746.13    8.736611e-02
   7746.42    8.703978e-02
   7746.71    8.671345e-02
   7747.00    8.638713e-02
   7747.29    8.607003e-02
   7747.58    8.575293e-02
   7747.87    8.543583e-02
   7748.16    8.512831e-02
   7748.44    8.482899e-02
   7748.73    8.452967e-02
   7749.02    8.423243e-02
   7749.31    8.396008e-02
   7749.60    8.368774e-02
   7749.89    8.341540e-02
   7750.18    8.316137e-02
   7750.47    8.291879e-02
   7750.76    8.267621e-02
   7751.04    8.243707e-02
   7751.33    8.221691e-02
   7751.62    8.199674e-02
   7751.91    8.177657e-02
   7752.20    8.156078e-02
   7752.49    8.134694e-02
   7752.78    8.113310e-02
   7753.07    8.091616e-02
   7753.36    8.068887e-02
   7753.64    8.046158e-02
   7753.93    8.023429e-02
   7754.22    7.998347e-02
   7754.51    7.972559e-02
   7754.80    7.946771e-02
   7755.09    7.919778e-02
   7755.38    7.890076e-02
   7755.67    7.860374e-02
   7755.96    7.830672e-02
   7756.24    7.798030e-02
   7756.53    7.764853e-02
   7756.82    7.731676e-02
   7757.11    7.697905e-02
   7757.40    7.663184e-02
   7757.69    7.628464e-02
   7757.98    7.593743e-02
   7758.27    7.560688e-02
   7758.56    7.527773e-02
   7758.84    7.494857e-02
   7759.13    7.464683e-02
   7759.42    7.437707e-02
   7759.71    7.410731e-02
   7760.00    7.383755e-02
