 FDMNES
  energy    <xanes>
   7695.00    5.330257e-04
   7695.29    5.387226e-04
   7695.58    5.444195e-04
   7695.87    5.501165e-04
   7696.16    5.560282e-04
   7696.44    5.621241e-04
   7696.73    5.682200e-04
   7697.02    5.743498e-04
   7697.31    5.808868e-04
   7697.60    5.874239e-04
   7697.89    5.939610e-04
   7698.18    6.007994e-04
   7698.47    6.078261e-04
   7698.76    6.148527e-04
   7699.04    6.219633e-04
   7699.33    6.295353e-04
   7699.62    6.371072e-04
   7699.91    6.446791e-04
   7700.20    6.526731e-04
   7700.49    6.608546e-04
   7700.78    6.690361e-04
   7701.07    6.773756e-04
   7701.36    6.862414e-04
   7701.64    6.951072e-04
   7701.93    7.039730e-04
   7702.22    7.134324e-04
   7702.51    7.230698e-04
   7702.80    7.327072e-04
   7703.09    7.426135e-04
   7703.38    7.531252e-04
   7703.67    7.636368e-04
   7703.96    7.741484e-04
   7704.24    7.855025e-04
   7704.53    7.970098e-04
   7704.82    8.085171e-04
   7705.11    8.204631e-04
   7705.40    8.331109e-04
   7705.69    8.457586e-04
   7705.98    8.584064e-04
   7706.27    8.722677e-04
   7706.56    8.862300e-04
   7706.84    9.001924e-04
   7707.13    9.148588e-04
   7707.42    9.303467e-04
   7707.71    9.458346e-04
   7708.00    9.613225e-04
   7708.29    9.785943e-04
   7708.58    9.958662e-04
   7708.87    1.013138e-03
   7709.16    1.031543e-03
   7709.44    1.050918e-03
   7709.73    1.070293e-03
   7710.02    1.089862e-03
   7710.31    1.111741e-03
   7710.60    1.133621e-03
   7710.89    1.155500e-03
   7711.18    1.179234e-03
   7711.47    1.204127e-03
   7711.76    1.229019e-03
   7712.04    1.254476e-03
   7712.33    1.283037e-03
   7712.62    1.311598e-03
   7712.91    1.340159e-03
   7713.20    1.371857e-03
   7713.49    1.404948e-03
   7713.78    1.438039e-03
   7714.07    1.472442e-03
   7714.36    1.511218e-03
   7714.64    1.549994e-03
   7714.93    1.588770e-03
   7715.22    1.633139e-03
   7715.51    1.679186e-03
   7715.80    1.725232e-03
   7716.09    1.774207e-03
   7716.38    1.829769e-03
   7716.67    1.885331e-03
   7716.96    1.940893e-03
   7717.24    2.007293e-03
   7717.53    2.075663e-03
   7717.82    2.144033e-03
   7718.11    2.219275e-03
   7718.40    2.305512e-03
   7718.69    2.391748e-03
   7718.98    2.477985e-03
   7719.27    2.588328e-03
   7719.56    2.700680e-03
   7719.84    2.813032e-03
   7720.13    2.944182e-03
   7720.42    3.097262e-03
   7720.71    3.250343e-03
   7721.00    3.403424e-03
   7721.29    3.626446e-03
   7721.58    3.849468e-03
   7721.87    4.072490e-03
   7722.16    4.371310e-03
   7722.44    4.735100e-03
   7722.73    5.098890e-03
   7723.02    5.491991e-03
   7723.31    6.236823e-03
   7723.60    6.981655e-03
   7723.89    7.726488e-03
   7724.18    9.374489e-03
   7724.47    1.158697e-02
   7724.76    1.379945e-02
   7725.04    1.619916e-02
   7725.33    1.956944e-02
   7725.62    2.265025e-02
   7725.91    2.541770e-02
   7726.20    2.812922e-02
   7726.49    3.109059e-02
   7726.78    3.447494e-02
   7727.07    3.851705e-02
   7727.36    4.321242e-02
   7727.64    4.855906e-02
   7727.93    5.442073e-02
   7728.22    6.057584e-02
   7728.51    6.685434e-02
   7728.80    7.313268e-02
   7729.09    7.939084e-02
   7729.38    8.564647e-02
   7729.67    9.184572e-02
   7729.96    9.784026e-02
   7730.24    1.033861e-01
   7730.53    1.081321e-01
   7730.82    1.118796e-01
   7731.11    1.144768e-01
   7731.40    1.158351e-01
   7731.69    1.159709e-01
   7731.98    1.150216e-01
   7732.27    1.132012e-01
   7732.56    1.108456e-01
   7732.84    1.083008e-01
   7733.13    1.058073e-01
   7733.42    1.035386e-01
   7733.71    1.016018e-01
   7734.00    1.000497e-01
   7734.29    9.893856e-02
   7734.58    9.819823e-02
   7734.87    9.778759e-02
   7735.16    9.765321e-02
   7735.44    9.773251e-02
   7735.73    9.795630e-02
   7736.02    9.825093e-02
   7736.31    9.853110e-02
   7736.60    9.872681e-02
   7736.89    9.878331e-02
   7737.18    9.866394e-02
   7737.47    9.835447e-02
   7737.76    9.786209e-02
   7738.04    9.721178e-02
   7738.33    9.647222e-02
   7738.62    9.570024e-02
   7738.91    9.495145e-02
   7739.20    9.427450e-02
   7739.49    9.370738e-02
   7739.78    9.328852e-02
   7740.07    9.306735e-02
   7740.36    9.309245e-02
   7740.64    9.311755e-02
   7740.93    9.314265e-02
   7741.22    9.346090e-02
   7741.51    9.386711e-02
   7741.80    9.427331e-02
   7742.09    9.471260e-02
   7742.38    9.522631e-02
   7742.67    9.574003e-02
   7742.96    9.625374e-02
   7743.24    9.662252e-02
   7743.53    9.696495e-02
   7743.82    9.730738e-02
   7744.11    9.751800e-02
   7744.40    9.751773e-02
   7744.69    9.751745e-02
   7744.98    9.751718e-02
   7745.27    9.719218e-02
   7745.56    9.684013e-02
   7745.84    9.648807e-02
   7746.13    9.602619e-02
   7746.42    9.543619e-02
   7746.71    9.484618e-02
   7747.00    9.425617e-02
   7747.29    9.357459e-02
   7747.58    9.289302e-02
   7747.87    9.221144e-02
   7748.16    9.153939e-02
   7748.44    9.087551e-02
   7748.73    9.021163e-02
   7749.02    8.955232e-02
   7749.31    8.894783e-02
   7749.60    8.834333e-02
   7749.89    8.773884e-02
   7750.18    8.717117e-02
   7750.47    8.662653e-02
   7750.76    8.608189e-02
   7751.04    8.554438e-02
   7751.33    8.504611e-02
   7751.62    8.454784e-02
   7751.91    8.404957e-02
   7752.20    8.357202e-02
   7752.49    8.310368e-02
   7752.78    8.263534e-02
   7753.07    8.217057e-02
   7753.36    8.171769e-02
   7753.64    8.126482e-02
   7753.93    8.081194e-02
   7754.22    8.036328e-02
   7754.51    7.991588e-02
   7754.80    7.946848e-02
   7755.09    7.902155e-02
   7755.38    7.857565e-02
   7755.67    7.812976e-02
   7755.96    7.768387e-02
   7756.24    7.724190e-02
   7756.53    7.680065e-02
   7756.82    7.635940e-02
   7757.11    7.592435e-02
   7757.40    7.549924e-02
   7757.69    7.507413e-02
   7757.98    7.464901e-02
   7758.27    7.425986e-02
   7758.56    7.387371e-02
   7758.84    7.348755e-02
   7759.13    7.313512e-02
   7759.42    7.282202e-02
   7759.71    7.250892e-02
   7760.00    7.219582e-02
