 FDMNES
  energy    <xanes>
   7695.00    5.423360e-04
   7695.29    5.479692e-04
   7695.58    5.536023e-04
   7695.87    5.592355e-04
   7696.16    5.650761e-04
   7696.44    5.710945e-04
   7696.73    5.771129e-04
   7697.02    5.831640e-04
   7697.31    5.896076e-04
   7697.60    5.960512e-04
   7697.89    6.024948e-04
   7698.18    6.092282e-04
   7698.47    6.161427e-04
   7698.76    6.230572e-04
   7699.04    6.300522e-04
   7699.33    6.374900e-04
   7699.62    6.449278e-04
   7699.91    6.523656e-04
   7700.20    6.602075e-04
   7700.49    6.682290e-04
   7700.78    6.762504e-04
   7701.07    6.844228e-04
   7701.36    6.930980e-04
   7701.64    7.017731e-04
   7701.93    7.104483e-04
   7702.22    7.196891e-04
   7702.51    7.290995e-04
   7702.80    7.385099e-04
   7703.09    7.481759e-04
   7703.38    7.584171e-04
   7703.67    7.686583e-04
   7703.96    7.788995e-04
   7704.24    7.899391e-04
   7704.53    8.011239e-04
   7704.82    8.123086e-04
   7705.11    8.239079e-04
   7705.40    8.361702e-04
   7705.69    8.484326e-04
   7705.98    8.606949e-04
   7706.27    8.741001e-04
   7706.56    8.876005e-04
   7706.84    9.011009e-04
   7707.13    9.152622e-04
   7707.42    9.301946e-04
   7707.71    9.451269e-04
   7708.00    9.600593e-04
   7708.29    9.766600e-04
   7708.58    9.932607e-04
   7708.87    1.009861e-03
   7709.16    1.027517e-03
   7709.44    1.046078e-03
   7709.73    1.064638e-03
   7710.02    1.083378e-03
   7710.31    1.104261e-03
   7710.60    1.125145e-03
   7710.89    1.146028e-03
   7711.18    1.168624e-03
   7711.47    1.192290e-03
   7711.76    1.215956e-03
   7712.04    1.240141e-03
   7712.33    1.267179e-03
   7712.62    1.294216e-03
   7712.91    1.321254e-03
   7713.20    1.351159e-03
   7713.49    1.382338e-03
   7713.78    1.413517e-03
   7714.07    1.445888e-03
   7714.36    1.482234e-03
   7714.64    1.518580e-03
   7714.93    1.554925e-03
   7715.22    1.596323e-03
   7715.51    1.639236e-03
   7715.80    1.682148e-03
   7716.09    1.727687e-03
   7716.38    1.779134e-03
   7716.67    1.830581e-03
   7716.96    1.882028e-03
   7717.24    1.943121e-03
   7717.53    2.005967e-03
   7717.82    2.068813e-03
   7718.11    2.137723e-03
   7718.40    2.216333e-03
   7718.69    2.294944e-03
   7718.98    2.373555e-03
   7719.27    2.473230e-03
   7719.56    2.574660e-03
   7719.84    2.676091e-03
   7720.13    2.793766e-03
   7720.42    2.930393e-03
   7720.71    3.067021e-03
   7721.00    3.203648e-03
   7721.29    3.399954e-03
   7721.58    3.596260e-03
   7721.87    3.792565e-03
   7722.16    4.052606e-03
   7722.44    4.367276e-03
   7722.73    4.681947e-03
   7723.02    5.020868e-03
   7723.31    5.650801e-03
   7723.60    6.280734e-03
   7723.89    6.910666e-03
   7724.18    8.278160e-03
   7724.47    1.010663e-02
   7724.76    1.193510e-02
   7725.04    1.391644e-02
   7725.33    1.669704e-02
   7725.62    1.927631e-02
   7725.91    2.165949e-02
   7726.20    2.402790e-02
   7726.49    2.656915e-02
   7726.78    2.938207e-02
   7727.07    3.263258e-02
   7727.36    3.635792e-02
   7727.64    4.064399e-02
   7727.93    4.552150e-02
   7728.22    5.095329e-02
   7728.51    5.693471e-02
   7728.80    6.326520e-02
   7729.09    6.978303e-02
   7729.38    7.620743e-02
   7729.67    8.223635e-02
   7729.96    8.769322e-02
   7730.24    9.241402e-02
   7730.53    9.621545e-02
   7730.82    9.908060e-02
   7731.11    1.009830e-01
   7731.40    1.019472e-01
   7731.69    1.020999e-01
   7731.98    1.016655e-01
   7732.27    1.009130e-01
   7732.56    1.001206e-01
   7732.84    9.947182e-02
   7733.13    9.905764e-02
   7733.42    9.890892e-02
   7733.71    9.901447e-02
   7734.00    9.933708e-02
   7734.29    9.983744e-02
   7734.58    1.004314e-01
   7734.87    1.010603e-01
   7735.16    1.016709e-01
   7735.44    1.022191e-01
   7735.73    1.026726e-01
   7736.02    1.030030e-01
   7736.31    1.032049e-01
   7736.60    1.032894e-01
   7736.89    1.032694e-01
   7737.18    1.031629e-01
   7737.47    1.029913e-01
   7737.76    1.027772e-01
   7738.04    1.025439e-01
   7738.33    1.023159e-01
   7738.62    1.021112e-01
   7738.91    1.019445e-01
   7739.20    1.018274e-01
   7739.49    1.017679e-01
   7739.78    1.017757e-01
   7740.07    1.018633e-01
   7740.36    1.020427e-01
   7740.64    1.022221e-01
   7740.93    1.024015e-01
   7741.22    1.026564e-01
   7741.51    1.029338e-01
   7741.80    1.032113e-01
   7742.09    1.034649e-01
   7742.38    1.036645e-01
   7742.67    1.038641e-01
   7742.96    1.040637e-01
   7743.24    1.040485e-01
   7743.53    1.039942e-01
   7743.82    1.039399e-01
   7744.11    1.037525e-01
   7744.40    1.033519e-01
   7744.69    1.029512e-01
   7744.98    1.025506e-01
   7745.27    1.018598e-01
   7745.56    1.011449e-01
   7745.84    1.004299e-01
   7746.13    9.962680e-02
   7746.42    9.872091e-02
   7746.71    9.781502e-02
   7747.00    9.690913e-02
   7747.29    9.595586e-02
   7747.58    9.500259e-02
   7747.87    9.404932e-02
   7748.16    9.312902e-02
   7748.44    9.223700e-02
   7748.73    9.134498e-02
   7749.02    9.046205e-02
   7749.31    8.968827e-02
   7749.60    8.891449e-02
   7749.89    8.814071e-02
   7750.18    8.744849e-02
   7750.47    8.680724e-02
   7750.76    8.616598e-02
   7751.04    8.554327e-02
   7751.33    8.502252e-02
   7751.62    8.450176e-02
   7751.91    8.398101e-02
   7752.20    8.352757e-02
   7752.49    8.310405e-02
   7752.78    8.268052e-02
   7753.07    8.227407e-02
   7753.36    8.192450e-02
   7753.64    8.157493e-02
   7753.93    8.122536e-02
   7754.22    8.091785e-02
   7754.51    8.062295e-02
   7754.80    8.032806e-02
   7755.09    8.004426e-02
   7755.38    7.978542e-02
   7755.67    7.952659e-02
   7755.96    7.926775e-02
   7756.24    7.902497e-02
   7756.53    7.878510e-02
   7756.82    7.854523e-02
   7757.11    7.830831e-02
   7757.40    7.807609e-02
   7757.69    7.784387e-02
   7757.98    7.761166e-02
   7758.27    7.738773e-02
   7758.56    7.716449e-02
   7758.84    7.694126e-02
   7759.13    7.673198e-02
   7759.42    7.653899e-02
   7759.71    7.634600e-02
   7760.00    7.615301e-02
