 FDMNES
  energy    <xanes>
   7695.00    5.493131e-04
   7695.29    5.549176e-04
   7695.58    5.605221e-04
   7695.87    5.661266e-04
   7696.16    5.719356e-04
   7696.44    5.779200e-04
   7696.73    5.839044e-04
   7697.02    5.899210e-04
   7697.31    5.963246e-04
   7697.60    6.027282e-04
   7697.89    6.091318e-04
   7698.18    6.158211e-04
   7698.47    6.226889e-04
   7698.76    6.295568e-04
   7699.04    6.365040e-04
   7699.33    6.438878e-04
   7699.62    6.512716e-04
   7699.91    6.586554e-04
   7700.20    6.664376e-04
   7700.49    6.743970e-04
   7700.78    6.823564e-04
   7701.07    6.904645e-04
   7701.36    6.990686e-04
   7701.64    7.076727e-04
   7701.93    7.162767e-04
   7702.22    7.254388e-04
   7702.51    7.347683e-04
   7702.80    7.440978e-04
   7703.09    7.536797e-04
   7703.38    7.638293e-04
   7703.67    7.739790e-04
   7703.96    7.841286e-04
   7704.24    7.950669e-04
   7704.53    8.061487e-04
   7704.82    8.172305e-04
   7705.11    8.287220e-04
   7705.40    8.408693e-04
   7705.69    8.530166e-04
   7705.98    8.651638e-04
   7706.27    8.784425e-04
   7706.56    8.918154e-04
   7706.84    9.051883e-04
   7707.13    9.192164e-04
   7707.42    9.340090e-04
   7707.71    9.488016e-04
   7708.00    9.635942e-04
   7708.29    9.800439e-04
   7708.58    9.964937e-04
   7708.87    1.012943e-03
   7709.16    1.030444e-03
   7709.44    1.048845e-03
   7709.73    1.067246e-03
   7710.02    1.085825e-03
   7710.31    1.106546e-03
   7710.60    1.127266e-03
   7710.89    1.147987e-03
   7711.18    1.170423e-03
   7711.47    1.193932e-03
   7711.76    1.217440e-03
   7712.04    1.241471e-03
   7712.33    1.268373e-03
   7712.62    1.295275e-03
   7712.91    1.322177e-03
   7713.20    1.351981e-03
   7713.49    1.383074e-03
   7713.78    1.414167e-03
   7714.07    1.446475e-03
   7714.36    1.482832e-03
   7714.64    1.519189e-03
   7714.93    1.555546e-03
   7715.22    1.597094e-03
   7715.51    1.640199e-03
   7715.80    1.683304e-03
   7716.09    1.729136e-03
   7716.38    1.781104e-03
   7716.67    1.833073e-03
   7716.96    1.885041e-03
   7717.24    1.947164e-03
   7717.53    2.011133e-03
   7717.82    2.075103e-03
   7718.11    2.145568e-03
   7718.40    2.226427e-03
   7718.69    2.307286e-03
   7718.98    2.388145e-03
   7719.27    2.492097e-03
   7719.56    2.597973e-03
   7719.84    2.703849e-03
   7720.13    2.828088e-03
   7720.42    2.973750e-03
   7720.71    3.119412e-03
   7721.00    3.265074e-03
   7721.29    3.481067e-03
   7721.58    3.697061e-03
   7721.87    3.913055e-03
   7722.16    4.208617e-03
   7722.44    4.572380e-03
   7722.73    4.936144e-03
   7723.02    5.332613e-03
   7723.31    6.121543e-03
   7723.60    6.910472e-03
   7723.89    7.699402e-03
   7724.18    9.548426e-03
   7724.47    1.206001e-02
   7724.76    1.457159e-02
   7725.04    1.728997e-02
   7725.33    2.101254e-02
   7725.62    2.417783e-02
   7725.91    2.671491e-02
   7726.20    2.896665e-02
   7726.49    3.121163e-02
   7726.78    3.368314e-02
   7727.07    3.661246e-02
   7727.36    4.007599e-02
   7727.64    4.418436e-02
   7727.93    4.896343e-02
   7728.22    5.432895e-02
   7728.51    6.017737e-02
   7728.80    6.619146e-02
   7729.09    7.198137e-02
   7729.38    7.721507e-02
   7729.67    8.143279e-02
   7729.96    8.453649e-02
   7730.24    8.647308e-02
   7730.53    8.728827e-02
   7730.82    8.729699e-02
   7731.11    8.676284e-02
   7731.40    8.592094e-02
   7731.69    8.496823e-02
   7731.98    8.404854e-02
   7732.27    8.326439e-02
   7732.56    8.267823e-02
   7732.84    8.230705e-02
   7733.13    8.216670e-02
   7733.42    8.226732e-02
   7733.71    8.261481e-02
   7734.00    8.321021e-02
   7734.29    8.407556e-02
   7734.58    8.516591e-02
   7734.87    8.645654e-02
   7735.16    8.791379e-02
   7735.44    8.949681e-02
   7735.73    9.115973e-02
   7736.02    9.285233e-02
   7736.31    9.451775e-02
   7736.60    9.610921e-02
   7736.89    9.758756e-02
   7737.18    9.892272e-02
   7737.47    1.000954e-01
   7737.76    1.010950e-01
   7738.04    1.019121e-01
   7738.33    1.025787e-01
   7738.62    1.031157e-01
   7738.91    1.035473e-01
   7739.20    1.038985e-01
   7739.49    1.041927e-01
   7739.78    1.044480e-01
   7740.07    1.046800e-01
   7740.36    1.048952e-01
   7740.64    1.051104e-01
   7740.93    1.053256e-01
   7741.22    1.054987e-01
   7741.51    1.056592e-01
   7741.80    1.058197e-01
   7742.09    1.059336e-01
   7742.38    1.059429e-01
   7742.67    1.059522e-01
   7742.96    1.059615e-01
   7743.24    1.057762e-01
   7743.53    1.055556e-01
   7743.82    1.053350e-01
   7744.11    1.050251e-01
   7744.40    1.045726e-01
   7744.69    1.041201e-01
   7744.98    1.036676e-01
   7745.27    1.030580e-01
   7745.56    1.024353e-01
   7745.84    1.018126e-01
   7746.13    1.011511e-01
   7746.42    1.004442e-01
   7746.71    9.973733e-02
   7747.00    9.903047e-02
   7747.29    9.832021e-02
   7747.58    9.760995e-02
   7747.87    9.689968e-02
   7748.16    9.622053e-02
   7748.44    9.556805e-02
   7748.73    9.491557e-02
   7749.02    9.427022e-02
   7749.31    9.371042e-02
   7749.60    9.315062e-02
   7749.89    9.259082e-02
   7750.18    9.209267e-02
   7750.47    9.163305e-02
   7750.76    9.117343e-02
   7751.04    9.072701e-02
   7751.33    9.035320e-02
   7751.62    8.997940e-02
   7751.91    8.960559e-02
   7752.20    8.927263e-02
   7752.49    8.895782e-02
   7752.78    8.864300e-02
   7753.07    8.833477e-02
   7753.36    8.804846e-02
   7753.64    8.776215e-02
   7753.93    8.747585e-02
   7754.22    8.718974e-02
   7754.51    8.690370e-02
   7754.80    8.661766e-02
   7755.09    8.632499e-02
   7755.38    8.601741e-02
   7755.67    8.570983e-02
   7755.96    8.540225e-02
   7756.24    8.506963e-02
   7756.53    8.473245e-02
   7756.82    8.439526e-02
   7757.11    8.405088e-02
   7757.40    8.369498e-02
   7757.69    8.333908e-02
   7757.98    8.298317e-02
   7758.27    8.263414e-02
   7758.56    8.228567e-02
   7758.84    8.193721e-02
   7759.13    8.161273e-02
   7759.42    8.131622e-02
   7759.71    8.101972e-02
   7760.00    8.072321e-02
