 FDMNES
  energy    <xanes>
   7695.00    5.258159e-04
   7695.29    5.315694e-04
   7695.58    5.373229e-04
   7695.87    5.430764e-04
   7696.16    5.490513e-04
   7696.44    5.552158e-04
   7696.73    5.613803e-04
   7697.02    5.675799e-04
   7697.31    5.741997e-04
   7697.60    5.808196e-04
   7697.89    5.874395e-04
   7698.18    5.943708e-04
   7698.47    6.014968e-04
   7698.76    6.086228e-04
   7699.04    6.158356e-04
   7699.33    6.235263e-04
   7699.62    6.312170e-04
   7699.91    6.389077e-04
   7700.20    6.470362e-04
   7700.49    6.553594e-04
   7700.78    6.636826e-04
   7701.07    6.721699e-04
   7701.36    6.812045e-04
   7701.64    6.902391e-04
   7701.93    6.992736e-04
   7702.22    7.089266e-04
   7702.51    7.187650e-04
   7702.80    7.286034e-04
   7703.09    7.387227e-04
   7703.38    7.494738e-04
   7703.67    7.602250e-04
   7703.96    7.709761e-04
   7704.24    7.826089e-04
   7704.53    7.944020e-04
   7704.82    8.061951e-04
   7705.11    8.184483e-04
   7705.40    8.314377e-04
   7705.69    8.444271e-04
   7705.98    8.574165e-04
   7706.27    8.716820e-04
   7706.56    8.860537e-04
   7706.84    9.004255e-04
   7707.13    9.155397e-04
   7707.42    9.315200e-04
   7707.71    9.475003e-04
   7708.00    9.634806e-04
   7708.29    9.813470e-04
   7708.58    9.992135e-04
   7708.87    1.017080e-03
   7709.16    1.036147e-03
   7709.44    1.056244e-03
   7709.73    1.076341e-03
   7710.02    1.096643e-03
   7710.31    1.119404e-03
   7710.60    1.142164e-03
   7710.89    1.164925e-03
   7711.18    1.189663e-03
   7711.47    1.215638e-03
   7711.76    1.241612e-03
   7712.04    1.268191e-03
   7712.33    1.298092e-03
   7712.62    1.327994e-03
   7712.91    1.357895e-03
   7713.20    1.391164e-03
   7713.49    1.425930e-03
   7713.78    1.460696e-03
   7714.07    1.496874e-03
   7714.36    1.537764e-03
   7714.64    1.578653e-03
   7714.93    1.619543e-03
   7715.22    1.666476e-03
   7715.51    1.715222e-03
   7715.80    1.763968e-03
   7716.09    1.815886e-03
   7716.38    1.874941e-03
   7716.67    1.933995e-03
   7716.96    1.993050e-03
   7717.24    2.063869e-03
   7717.53    2.136826e-03
   7717.82    2.209784e-03
   7718.11    2.290203e-03
   7718.40    2.382562e-03
   7718.69    2.474920e-03
   7718.98    2.567279e-03
   7719.27    2.685757e-03
   7719.56    2.806412e-03
   7719.84    2.927066e-03
   7720.13    3.067943e-03
   7720.42    3.232413e-03
   7720.71    3.396883e-03
   7721.00    3.561353e-03
   7721.29    3.799830e-03
   7721.58    4.038308e-03
   7721.87    4.276786e-03
   7722.16    4.592725e-03
   7722.44    4.975059e-03
   7722.73    5.357393e-03
   7723.02    5.767697e-03
   7723.31    6.513633e-03
   7723.60    7.259569e-03
   7723.89    8.005506e-03
   7724.18    9.551210e-03
   7724.47    1.159677e-02
   7724.76    1.364233e-02
   7725.04    1.587056e-02
   7725.33    1.914300e-02
   7725.62    2.251054e-02
   7725.91    2.612250e-02
   7726.20    3.016223e-02
   7726.49    3.494607e-02
   7726.78    4.041241e-02
   7727.07    4.661529e-02
   7727.36    5.330561e-02
   7727.64    6.030435e-02
   7727.93    6.754696e-02
   7728.22    7.513398e-02
   7728.51    8.329089e-02
   7728.80    9.197268e-02
   7729.09    1.009616e-01
   7729.38    1.095669e-01
   7729.67    1.166812e-01
   7729.96    1.215687e-01
   7730.24    1.237206e-01
   7730.53    1.230912e-01
   7730.82    1.205761e-01
   7731.11    1.170141e-01
   7731.40    1.130860e-01
   7731.69    1.092692e-01
   7731.98    1.058453e-01
   7732.27    1.029767e-01
   7732.56    1.007069e-01
   7732.84    9.897184e-02
   7733.13    9.772173e-02
   7733.42    9.689768e-02
   7733.71    9.643790e-02
   7734.00    9.627994e-02
   7734.29    9.638105e-02
   7734.58    9.664081e-02
   7734.87    9.698991e-02
   7735.16    9.735696e-02
   7735.44    9.767146e-02
   7735.73    9.786881e-02
   7736.02    9.788256e-02
   7736.31    9.767987e-02
   7736.60    9.726437e-02
   7736.89    9.665353e-02
   7737.18    9.588420e-02
   7737.47    9.500655e-02
   7737.76    9.407710e-02
   7738.04    9.315840e-02
   7738.33    9.230205e-02
   7738.62    9.154557e-02
   7738.91    9.091576e-02
   7739.20    9.042895e-02
   7739.49    9.009216e-02
   7739.78    8.991638e-02
   7740.07    8.991515e-02
   7740.36    9.010433e-02
   7740.64    9.029351e-02
   7740.93    9.048268e-02
   7741.22    9.083230e-02
   7741.51    9.123006e-02
   7741.80    9.162781e-02
   7742.09    9.201430e-02
   7742.38    9.237541e-02
   7742.67    9.273653e-02
   7742.96    9.309765e-02
   7743.24    9.327563e-02
   7743.53    9.342032e-02
   7743.82    9.356500e-02
   7744.11    9.359945e-02
   7744.40    9.345751e-02
   7744.69    9.331557e-02
   7744.98    9.317362e-02
   7745.27    9.280656e-02
   7745.56    9.242073e-02
   7745.84    9.203491e-02
   7746.13    9.158442e-02
   7746.42    9.105849e-02
   7746.71    9.053255e-02
   7747.00    9.000662e-02
   7747.29    8.942790e-02
   7747.58    8.884917e-02
   7747.87    8.827044e-02
   7748.16    8.768845e-02
   7748.44    8.710366e-02
   7748.73    8.651887e-02
   7749.02    8.593508e-02
   7749.31    8.536322e-02
   7749.60    8.479137e-02
   7749.89    8.421951e-02
   7750.18    8.365990e-02
   7750.47    8.310794e-02
   7750.76    8.255599e-02
   7751.04    8.200743e-02
   7751.33    8.147759e-02
   7751.62    8.094775e-02
   7751.91    8.041791e-02
   7752.20    7.990250e-02
   7752.49    7.939349e-02
   7752.78    7.888448e-02
   7753.07    7.837954e-02
   7753.36    7.788820e-02
   7753.64    7.739686e-02
   7753.93    7.690552e-02
   7754.22    7.642620e-02
   7754.51    7.595049e-02
   7754.80    7.547478e-02
   7755.09    7.500436e-02
   7755.38    7.454584e-02
   7755.67    7.408733e-02
   7755.96    7.362882e-02
   7756.24    7.318990e-02
   7756.53    7.275454e-02
   7756.82    7.231918e-02
   7757.11    7.189661e-02
   7757.40    7.149448e-02
   7757.69    7.109236e-02
   7757.98    7.069024e-02
   7758.27    7.033352e-02
   7758.56    6.998059e-02
   7758.84    6.962765e-02
   7759.13    6.930810e-02
   7759.42    6.902749e-02
   7759.71    6.874688e-02
   7760.00    6.846628e-02
