 FDMNES
  energy    <xanes>
   7695.00    5.233028e-04
   7695.29    5.290259e-04
   7695.58    5.347489e-04
   7695.87    5.404719e-04
   7696.16    5.464136e-04
   7696.44    5.525427e-04
   7696.73    5.586718e-04
   7697.02    5.648354e-04
   7697.31    5.714139e-04
   7697.60    5.779924e-04
   7697.89    5.845709e-04
   7698.18    5.914565e-04
   7698.47    5.985340e-04
   7698.76    6.056116e-04
   7699.04    6.127747e-04
   7699.33    6.204084e-04
   7699.62    6.280421e-04
   7699.91    6.356758e-04
   7700.20    6.437403e-04
   7700.49    6.519962e-04
   7700.78    6.602522e-04
   7701.07    6.686694e-04
   7701.36    6.776244e-04
   7701.64    6.865793e-04
   7701.93    6.955342e-04
   7702.22    7.050958e-04
   7702.51    7.148394e-04
   7702.80    7.245830e-04
   7703.09    7.346018e-04
   7703.38    7.452396e-04
   7703.67    7.558774e-04
   7703.96    7.665153e-04
   7704.24    7.780155e-04
   7704.53    7.896725e-04
   7704.82    8.013295e-04
   7705.11    8.134358e-04
   7705.40    8.262609e-04
   7705.69    8.390861e-04
   7705.98    8.519112e-04
   7706.27    8.659800e-04
   7706.56    8.801525e-04
   7706.84    8.943249e-04
   7707.13    9.092195e-04
   7707.42    9.249564e-04
   7707.71    9.406934e-04
   7708.00    9.564304e-04
   7708.29    9.739978e-04
   7708.58    9.915653e-04
   7708.87    1.009133e-03
   7709.16    1.027863e-03
   7709.44    1.047590e-03
   7709.73    1.067317e-03
   7710.02    1.087242e-03
   7710.31    1.109542e-03
   7710.60    1.131841e-03
   7710.89    1.154140e-03
   7711.18    1.178344e-03
   7711.47    1.203738e-03
   7711.76    1.229133e-03
   7712.04    1.255107e-03
   7712.33    1.284272e-03
   7712.62    1.313437e-03
   7712.91    1.342601e-03
   7713.20    1.374989e-03
   7713.49    1.408808e-03
   7713.78    1.442628e-03
   7714.07    1.477796e-03
   7714.36    1.517456e-03
   7714.64    1.557116e-03
   7714.93    1.596776e-03
   7715.22    1.642178e-03
   7715.51    1.689304e-03
   7715.80    1.736429e-03
   7716.09    1.786556e-03
   7716.38    1.843440e-03
   7716.67    1.900323e-03
   7716.96    1.957207e-03
   7717.24    2.025183e-03
   7717.53    2.095176e-03
   7717.82    2.165169e-03
   7718.11    2.242174e-03
   7718.40    2.330396e-03
   7718.69    2.418618e-03
   7718.98    2.506840e-03
   7719.27    2.619536e-03
   7719.56    2.734271e-03
   7719.84    2.849006e-03
   7720.13    2.982673e-03
   7720.42    3.138425e-03
   7720.71    3.294177e-03
   7721.00    3.449929e-03
   7721.29    3.675205e-03
   7721.58    3.900481e-03
   7721.87    4.125756e-03
   7722.16    4.424781e-03
   7722.44    4.787018e-03
   7722.73    5.149256e-03
   7723.02    5.539069e-03
   7723.31    6.259788e-03
   7723.60    6.980507e-03
   7723.89    7.701227e-03
   7724.18    9.242158e-03
   7724.47    1.129572e-02
   7724.76    1.334929e-02
   7725.04    1.557337e-02
   7725.33    1.870180e-02
   7725.62    2.166508e-02
   7725.91    2.452072e-02
   7726.20    2.748221e-02
   7726.49    3.081366e-02
   7726.78    3.461791e-02
   7727.07    3.915871e-02
   7727.36    4.450834e-02
   7727.64    5.082847e-02
   7727.93    5.815681e-02
   7728.22    6.634773e-02
   7728.51    7.518808e-02
   7728.80    8.413842e-02
   7729.09    9.247273e-02
   7729.38    9.969460e-02
   7729.67    1.051327e-01
   7729.96    1.088536e-01
   7730.24    1.110338e-01
   7730.53    1.119908e-01
   7730.82    1.122126e-01
   7731.11    1.119725e-01
   7731.40    1.114270e-01
   7731.69    1.106628e-01
   7731.98    1.097248e-01
   7732.27    1.086399e-01
   7732.56    1.074536e-01
   7732.84    1.062310e-01
   7733.13    1.050350e-01
   7733.42    1.039272e-01
   7733.71    1.029608e-01
   7734.00    1.021756e-01
   7734.29    1.016203e-01
   7734.58    1.012749e-01
   7734.87    1.011256e-01
   7735.16    1.011446e-01
   7735.44    1.012929e-01
   7735.73    1.015237e-01
   7736.02    1.017854e-01
   7736.31    1.020226e-01
   7736.60    1.021946e-01
   7736.89    1.022739e-01
   7737.18    1.022471e-01
   7737.47    1.021153e-01
   7737.76    1.018912e-01
   7738.04    1.015962e-01
   7738.33    1.012683e-01
   7738.62    1.009363e-01
   7738.91    1.006260e-01
   7739.20    1.003572e-01
   7739.49    1.001433e-01
   7739.78    9.999577e-02
   7740.07    9.992094e-02
   7740.36    9.992012e-02
   7740.64    9.991931e-02
   7740.93    9.991850e-02
   7741.22    9.992794e-02
   7741.51    9.994046e-02
   7741.80    9.995298e-02
   7742.09    9.991132e-02
   7742.38    9.974778e-02
   7742.67    9.958423e-02
   7742.96    9.942069e-02
   7743.24    9.901831e-02
   7743.53    9.857251e-02
   7743.82    9.812671e-02
   7744.11    9.757840e-02
   7744.40    9.686609e-02
   7744.69    9.615378e-02
   7744.98    9.544146e-02
   7745.27    9.458829e-02
   7745.56    9.372339e-02
   7745.84    9.285848e-02
   7746.13    9.199090e-02
   7746.42    9.112021e-02
   7746.71    9.024952e-02
   7747.00    8.937884e-02
   7747.29    8.860085e-02
   7747.58    8.782286e-02
   7747.87    8.704488e-02
   7748.16    8.633937e-02
   7748.44    8.569599e-02
   7748.73    8.505261e-02
   7749.02    8.441975e-02
   7749.31    8.391322e-02
   7749.60    8.340669e-02
   7749.89    8.290016e-02
   7750.18    8.246324e-02
   7750.47    8.206982e-02
   7750.76    8.167641e-02
   7751.04    8.129454e-02
   7751.33    8.097619e-02
   7751.62    8.065783e-02
   7751.91    8.033948e-02
   7752.20    8.004271e-02
   7752.49    7.975554e-02
   7752.78    7.946836e-02
   7753.07    7.917832e-02
   7753.36    7.887872e-02
   7753.64    7.857912e-02
   7753.93    7.827952e-02
   7754.22    7.794153e-02
   7754.51    7.759202e-02
   7754.80    7.724251e-02
   7755.09    7.687000e-02
   7755.38    7.644575e-02
   7755.67    7.602149e-02
   7755.96    7.559724e-02
   7756.24    7.510589e-02
   7756.53    7.460233e-02
   7756.82    7.409877e-02
   7757.11    7.357371e-02
   7757.40    7.301423e-02
   7757.69    7.245475e-02
   7757.98    7.189527e-02
   7758.27    7.133652e-02
   7758.56    7.077783e-02
   7758.84    7.021914e-02
   7759.13    6.969926e-02
   7759.42    6.922467e-02
   7759.71    6.875007e-02
   7760.00    6.827548e-02
