 FDMNES
  energy    <xanes>
   7695.00    5.465351e-04
   7695.29    5.523592e-04
   7695.58    5.581834e-04
   7695.87    5.640075e-04
   7696.16    5.700519e-04
   7696.44    5.762850e-04
   7696.73    5.825182e-04
   7697.02    5.887861e-04
   7697.31    5.954718e-04
   7697.60    6.021575e-04
   7697.89    6.088432e-04
   7698.18    6.158381e-04
   7698.47    6.230263e-04
   7698.76    6.302144e-04
   7699.04    6.374888e-04
   7699.33    6.452369e-04
   7699.62    6.529850e-04
   7699.91    6.607331e-04
   7700.20    6.689148e-04
   7700.49    6.772893e-04
   7700.78    6.856638e-04
   7701.07    6.942007e-04
   7701.36    7.032789e-04
   7701.64    7.123570e-04
   7701.93    7.214352e-04
   7702.22    7.311241e-04
   7702.51    7.409962e-04
   7702.80    7.508684e-04
   7703.09    7.610176e-04
   7703.38    7.717901e-04
   7703.67    7.825626e-04
   7703.96    7.933352e-04
   7704.24    8.049762e-04
   7704.53    8.167751e-04
   7704.82    8.285739e-04
   7705.11    8.408254e-04
   7705.40    8.538011e-04
   7705.69    8.667767e-04
   7705.98    8.797524e-04
   7706.27    8.939813e-04
   7706.56    9.083147e-04
   7706.84    9.226481e-04
   7707.13    9.377095e-04
   7707.42    9.536203e-04
   7707.71    9.695311e-04
   7708.00    9.854419e-04
   7708.29    1.003199e-03
   7708.58    1.020957e-03
   7708.87    1.038714e-03
   7709.16    1.057646e-03
   7709.44    1.077584e-03
   7709.73    1.097522e-03
   7710.02    1.117660e-03
   7710.31    1.140197e-03
   7710.60    1.162735e-03
   7710.89    1.185272e-03
   7711.18    1.209736e-03
   7711.47    1.235405e-03
   7711.76    1.261074e-03
   7712.04    1.287331e-03
   7712.33    1.316819e-03
   7712.62    1.346307e-03
   7712.91    1.375796e-03
   7713.20    1.408554e-03
   7713.49    1.442766e-03
   7713.78    1.476978e-03
   7714.07    1.512561e-03
   7714.36    1.552711e-03
   7714.64    1.592861e-03
   7714.93    1.633011e-03
   7715.22    1.679013e-03
   7715.51    1.726770e-03
   7715.80    1.774528e-03
   7716.09    1.825354e-03
   7716.38    1.883085e-03
   7716.67    1.940816e-03
   7716.96    1.998547e-03
   7717.24    2.067654e-03
   7717.53    2.138830e-03
   7717.82    2.210006e-03
   7718.11    2.288404e-03
   7718.40    2.378356e-03
   7718.69    2.468309e-03
   7718.98    2.558262e-03
   7719.27    2.673561e-03
   7719.56    2.790973e-03
   7719.84    2.908384e-03
   7720.13    3.045538e-03
   7720.42    3.205726e-03
   7720.71    3.365913e-03
   7721.00    3.526100e-03
   7721.29    3.759431e-03
   7721.58    3.992762e-03
   7721.87    4.226093e-03
   7722.16    4.537828e-03
   7722.44    4.916766e-03
   7722.73    5.295704e-03
   7723.02    5.704226e-03
   7723.31    6.467758e-03
   7723.60    7.231290e-03
   7723.89    7.994822e-03
   7724.18    9.649404e-03
   7724.47    1.186089e-02
   7724.76    1.407238e-02
   7725.04    1.648443e-02
   7725.33    2.000783e-02
   7725.62    2.347665e-02
   7725.91    2.690410e-02
   7726.20    3.041934e-02
   7726.49    3.415841e-02
   7726.78    3.814832e-02
   7727.07    4.250935e-02
   7727.36    4.727026e-02
   7727.64    5.251199e-02
   7727.93    5.827568e-02
   7728.22    6.455224e-02
   7728.51    7.138212e-02
   7728.80    7.863026e-02
   7729.09    8.626111e-02
   7729.38    9.402367e-02
   7729.67    1.016181e-01
   7729.96    1.086699e-01
   7730.24    1.146966e-01
   7730.53    1.190547e-01
   7730.82    1.215217e-01
   7731.11    1.221207e-01
   7731.40    1.211199e-01
   7731.69    1.189547e-01
   7731.98    1.160978e-01
   7732.27    1.129607e-01
   7732.56    1.098712e-01
   7732.84    1.070057e-01
   7733.13    1.044486e-01
   7733.42    1.022353e-01
   7733.71    1.003734e-01
   7734.00    9.885594e-02
   7734.29    9.770347e-02
   7734.58    9.685194e-02
   7734.87    9.627218e-02
   7735.16    9.592901e-02
   7735.44    9.578110e-02
   7735.73    9.578161e-02
   7736.02    9.588264e-02
   7736.31    9.602277e-02
   7736.60    9.614844e-02
   7736.89    9.621743e-02
   7737.18    9.619779e-02
   7737.47    9.607031e-02
   7737.76    9.582807e-02
   7738.04    9.547333e-02
   7738.33    9.504038e-02
   7738.62    9.455903e-02
   7738.91    9.406215e-02
   7739.20    9.358184e-02
   7739.49    9.314624e-02
   7739.78    9.278431e-02
   7740.07    9.253534e-02
   7740.36    9.243754e-02
   7740.64    9.233974e-02
   7740.93    9.224193e-02
   7741.22    9.234618e-02
   7741.51    9.251103e-02
   7741.80    9.267589e-02
   7742.09    9.287030e-02
   7742.38    9.313122e-02
   7742.67    9.339214e-02
   7742.96    9.365306e-02
   7743.24    9.383370e-02
   7743.53    9.399975e-02
   7743.82    9.416580e-02
   7744.11    9.424412e-02
   7744.40    9.418210e-02
   7744.69    9.412007e-02
   7744.98    9.405805e-02
   7745.27    9.376165e-02
   7745.56    9.344571e-02
   7745.84    9.312978e-02
   7746.13    9.273173e-02
   7746.42    9.223786e-02
   7746.71    9.174400e-02
   7747.00    9.125014e-02
   7747.29    9.069709e-02
   7747.58    9.014403e-02
   7747.87    8.959098e-02
   7748.16    8.905726e-02
   7748.44    8.854010e-02
   7748.73    8.802294e-02
   7749.02    8.751138e-02
   7749.31    8.706700e-02
   7749.60    8.662262e-02
   7749.89    8.617824e-02
   7750.18    8.577669e-02
   7750.47    8.540191e-02
   7750.76    8.502714e-02
   7751.04    8.466030e-02
   7751.33    8.433716e-02
   7751.62    8.401402e-02
   7751.91    8.369088e-02
   7752.20    8.338911e-02
   7752.49    8.309684e-02
   7752.78    8.280457e-02
   7753.07    8.251499e-02
   7753.36    8.223436e-02
   7753.64    8.195373e-02
   7753.93    8.167309e-02
   7754.22    8.138887e-02
   7754.51    8.110356e-02
   7754.80    8.081825e-02
   7755.09    8.052777e-02
   7755.38    8.022564e-02
   7755.67    7.992351e-02
   7755.96    7.962139e-02
   7756.24    7.930048e-02
   7756.53    7.897617e-02
   7756.82    7.865185e-02
   7757.11    7.832135e-02
   7757.40    7.798095e-02
   7757.69    7.764055e-02
   7757.98    7.730015e-02
   7758.27    7.696741e-02
   7758.56    7.663530e-02
   7758.84    7.630320e-02
   7759.13    7.599494e-02
   7759.42    7.571451e-02
   7759.71    7.543409e-02
   7760.00    7.515366e-02
