 FDMNES
  energy    <xanes>
   7695.00    5.363330e-04
   7695.29    5.422098e-04
   7695.58    5.480867e-04
   7695.87    5.539636e-04
   7696.16    5.600676e-04
   7696.44    5.663664e-04
   7696.73    5.726652e-04
   7697.02    5.790000e-04
   7697.31    5.857665e-04
   7697.60    5.925330e-04
   7697.89    5.992995e-04
   7698.18    6.063861e-04
   7698.47    6.136728e-04
   7698.76    6.209595e-04
   7699.04    6.283356e-04
   7699.33    6.362032e-04
   7699.62    6.440707e-04
   7699.91    6.519383e-04
   7700.20    6.602565e-04
   7700.49    6.687751e-04
   7700.78    6.772937e-04
   7701.07    6.859815e-04
   7701.36    6.952329e-04
   7701.64    7.044844e-04
   7701.93    7.137358e-04
   7702.22    7.236248e-04
   7702.51    7.337051e-04
   7702.80    7.437853e-04
   7703.09    7.541554e-04
   7703.38    7.651776e-04
   7703.67    7.761998e-04
   7703.96    7.872219e-04
   7704.24    7.991548e-04
   7704.53    8.112533e-04
   7704.82    8.233518e-04
   7705.11    8.359261e-04
   7705.40    8.492617e-04
   7705.69    8.625973e-04
   7705.98    8.759329e-04
   7706.27    8.905895e-04
   7706.56    9.053563e-04
   7706.84    9.201230e-04
   7707.13    9.356592e-04
   7707.42    9.520932e-04
   7707.71    9.685273e-04
   7708.00    9.849613e-04
   7708.29    1.003353e-03
   7708.58    1.021745e-03
   7708.87    1.040136e-03
   7709.16    1.059777e-03
   7709.44    1.080487e-03
   7709.73    1.101197e-03
   7710.02    1.122121e-03
   7710.31    1.145604e-03
   7710.60    1.169087e-03
   7710.89    1.192570e-03
   7711.18    1.218115e-03
   7711.47    1.244951e-03
   7711.76    1.271786e-03
   7712.04    1.299252e-03
   7712.33    1.330191e-03
   7712.62    1.361129e-03
   7712.91    1.392067e-03
   7713.20    1.426532e-03
   7713.49    1.462564e-03
   7713.78    1.498596e-03
   7714.07    1.536111e-03
   7714.36    1.578571e-03
   7714.64    1.621031e-03
   7714.93    1.663491e-03
   7715.22    1.712313e-03
   7715.51    1.763043e-03
   7715.80    1.813773e-03
   7716.09    1.867852e-03
   7716.38    1.929469e-03
   7716.67    1.991086e-03
   7716.96    2.052703e-03
   7717.24    2.126791e-03
   7717.53    2.203148e-03
   7717.82    2.279505e-03
   7718.11    2.363811e-03
   7718.40    2.460839e-03
   7718.69    2.557866e-03
   7718.98    2.654893e-03
   7719.27    2.779930e-03
   7719.56    2.907300e-03
   7719.84    3.034671e-03
   7720.13    3.183924e-03
   7720.42    3.358706e-03
   7720.71    3.533488e-03
   7721.00    3.708270e-03
   7721.29    3.964238e-03
   7721.58    4.220206e-03
   7721.87    4.476174e-03
   7722.16    4.819053e-03
   7722.44    5.236427e-03
   7722.73    5.653801e-03
   7723.02    6.103810e-03
   7723.31    6.945434e-03
   7723.60    7.787058e-03
   7723.89    8.628682e-03
   7724.18    1.044381e-02
   7724.47    1.286739e-02
   7724.76    1.529096e-02
   7725.04    1.792749e-02
   7725.33    2.172894e-02
   7725.62    2.543248e-02
   7725.91    2.908496e-02
   7726.20    3.288435e-02
   7726.49    3.710448e-02
   7726.78    4.185796e-02
   7727.07    4.746318e-02
   7727.36    5.400044e-02
   7727.64    6.155487e-02
   7727.93    6.992638e-02
   7728.22    7.867816e-02
   7728.51    8.743887e-02
   7728.80    9.604901e-02
   7729.09    1.044562e-01
   7729.38    1.125973e-01
   7729.67    1.199901e-01
   7729.96    1.261043e-01
   7730.24    1.303228e-01
   7730.53    1.320972e-01
   7730.82    1.316553e-01
   7731.11    1.294330e-01
   7731.40    1.259817e-01
   7731.69    1.218552e-01
   7731.98    1.175135e-01
   7732.27    1.133058e-01
   7732.56    1.094636e-01
   7732.84    1.060678e-01
   7733.13    1.031495e-01
   7733.42    1.006988e-01
   7733.71    9.868153e-02
   7734.00    9.705086e-02
   7734.29    9.578701e-02
   7734.58    9.478978e-02
   7734.87    9.400397e-02
   7735.16    9.337680e-02
   7735.44    9.286000e-02
   7735.73    9.241215e-02
   7736.02    9.200132e-02
   7736.31    9.160240e-02
   7736.60    9.120366e-02
   7736.89    9.080373e-02
   7737.18    9.040814e-02
   7737.47    9.002728e-02
   7737.76    8.967502e-02
   7738.04    8.937068e-02
   7738.33    8.912393e-02
   7738.62    8.894522e-02
   7738.91    8.884190e-02
   7739.20    8.881775e-02
   7739.49    8.887284e-02
   7739.78    8.900932e-02
   7740.07    8.922516e-02
   7740.36    8.951627e-02
   7740.64    8.980738e-02
   7740.93    9.009849e-02
   7741.22    9.039734e-02
   7741.51    9.069851e-02
   7741.80    9.099968e-02
   7742.09    9.125392e-02
   7742.38    9.140254e-02
   7742.67    9.155116e-02
   7742.96    9.169978e-02
   7743.24    9.165069e-02
   7743.53    9.156566e-02
   7743.82    9.148062e-02
   7744.11    9.130912e-02
   7744.40    9.099928e-02
   7744.69    9.068943e-02
   7744.98    9.037959e-02
   7745.27    8.993467e-02
   7745.56    8.947850e-02
   7745.84    8.902233e-02
   7746.13    8.854419e-02
   7746.42    8.804042e-02
   7746.71    8.753666e-02
   7747.00    8.703289e-02
   7747.29    8.654832e-02
   7747.58    8.606376e-02
   7747.87    8.557919e-02
   7748.16    8.511731e-02
   7748.44    8.467486e-02
   7748.73    8.423242e-02
   7749.02    8.379310e-02
   7749.31    8.339126e-02
   7749.60    8.298941e-02
   7749.89    8.258757e-02
   7750.18    8.220478e-02
   7750.47    8.183391e-02
   7750.76    8.146303e-02
   7751.04    8.109482e-02
   7751.33    8.074130e-02
   7751.62    8.038777e-02
   7751.91    8.003425e-02
   7752.20    7.968151e-02
   7752.49    7.932912e-02
   7752.78    7.897674e-02
   7753.07    7.862125e-02
   7753.36    7.825543e-02
   7753.64    7.788961e-02
   7753.93    7.752379e-02
   7754.22    7.714224e-02
   7754.51    7.675598e-02
   7754.80    7.636972e-02
   7755.09    7.597874e-02
   7755.38    7.557717e-02
   7755.67    7.517560e-02
   7755.96    7.477403e-02
   7756.24    7.437454e-02
   7756.53    7.397542e-02
   7756.82    7.357630e-02
   7757.11    7.318814e-02
   7757.40    7.281752e-02
   7757.69    7.244691e-02
   7757.98    7.207629e-02
   7758.27    7.175691e-02
   7758.56    7.144181e-02
   7758.84    7.112670e-02
   7759.13    7.084633e-02
   7759.42    7.060650e-02
   7759.71    7.036666e-02
   7760.00    7.012682e-02
