 FDMNES
  energy    <xanes>
   7695.00    5.456536e-04
   7695.29    5.513227e-04
   7695.58    5.569918e-04
   7695.87    5.626610e-04
   7696.16    5.685386e-04
   7696.44    5.745951e-04
   7696.73    5.806516e-04
   7697.02    5.867409e-04
   7697.31    5.932250e-04
   7697.60    5.997090e-04
   7697.89    6.061930e-04
   7698.18    6.129684e-04
   7698.47    6.199259e-04
   7698.76    6.268834e-04
   7699.04    6.339218e-04
   7699.33    6.414054e-04
   7699.62    6.488891e-04
   7699.91    6.563727e-04
   7700.20    6.642627e-04
   7700.49    6.723332e-04
   7700.78    6.804037e-04
   7701.07    6.886260e-04
   7701.36    6.973538e-04
   7701.64    7.060816e-04
   7701.93    7.148094e-04
   7702.22    7.241059e-04
   7702.51    7.335730e-04
   7702.80    7.430402e-04
   7703.09    7.527644e-04
   7703.38    7.630670e-04
   7703.67    7.733697e-04
   7703.96    7.836723e-04
   7704.24    7.947780e-04
   7704.53    8.060297e-04
   7704.82    8.172813e-04
   7705.11    8.289500e-04
   7705.40    8.412857e-04
   7705.69    8.536214e-04
   7705.98    8.659571e-04
   7706.27    8.794428e-04
   7706.56    8.930244e-04
   7706.84    9.066059e-04
   7707.13    9.208527e-04
   7707.42    9.358756e-04
   7707.71    9.508985e-04
   7708.00    9.659214e-04
   7708.29    9.826244e-04
   7708.58    9.993274e-04
   7708.87    1.016030e-03
   7709.16    1.033797e-03
   7709.44    1.052474e-03
   7709.73    1.071152e-03
   7710.02    1.090010e-03
   7710.31    1.111030e-03
   7710.60    1.132050e-03
   7710.89    1.153070e-03
   7711.18    1.175817e-03
   7711.47    1.199645e-03
   7711.76    1.223473e-03
   7712.04    1.247825e-03
   7712.33    1.275060e-03
   7712.62    1.302294e-03
   7712.91    1.329528e-03
   7713.20    1.359663e-03
   7713.49    1.391088e-03
   7713.78    1.422512e-03
   7714.07    1.455145e-03
   7714.36    1.491806e-03
   7714.64    1.528467e-03
   7714.93    1.565128e-03
   7715.22    1.606921e-03
   7715.51    1.650253e-03
   7715.80    1.693585e-03
   7716.09    1.739593e-03
   7716.38    1.791620e-03
   7716.67    1.843648e-03
   7716.96    1.895675e-03
   7717.24    1.957567e-03
   7717.53    2.021252e-03
   7717.82    2.084937e-03
   7718.11    2.154853e-03
   7718.40    2.234740e-03
   7718.69    2.314626e-03
   7718.98    2.394513e-03
   7719.27    2.496189e-03
   7719.56    2.599681e-03
   7719.84    2.703173e-03
   7720.13    2.823617e-03
   7720.42    2.963839e-03
   7720.71    3.104061e-03
   7721.00    3.244283e-03
   7721.29    3.447543e-03
   7721.58    3.650803e-03
   7721.87    3.854063e-03
   7722.16    4.125825e-03
   7722.44    4.456302e-03
   7722.73    4.786779e-03
   7723.02    5.143987e-03
   7723.31    5.821958e-03
   7723.60    6.499929e-03
   7723.89    7.177901e-03
   7724.18    8.679319e-03
   7724.47    1.069539e-02
   7724.76    1.271146e-02
   7725.04    1.488399e-02
   7725.33    1.783555e-02
   7725.62    2.048952e-02
   7725.91    2.293047e-02
   7726.20    2.540294e-02
   7726.49    2.812002e-02
   7726.78    3.115691e-02
   7727.07    3.467299e-02
   7727.36    3.868437e-02
   7727.64    4.324161e-02
   7727.93    4.831154e-02
   7728.22    5.377516e-02
   7728.51    5.951721e-02
   7728.80    6.534044e-02
   7729.09    7.107905e-02
   7729.38    7.661966e-02
   7729.67    8.178772e-02
   7729.96    8.646816e-02
   7730.24    9.044737e-02
   7730.53    9.339226e-02
   7730.82    9.520352e-02
   7731.11    9.592845e-02
   7731.40    9.578412e-02
   7731.69    9.510342e-02
   7731.98    9.423240e-02
   7732.27    9.346293e-02
   7732.56    9.298556e-02
   7732.84    9.284919e-02
   7733.13    9.305221e-02
   7733.42    9.355809e-02
   7733.71    9.431229e-02
   7734.00    9.525334e-02
   7734.29    9.632856e-02
   7734.58    9.746419e-02
   7734.87    9.861656e-02
   7735.16    9.975242e-02
   7735.44    1.008479e-01
   7735.73    1.018856e-01
   7736.02    1.028453e-01
   7736.31    1.037102e-01
   7736.60    1.044651e-01
   7736.89    1.050888e-01
   7737.18    1.055609e-01
   7737.47    1.058666e-01
   7737.76    1.059980e-01
   7738.04    1.059514e-01
   7738.33    1.057679e-01
   7738.62    1.054812e-01
   7738.91    1.051302e-01
   7739.20    1.047547e-01
   7739.49    1.043911e-01
   7739.78    1.040749e-01
   7740.07    1.038533e-01
   7740.36    1.037706e-01
   7740.64    1.036880e-01
   7740.93    1.036053e-01
   7741.22    1.037338e-01
   7741.51    1.039256e-01
   7741.80    1.041174e-01
   7742.09    1.043501e-01
   7742.38    1.046750e-01
   7742.67    1.049998e-01
   7742.96    1.053247e-01
   7743.24    1.055886e-01
   7743.53    1.058415e-01
   7743.82    1.060943e-01
   7744.11    1.062420e-01
   7744.40    1.062212e-01
   7744.69    1.062005e-01
   7744.98    1.061798e-01
   7745.27    1.057996e-01
   7745.56    1.053895e-01
   7745.84    1.049794e-01
   7746.13    1.044060e-01
   7746.42    1.036421e-01
   7746.71    1.028782e-01
   7747.00    1.021142e-01
   7747.29    1.011503e-01
   7747.58    1.001864e-01
   7747.87    9.922254e-02
   7748.16    9.824208e-02
   7748.44    9.724742e-02
   7748.73    9.625277e-02
   7749.02    9.526487e-02
   7749.31    9.435798e-02
   7749.60    9.345109e-02
   7749.89    9.254420e-02
   7750.18    9.172715e-02
   7750.47    9.096624e-02
   7750.76    9.020533e-02
   7751.04    8.946706e-02
   7751.33    8.885328e-02
   7751.62    8.823951e-02
   7751.91    8.762573e-02
   7752.20    8.709507e-02
   7752.49    8.660134e-02
   7752.78    8.610761e-02
   7753.07    8.563360e-02
   7753.36    8.522531e-02
   7753.64    8.481702e-02
   7753.93    8.440873e-02
   7754.22    8.403873e-02
   7754.51    8.368022e-02
   7754.80    8.332171e-02
   7755.09    8.296853e-02
   7755.38    8.262732e-02
   7755.67    8.228611e-02
   7755.96    8.194490e-02
   7756.24    8.159769e-02
   7756.53    8.124939e-02
   7756.82    8.090108e-02
   7757.11    8.054647e-02
   7757.40    8.018178e-02
   7757.69    7.981708e-02
   7757.98    7.945238e-02
   7758.27    7.908706e-02
   7758.56    7.872168e-02
   7758.84    7.835630e-02
   7759.13    7.801217e-02
   7759.42    7.769284e-02
   7759.71    7.737351e-02
   7760.00    7.705418e-02
