    Energy    <xanes>    
  -25.0000  1.6799041E-04
  -24.0000  1.7436012E-04
  -23.0000  1.8117875E-04
  -22.0000  1.8849371E-04
  -21.0000  1.9635921E-04
  -20.0000  2.0483749E-04
  -19.0000  2.1400037E-04
  -18.0000  2.2393112E-04
  -17.0000  2.3472689E-04
  -16.0000  2.4650160E-04
  -15.0000  2.5938976E-04
  -14.0000  2.7355130E-04
  -13.0000  2.8917780E-04
  -12.0000  3.0650069E-04
  -11.0000  3.2580212E-04
  -10.0000  3.4742958E-04
  -9.00000  3.7181594E-04
  -8.00000  3.9950724E-04
  -7.00000  4.3120229E-04
  -6.00000  4.6781011E-04
  -5.00000  5.1053560E-04
  -4.00000  5.6101135E-04
  -3.00000  6.2150760E-04
  -2.00000  6.9528174E-04
  -1.00000  7.8719156E-04
   0.00000  9.0484542E-04
   1.00000  1.0609558E-03
   2.00000  1.2787625E-03
   3.00000  1.6068956E-03
   4.00000  2.1730674E-03
   5.00000  3.4497423E-03
   5.20000  3.8933248E-03
   5.40000  4.4322583E-03
   5.60000  5.0859218E-03
   5.80000  5.8693412E-03
   6.00000  6.7774319E-03
   6.20000  7.7733019E-03
   6.40000  8.8029976E-03
   6.60000  9.8404738E-03
   6.80000  1.0910696E-02
   7.00000  1.2058057E-02
   7.20000  1.3305560E-02
   7.40000  1.4644100E-02
   7.60000  1.6040401E-02
   7.80000  1.7445117E-02
   8.00000  1.8789832E-02
   8.20000  1.9964272E-02
   8.40000  2.0813637E-02
   8.60000  2.1228941E-02
   8.80000  2.1290210E-02
   9.00000  2.1281466E-02
   9.20000  2.1530733E-02
   9.40000  2.2262960E-02
   9.60000  2.3572314E-02
   9.80000  2.5456192E-02
   10.0000  2.7845979E-02
   10.2500  3.1351228E-02
   10.5000  3.5091973E-02
   10.7500  3.8614988E-02
   11.0000  4.1481511E-02
   11.2500  4.3417187E-02
   11.5000  4.4399748E-02
   11.7500  4.4629421E-02
   12.0000  4.4400899E-02
   12.2500  4.3943891E-02
   12.5000  4.3330369E-02
   12.7500  4.2506630E-02
   13.0000  4.1408672E-02
   13.2500  4.0053677E-02
   13.5000  3.8540911E-02
   13.7500  3.6995174E-02
   14.0000  3.5519139E-02
   14.2500  3.4178710E-02
   14.5000  3.3008570E-02
   14.7500  3.2021683E-02
   15.0000  3.1216605E-02
   15.2500  3.0582897E-02
   15.5000  3.0105379E-02
   15.7500  2.9767285E-02
   16.0000  2.9552622E-02
   16.2500  2.9447914E-02
   16.5000  2.9442815E-02
   16.7500  2.9529390E-02
   17.0000  2.9700561E-02
   17.2500  2.9948465E-02
   17.5000  3.0263212E-02
   17.7500  3.0632314E-02
   18.0000  3.1040801E-02
   18.2500  3.1471953E-02
   18.5000  3.1908493E-02
   18.7500  3.2334013E-02
   19.0000  3.2734331E-02
   19.2500  3.3098510E-02
   19.5000  3.3419335E-02
   19.7500  3.3693243E-02
   20.0000  3.3919783E-02
   21.0000  3.4403384E-02
   22.0000  3.4357138E-02
   23.0000  3.3918177E-02
   24.0000  3.3242736E-02
   25.0000  3.2528168E-02
   26.0000  3.1903933E-02
   27.0000  3.1371107E-02
   28.0000  3.0856681E-02
   29.0000  3.0278690E-02
   30.0000  2.9584381E-02
   31.0000  2.8757584E-02
   32.0000  2.7815779E-02
   33.0000  2.6803495E-02
   34.0000  2.5777474E-02
   35.0000  2.4790062E-02
   36.0000  2.3879173E-02
   37.0000  2.3065438E-02
   38.0000  2.2356678E-02
   39.0000  2.1760139E-02
   40.0000  2.1294360E-02
