 FDMNES
  energy    <xanes>
    -25.00    5.266730e-04
    -24.00    5.461458e-04
    -23.00    5.669762e-04
    -22.00    5.893072e-04
    -21.00    6.133026e-04
    -20.00    6.391505e-04
    -19.00    6.670682e-04
    -18.00    6.973078e-04
    -17.00    7.301639e-04
    -16.00    7.659824e-04
    -15.00    8.051723e-04
    -14.00    8.482212e-04
    -13.00    8.957144e-04
    -12.00    9.483609e-04
    -11.00    1.007028e-03
    -10.00    1.072789e-03
     -9.00    1.146987e-03
     -8.00    1.231324e-03
     -7.00    1.327996e-03
     -6.00    1.439884e-03
     -5.00    1.570845e-03
     -4.00    1.726173e-03
     -3.00    1.913348e-03
     -2.00    2.143332e-03
     -1.00    2.432925e-03
      0.00    2.809443e-03
      1.00    3.321050e-03
      2.00    4.063322e-03
      3.00    5.265352e-03
      4.00    7.692369e-03
      5.00    1.474022e-02
      5.20    1.689718e-02
      5.40    1.897711e-02
      5.60    2.092444e-02
      5.80    2.279616e-02
      6.00    2.468160e-02
      6.20    2.666461e-02
      6.40    2.881590e-02
      6.60    3.119454e-02
      6.80    3.385059e-02
      7.00    3.682662e-02
      7.20    4.015683e-02
      7.40    4.386398e-02
      7.60    4.795400e-02
      7.80    5.240925e-02
      8.00    5.718214e-02
      8.20    6.219102e-02
      8.40    6.732081e-02
      8.60    7.243063e-02
      8.80    7.736851e-02
      9.00    8.198992e-02
      9.20    8.617393e-02
      9.40    8.983168e-02
      9.60    9.290675e-02
      9.80    9.537125e-02
     10.00    9.722264e-02
     10.25    9.871143e-02
     10.50    9.937837e-02
     10.75    9.937492e-02
     11.00    9.888464e-02
     11.25    9.809760e-02
     11.50    9.718490e-02
     11.75    9.627974e-02
     12.00    9.547054e-02
     12.25    9.480635e-02
     12.50    9.430727e-02
     12.75    9.397449e-02
     13.00    9.379950e-02
     13.25    9.377148e-02
     13.50    9.388040e-02
     13.75    9.411697e-02
     14.00    9.447155e-02
     14.25    9.493324e-02
     14.50    9.548933e-02
     14.75    9.612506e-02
     15.00    9.682375e-02
     15.25    9.756688e-02
     15.50    9.833436e-02
     15.75    9.910478e-02
     16.00    9.985591e-02
     16.25    1.005654e-01
     16.50    1.012121e-01
     16.75    1.017769e-01
     17.00    1.022448e-01
     17.25    1.026059e-01
     17.50    1.028564e-01
     17.75    1.029992e-01
     18.00    1.030431e-01
     18.25    1.030021e-01
     18.50    1.028940e-01
     18.75    1.027385e-01
     19.00    1.025555e-01
     19.25    1.023637e-01
     19.50    1.021792e-01
     19.75    1.020147e-01
     20.00    1.018790e-01
     21.00    1.016806e-01
     22.00    1.018869e-01
     23.00    1.020302e-01
     24.00    1.016545e-01
     25.00    1.005416e-01
     26.00    9.873765e-02
     27.00    9.645915e-02
     28.00    9.397102e-02
     29.00    9.149539e-02
     30.00    8.917420e-02
     31.00    8.706954e-02
     32.00    8.515673e-02
     33.00    8.336766e-02
     34.00    8.162989e-02
     35.00    7.988301e-02
     36.00    7.808869e-02
     37.00    7.624378e-02
     38.00    7.439668e-02
     39.00    7.266558e-02
     40.00    7.123581e-02
