 FDMNES
  energy    <xanes>
    -25.00    5.539387e-04
    -24.00    5.741875e-04
    -23.00    5.958556e-04
    -22.00    6.190944e-04
    -21.00    6.440779e-04
    -20.00    6.710061e-04
    -19.00    7.001108e-04
    -18.00    7.316618e-04
    -17.00    7.659746e-04
    -16.00    8.034214e-04
    -15.00    8.444436e-04
    -14.00    8.895686e-04
    -13.00    9.394325e-04
    -12.00    9.948086e-04
    -11.00    1.056647e-03
    -10.00    1.126127e-03
     -9.00    1.204735e-03
     -8.00    1.294362e-03
     -7.00    1.397462e-03
     -6.00    1.517274e-03
     -5.00    1.658163e-03
     -4.00    1.826164e-03
     -3.00    2.029874e-03
     -2.00    2.281993e-03
     -1.00    2.602178e-03
      0.00    3.022728e-03
      1.00    3.601283e-03
      2.00    4.453807e-03
      3.00    5.862667e-03
      4.00    8.786984e-03
      5.00    1.753200e-02
      5.20    2.022204e-02
      5.40    2.280799e-02
      5.60    2.521556e-02
      5.80    2.750924e-02
      6.00    2.979140e-02
      6.20    3.215702e-02
      6.40    3.468543e-02
      6.60    3.744154e-02
      6.80    4.047716e-02
      7.00    4.383076e-02
      7.20    4.752591e-02
      7.40    5.156931e-02
      7.60    5.594919e-02
      7.80    6.063519e-02
      8.00    6.558057e-02
      8.20    7.072726e-02
      8.40    7.601200e-02
      8.60    8.137034e-02
      8.80    8.673684e-02
      9.00    9.204217e-02
      9.20    9.720981e-02
      9.40    1.021538e-01
      9.60    1.067766e-01
      9.80    1.109672e-01
     10.00    1.146003e-01
     10.25    1.181494e-01
     10.50    1.203598e-01
     10.75    1.210651e-01
     11.00    1.202683e-01
     11.25    1.181688e-01
     11.50    1.151125e-01
     11.75    1.114960e-01
     12.00    1.076783e-01
     12.25    1.039313e-01
     12.50    1.004320e-01
     12.75    9.727979e-02
     13.00    9.451986e-02
     13.25    9.216431e-02
     13.50    9.020581e-02
     13.75    8.862526e-02
     14.00    8.739586e-02
     14.25    8.648628e-02
     14.50    8.586344e-02
     14.75    8.549401e-02
     15.00    8.534503e-02
     15.25    8.538398e-02
     15.50    8.557883e-02
     15.75    8.589820e-02
     16.00    8.631172e-02
     16.25    8.679069e-02
     16.50    8.730889e-02
     16.75    8.784347e-02
     17.00    8.837590e-02
     17.25    8.889257e-02
     17.50    8.938516e-02
     17.75    8.985060e-02
     18.00    9.029062e-02
     18.25    9.071093e-02
     18.50    9.112017e-02
     18.75    9.152875e-02
     19.00    9.194766e-02
     19.25    9.238738e-02
     19.50    9.285694e-02
     19.75    9.336306e-02
     20.00    9.390924e-02
     21.00    9.642077e-02
     22.00    9.889270e-02
     23.00    1.002239e-01
     24.00    9.964972e-02
     25.00    9.742224e-02
     26.00    9.446781e-02
     27.00    9.158931e-02
     28.00    8.914299e-02
     29.00    8.716708e-02
     30.00    8.557472e-02
     31.00    8.425580e-02
     32.00    8.311143e-02
     33.00    8.206792e-02
     34.00    8.109350e-02
     35.00    8.019755e-02
     36.00    7.939136e-02
     37.00    7.867797e-02
     38.00    7.805577e-02
     39.00    7.752858e-02
     40.00    7.711733e-02
